
Integration time [ms]: 100.000
Averaging Nr. [scans]: 40
Smoothing Nr. [pixels]: 0
Data measured with spectrometer [name]: 2101012U2
Wave   ;Sample   ;Dark     ;Reference
[nm]   ;[counts] ;[counts] ;[counts] 

197.733;   52.675;  516.000;  404.000
197.879;  -89.125; -610.000; -634.000
198.025;  -49.625; -475.000; -420.000
198.171;  -79.200; -602.000; -612.000
198.317;  -34.125; -401.000; -316.000
198.463;  -72.175; -655.000; -404.000
198.609;   18.200;  181.000; -137.000
198.755;  -74.050; -644.000; -410.000
198.901;  -68.500; -505.000; -424.000
199.047;  -69.000; -615.000; -488.000
199.193;  -45.200; -230.000; -468.000
199.339;  -47.375; -222.000; -369.000
199.485;   34.875;  330.000;  271.000
199.631;   13.925;  227.000;  310.000
199.777;  -55.525; -466.000; -398.000
199.923;  -55.675; -610.000; -424.000
200.069;  -13.300; -141.000;  -58.000
200.215;   58.800;  128.000;  453.000
200.361;   34.100;  243.000;  477.000
200.507;  -68.325; -600.000; -373.000
200.653;  -31.475; -371.000; -194.000
200.798;  -49.500; -215.000; -125.000
200.944;   -8.650; -146.000;  -41.000
201.090;   34.025;   61.000;  222.000
201.236;  -23.575; -116.000; -158.000
201.382;  123.425;  874.000;  903.000
201.528;   -0.725;  -58.000;  -48.000
201.674;  -40.800; -386.000; -293.000
201.819;  -60.675; -540.000; -439.000
201.965;  -73.525; -699.000; -447.000
202.111;  -20.200; -273.000; -226.000
202.257;  -39.350; -250.000; -238.000
202.402;    0.975;   13.000;  -36.000
202.548;  -28.975; -169.000; -116.000
202.694;   86.400;  410.000; -183.000
202.840;  -86.025; -603.000; -531.000
202.985;  -77.825; -681.000; -639.000
203.131; -108.100; -832.000; -666.000
203.277;  -27.600; -199.000; -262.000
203.423;  -53.375; -434.000; -520.000
203.568;  -45.650; -462.000; -237.000
203.714;  -57.775; -535.000; -542.000
203.860;  -92.450; -682.000; -641.000
204.005;   17.600;  112.000;  167.000
204.151;   70.050;  561.000;  556.000
204.296;  -49.550; -354.000; -221.000
204.442;  -74.400; -600.000; -547.000
204.588;  -80.775; -592.000; -579.000
204.733;    5.675;  178.000;  168.000
204.879; -139.625;-1018.000; -822.000
205.025;   12.975;  -99.000;  126.000
205.170;    6.600;  -17.000;   94.000
205.316;   76.975;  438.000;  661.000
205.461;  -82.575; -698.000; -554.000
205.607;   83.475;  609.000;  665.000
205.752; -101.175; -626.000; -551.000
205.898;  -71.225; -501.000; -391.000
206.043;  -60.750; -578.000; -506.000
206.189;  -49.225; -243.000; -285.000
206.334;   72.750;  554.000;  606.000
206.480;   72.150;  409.000;  239.000
206.625;  -85.850; -529.000; -552.000
206.771;  -57.075; -451.000; -373.000
206.916;  -33.975; -210.000; -537.000
207.062;  -89.300; -545.000; -591.000
207.207;  -61.050; -546.000; -443.000
207.353;   44.450;  185.000;  460.000
207.498;    5.850;  196.000;   85.000
207.643;  -58.025; -501.000; -370.000
207.789; -131.975;-1069.000; -910.000
207.934;  -92.650; -665.000; -713.000
208.080;  -20.475; -154.000;   66.000
208.225;  -18.325;  -22.000;  -57.000
208.370;  -94.425; -727.000; -619.000
208.516;  -81.675; -741.000; -487.000
208.661;  -38.900; -127.000;  -69.000
208.806;  -21.700; -165.000; -171.000
208.952; -131.150;-1044.000; -731.000
209.097;   54.375;  378.000;  349.000
209.242;  -44.475; -307.000; -382.000
209.387;   61.525;  392.000;  350.000
209.533;  -63.225; -321.000; -350.000
209.678;   76.475;  472.000;  543.000
209.823;  -50.875; -408.000; -310.000
209.969; -104.300; -860.000; -757.000
210.114; -106.175; -907.000; -719.000
210.259; -122.325; -939.000; -889.000
210.404;   -5.175; -171.000;  103.000
210.549;    0.200;  108.000;    3.000
210.695;  -29.100;   -3.000;  -95.000
210.840;   30.650;   94.000;   67.000
210.985;  -71.375; -484.000; -303.000
211.130;   57.175;  268.000;  406.000
211.275;   13.500;  207.000;  199.000
211.420;  -51.475; -300.000; -289.000
211.566;  -80.725; -536.000; -489.000
211.711;    4.625;  218.000;  157.000
211.856;  -64.725; -545.000; -519.000
212.001;  -11.100;  151.000;   44.000
212.146;   28.075;  153.000;   49.000
212.291;  -28.400; -210.000; -186.000
212.436;  -35.175; -280.000;   -6.000
212.581;  -92.450; -685.000; -653.000
212.726;  -79.300; -487.000; -538.000
212.871;  -43.875; -552.000; -217.000
213.016; -158.150;-1172.000;-1029.000
213.161;   53.000;  406.000;  291.000
213.306;  -72.050; -435.000; -577.000
213.451; -104.525; -778.000; -689.000
213.596;  -54.975; -455.000; -347.000
213.741;  -68.800; -448.000; -538.000
213.886;  -81.875; -498.000; -517.000
214.031;  -14.200; -294.000; -124.000
214.176;  -57.325; -408.000; -341.000
214.321;  -32.800; -296.000; -157.000
214.466;  -17.300; -163.000;  -43.000
214.611;   -0.725;  -61.000;  -10.000
214.756; -131.200; -948.000; -858.000
214.901;  -32.400; -388.000; -226.000
215.046; -117.100; -797.000; -825.000
215.191;   14.750;  128.000;   35.000
215.336;  -27.350; -157.000;  -19.000
215.480;  -85.400; -684.000; -505.000
215.625;  -25.225; -175.000;  -19.000
215.770;  -97.150; -757.000; -662.000
215.915;  -19.050;   -5.000;  -97.000
216.060;  -18.075; -113.000;  -21.000
216.205; -116.950; -731.000; -779.000
216.349;  -82.525; -470.000; -533.000
216.494; -138.725; -939.000; -867.000
216.639; -137.450; -823.000; -888.000
216.784;  -88.125; -577.000; -525.000
216.929;   42.375;  392.000;  281.000
217.073;  -21.750; -244.000;  -31.000
217.218;    4.050;   78.000;  -47.000
217.363;  -86.725; -656.000; -618.000
217.507;  -77.700; -623.000; -588.000
217.652; -121.850; -845.000; -874.000
217.797;  -93.325; -708.000; -659.000
217.942; -122.750; -856.000; -720.000
218.086;   73.625;  608.000;  539.000
218.231;  -29.975; -174.000;  -26.000
218.376;  -41.825; -337.000; -229.000
218.520;   -8.250;  -41.000;   96.000
218.665;  -39.975; -338.000; -204.000
218.810;  -49.225; -275.000; -233.000
218.954;   12.775;  201.000;   35.000
219.099; -129.200; -713.000; -963.000
219.243;  -79.975; -589.000; -554.000
219.388;  -41.350; -264.000; -136.000
219.532;  -23.250; -116.000; -116.000
219.677;  -89.450; -564.000; -521.000
219.822;   11.625;   33.000;   89.000
219.966;   -7.950;   17.000;  -99.000
220.111;  -43.625; -328.000;  -40.000
220.255;  -92.850; -797.000; -750.000
220.400;  -21.850; -180.000; -146.000
220.544;  -72.200; -516.000; -450.000
220.689;  -58.775; -422.000; -451.000
220.833;  -20.900; -123.000;  -58.000
220.978;  -46.425; -393.000; -563.000
221.122;   18.750;  319.000;  307.000
221.267; -124.850; -906.000; -837.000
221.411;  -69.250; -478.000; -394.000
221.555;  -13.300; -104.000;  -23.000
221.700;  -54.475; -329.000; -222.000
221.844;   23.075;  255.000;  272.000
221.989;  -49.150; -328.000; -311.000
222.133;  -45.050; -289.000; -307.000
222.277;   -3.325;    5.000;   78.000
222.422;    5.125;  227.000;  113.000
222.566;  -44.625; -381.000; -214.000
222.711;  -70.375; -414.000; -479.000
222.855;  -74.525; -643.000; -586.000
222.999;  -89.950; -642.000; -717.000
223.144;  -40.300; -195.000; -194.000
223.288;   50.200;  423.000;  251.000
223.432;   18.475;  184.000;  230.000
223.576;    7.775;  152.000;  -21.000
223.721;   19.175;  364.000;  273.000
223.865;  -68.500; -472.000; -475.000
224.009;  216.050; 1673.000; 1631.000
224.153;  -91.450; -660.000; -671.000
224.298;  -69.425; -531.000; -489.000
224.442;  -30.575;  -74.000;  -33.000
224.586;    1.475; -169.000; -106.000
224.730;  -94.175; -858.000; -670.000
224.875; -112.825; -739.000; -688.000
225.019;    7.700;  102.000;  188.000
225.163;   49.300;  208.000;  341.000
225.307;    8.700;   97.000;  -91.000
225.451;   28.500;  360.000;  481.000
225.595;   19.500;  264.000;  176.000
225.739;  -26.075; -170.000;  -94.000
225.884;  -14.825;   86.000;    5.000
226.028; -117.650; -760.000; -626.000
226.172;  -54.150; -260.000; -273.000
226.316; -121.575; -941.000; -902.000
226.460;  -68.900; -645.000; -493.000
226.604;  -50.925; -406.000; -400.000
226.748; -106.450; -836.000; -733.000
226.892;  -38.825; -227.000; -181.000
227.036;  -54.750; -537.000; -447.000
227.180;  -61.325; -551.000; -375.000
227.324;  -73.250; -561.000; -580.000
227.468; -118.175; -819.000; -717.000
227.612;    3.750;  242.000;  -28.000
227.756;  -97.825; -845.000; -698.000
227.900;   35.925;  342.000;  441.000
228.044;  -76.000; -509.000; -290.000
228.188;   45.650;  448.000;  568.000
228.332;  -89.225; -546.000; -472.000
228.476;  -42.900; -223.000; -149.000
228.620;  -37.750; -210.000; -150.000
228.764;   66.625;  431.000;  349.000
228.908;  -16.625; -155.000;   30.000
229.052;  -63.300; -615.000; -528.000
229.195;  -18.900; -172.000;   13.000
229.339;  -33.550; -235.000; -305.000
229.483;  -29.500;    5.000; -162.000
229.627;  -12.175; -156.000;  139.000
229.771;  -51.725; -218.000; -294.000
229.915;   19.150;  230.000;   79.000
230.059;  -99.125; -648.000; -663.000
230.202;  -56.750; -370.000; -317.000
230.346;  -17.475; -107.000;  107.000
230.490;  -64.350; -489.000; -521.000
230.634;  -97.525; -736.000; -553.000
230.777;   50.950;  478.000;  509.000
230.921;  -61.775; -450.000; -359.000
231.065;  -65.875; -246.000; -286.000
231.209;   18.100;  261.000;  265.000
231.352;   19.600;   54.000;   40.000
231.496;   15.250;  568.000;  188.000
231.640;  -81.925; -693.000; -621.000
231.783;   62.350;  546.000;  525.000
231.927;  -52.575; -294.000; -365.000
232.071; -123.025; -962.000; -736.000
232.214; -109.475; -980.000; -764.000
232.358; -100.875; -683.000; -599.000
232.502;   -2.350;  -19.000;    7.000
232.645; -145.000;-1090.000; -927.000
232.789;  -29.000; -257.000; -218.000
232.933;  -54.975; -407.000; -224.000
233.076; -129.525;-1038.000; -897.000
233.220; -114.050; -752.000; -777.000
233.363;  -72.000; -669.000; -477.000
233.507;   52.325;  371.000;  129.000
233.650; -103.050; -764.000; -834.000
233.794;   33.675;  438.000;  461.000
233.938;  -77.500; -530.000; -362.000
234.081;  -22.825;  -93.000;   31.000
234.225;  -80.125; -631.000; -539.000
234.368; -116.100; -773.000; -723.000
234.512;  -49.700; -385.000; -299.000
234.655;  -91.775; -582.000; -555.000
234.798;  -72.700; -493.000; -466.000
234.942; -153.050; -884.000;-1002.000
235.085;  -73.100; -651.000; -443.000
235.229;  -79.150; -405.000; -410.000
235.372;  -46.900; -247.000; -191.000
235.516;  -63.200; -397.000; -321.000
235.659;   15.100;   92.000;  121.000
235.802;  -18.525;  -38.000;  -22.000
235.946;   23.400;  335.000;  215.000
236.089;   25.475;  126.000;  250.000
236.233;   37.900;  275.000;  298.000
236.376;  -49.450; -235.000; -378.000
236.519;  -59.500; -297.000; -319.000
236.663;  -25.550; -215.000; -117.000
236.806; -138.175;-1029.000; -999.000
236.949;   61.275;  543.000;  431.000
237.092;   53.450;  412.000;  391.000
237.236;  -93.975; -589.000; -502.000
237.379;   57.925;  352.000;  428.000
237.522; -130.000; -879.000; -768.000
237.666;  -20.900; -271.000;   18.000
237.809; -130.950; -851.000; -823.000
237.952;   26.925;  469.000;  271.000
238.095;  -71.350; -447.000; -442.000
238.238;   78.500;  688.000;  700.000
238.382;  -14.350;  166.000;  103.000
238.525;  -71.475; -598.000; -511.000
238.668; -139.550;-1060.000; -985.000
238.811;  -87.375; -638.000; -643.000
238.954;  -74.175; -483.000; -334.000
239.097;   76.375;  617.000;  664.000
239.241;   21.175;  394.000;  326.000
239.384;  -37.150; -254.000; -214.000
239.527;  -71.900; -424.000; -224.000
239.670; -158.150; -994.000;-1091.000
239.813; -107.750; -696.000; -658.000
239.956;   71.050;  579.000;  473.000
240.099; -103.175; -778.000; -725.000
240.242;   42.925;  428.000;  432.000
240.385;   25.950;  466.000;  450.000
240.528;  -88.425; -706.000; -473.000
240.671;    6.950;  189.000;  134.000
240.814;  -47.650; -441.000; -158.000
240.957; -101.075; -767.000; -578.000
241.100; -119.100; -779.000; -755.000
241.243; -146.500;-1234.000; -893.000
241.386;  -74.175; -508.000; -379.000
241.529;  -99.625; -735.000; -547.000
241.672;  -77.600; -566.000; -495.000
241.815; -125.050; -832.000; -808.000
241.958;  -26.800; -125.000; -182.000
242.101;  -88.650; -545.000; -390.000
242.244;  -55.600; -270.000; -325.000
242.387;  -48.300; -304.000; -246.000
242.530;   41.100;  470.000;  134.000
242.673;  -42.275; -381.000; -309.000
242.815; -129.000; -925.000; -899.000
242.958;  -70.750; -482.000; -381.000
243.101;    1.225;  132.000;  187.000
243.244;  -94.175; -564.000; -521.000
243.387;  -66.500; -313.000; -316.000
243.530; -100.500; -657.000; -674.000
243.672;  -11.325;   43.000;  -92.000
243.815;  -63.775; -355.000; -283.000
243.958;  -15.125;   98.000;  -26.000
244.101;   -1.500;   59.000;  -16.000
244.243;  -29.575;  -47.000;  101.000
244.386; -116.750; -761.000; -630.000
244.529;  -27.625; -132.000; -139.000
244.672; -152.125;-1154.000; -951.000
244.814; -103.825; -621.000; -794.000
244.957;  -64.725; -380.000; -304.000
245.100;  -80.750; -489.000; -489.000
245.242;  -71.000; -387.000; -374.000
245.385;  -20.075;  -59.000;  -39.000
245.528; -124.700; -871.000; -705.000
245.670;   80.775;  612.000;  634.000
245.813;  -94.975; -599.000; -547.000
245.956;  -42.275; -324.000; -275.000
246.098;  -56.650; -508.000; -650.000
246.241;   -6.375;  194.000;   48.000
246.383;  -26.875; -119.000;  -73.000
246.526;  -72.625; -454.000; -525.000
246.669; -118.525; -889.000; -780.000
246.811;    6.725;  172.000;   -1.000
246.954;  -66.225; -512.000; -426.000
247.096;  -29.700;  -84.000;   -6.000
247.239;  -81.275; -482.000; -445.000
247.381;  -75.825; -647.000; -488.000
247.524;   77.625;  645.000;  679.000
247.666;  -14.900;   58.000;   11.000
247.809; -115.350; -887.000; -691.000
247.951;  -20.500;  -75.000;  138.000
248.094;   19.400;  432.000;  308.000
248.236; -172.250;-1262.000;-1238.000
248.378;    2.375; -356.000;  -81.000
248.521;  -26.925; -334.000; -337.000
248.663;  -38.800; -236.000; -267.000
248.806;  -36.400; -300.000; -266.000
248.948;  -92.350; -886.000; -763.000
249.090;  -60.000; -428.000; -398.000
249.233;  -53.725; -344.000; -381.000
249.375;  -84.525; -474.000; -451.000
249.518;  -29.000;  -83.000; -133.000
249.660;  -23.200; -103.000;    3.000
249.802; -169.750;-1303.000;-1189.000
249.945;  -85.825; -612.000; -540.000
250.087; -124.050; -834.000; -768.000
250.229;  -49.200; -362.000; -480.000
250.371;  -85.150; -494.000; -439.000
250.514;  -61.625; -310.000; -244.000
250.656;   -9.725;   69.000;  102.000
250.798; -118.550; -849.000; -800.000
250.940;  -78.075; -322.000; -322.000
251.083;  -41.350; -335.000; -111.000
251.225;   49.050;  338.000;  310.000
251.367;  -52.725; -274.000; -373.000
251.509;  -57.075; -265.000; -210.000
251.651; -101.900; -731.000; -671.000
251.794;   46.650;  538.000;  632.000
251.936; -112.750; -821.000; -747.000
252.078;  -85.675; -540.000; -461.000
252.220;  -80.275; -645.000; -477.000
252.362;   70.325;  344.000;  462.000
252.504;  -80.400; -677.000; -584.000
252.646; -111.600; -875.000; -722.000
252.788;  -14.900;   14.000; -128.000
252.931;  -51.625; -257.000; -253.000
253.073;  -53.800; -376.000; -317.000
253.215;   -6.850;  141.000;  122.000
253.357;  -20.675;   82.000; -153.000
253.499;  -64.975; -374.000; -234.000
253.641; -101.900; -749.000; -594.000
253.783;  -95.825; -609.000; -527.000
253.925;  -89.475; -586.000; -591.000
254.067; -118.250; -744.000; -667.000
254.209;  -38.050; -391.000; -259.000
254.351; -143.500; -865.000; -883.000
254.493;  -76.675; -441.000; -417.000
254.635; -128.225; -936.000; -818.000
254.777;  -91.275; -752.000; -687.000
254.918;  -76.975; -512.000; -430.000
255.060;  -66.250; -551.000; -395.000
255.202;  -62.225; -473.000; -261.000
255.344;  -86.150; -658.000; -455.000
255.486;  -85.425; -471.000; -406.000
255.628; -120.050; -780.000; -781.000
255.770;  -92.725; -676.000; -536.000
255.912;  -69.850; -559.000; -468.000
256.053;  -86.925; -730.000; -508.000
256.195;  135.625; 1008.000;  903.000
256.337; -100.000; -861.000; -595.000
256.479;   54.125;  532.000;  416.000
256.621;  -53.075; -394.000; -212.000
256.762; -100.225; -789.000; -742.000
256.904;   34.450;  485.000;  487.000
257.046;  -51.475; -381.000; -271.000
257.188;  -50.000; -351.000; -264.000
257.329;  -84.800; -525.000; -464.000
257.471; -115.325; -939.000; -807.000
257.613;  -72.200; -584.000; -498.000
257.755; -149.775;-1073.000; -982.000
257.896;   17.550;  286.000;  392.000
258.038;  -84.350; -403.000; -352.000
258.180;  -53.450; -354.000; -279.000
258.321;  -92.200; -581.000; -457.000
258.463;   -8.650;  -71.000;  133.000
258.605; -105.875; -562.000; -570.000
258.746; -116.650; -886.000; -772.000
258.888; -165.225;-1026.000;-1020.000
259.029;   15.600;  121.000;   -8.000
259.171;  -92.275; -614.000; -550.000
259.313;   -8.275;  -49.000;  -47.000
259.454;  -77.900; -536.000; -414.000
259.596;  -71.275; -483.000; -390.000
259.737;  -75.700; -590.000; -474.000
259.879;   21.250;  217.000;  311.000
260.020;   62.775;  901.000;  636.000
260.162;  -37.975; -146.000; -253.000
260.303; -118.225; -768.000; -687.000
260.445;  -92.825; -609.000; -613.000
260.586;   15.750;  392.000;  157.000
260.728;  -45.525; -360.000; -248.000
260.869; -117.025; -350.000; -343.000
261.011;   78.150;  706.000;  537.000
261.152;  -56.300; -479.000; -319.000
261.293;  -79.550; -576.000; -595.000
261.435;  -49.100; -219.000; -184.000
261.576;  -54.925; -455.000; -325.000
261.718;   52.425;  420.000;  470.000
261.859; -134.875; -940.000; -949.000
262.000; -138.225; -951.000;-1016.000
262.142;  -28.800;  -52.000;  -60.000
262.283; -110.225; -808.000; -691.000
262.424; -100.975; -666.000; -625.000
262.566; -165.400;-1161.000; -983.000
262.707; -130.475; -840.000; -830.000
262.848; -130.225; -769.000; -726.000
262.990;  -48.825; -362.000; -345.000
263.131;   73.650;  650.000;  681.000
263.272;  -23.850;  -61.000;  -41.000
263.413; -102.225; -589.000; -561.000
263.555;  -68.975; -669.000; -143.000
263.696; -101.225; -550.000; -641.000
263.837;  -61.075; -449.000; -551.000
263.978;    0.250;   -5.000;  -77.000
264.119;  -48.875; -283.000; -264.000
264.261; -119.075; -847.000; -630.000
264.402;   -2.850;   33.000;   40.000
264.543;  -85.700; -509.000; -524.000
264.684;  -11.650;   61.000;  -50.000
264.825;  -88.825; -816.000; -538.000
264.966;  -20.700;  -84.000;  -67.000
265.107; -130.000; -646.000; -670.000
265.248; -125.150; -825.000; -812.000
265.390;  -16.550;  152.000;   -9.000
265.531;  -15.275; -238.000; -107.000
265.672; -101.650; -557.000; -630.000
265.813;   46.325;  563.000;  439.000
265.954; -145.750; -959.000; -940.000
266.095;  -26.750; -372.000; -322.000
266.236; -109.725; -686.000; -548.000
266.377;  -59.100; -243.000; -297.000
266.518;  -78.650; -619.000; -547.000
266.659;   17.500;  170.000;  268.000
266.800;   -5.925;   83.000;   85.000
266.941;  -92.375; -487.000; -478.000
267.082;    9.425;  354.000;   99.000
267.223;  -67.175; -344.000; -273.000
267.364; -122.150; -892.000; -686.000
267.504;  -25.075;    3.000;  135.000
267.645;   -5.575;  160.000;   67.000
267.786;  -47.850; -147.000;  -86.000
267.927;  -86.075; -473.000; -379.000
268.068;  -16.225; -186.000;  -61.000
268.209;  -49.350; -175.000; -413.000
268.350;  -65.950; -388.000; -532.000
268.490;  -87.950; -648.000; -521.000
268.631;   21.600;  127.000;  225.000
268.772; -124.100; -874.000; -647.000
268.913;  -59.200; -328.000; -476.000
269.054;  -22.325; -117.000;   12.000
269.194;  -59.175; -418.000; -402.000
269.335; -158.650;-1137.000;-1074.000
269.476;  -35.775;   33.000;  -35.000
269.617;  -66.500; -347.000; -392.000
269.757;  -81.450; -713.000; -646.000
269.898; -114.425; -856.000; -613.000
270.039;  -77.850; -415.000; -405.000
270.180; -140.675; -952.000; -816.000
270.320;  -49.175; -190.000; -250.000
270.461;  -47.425; -277.000; -249.000
270.602;  -28.825; -186.000; -156.000
270.742; -126.950; -868.000; -943.000
270.883;  -69.875; -442.000; -390.000
271.023;  -66.000; -358.000; -357.000
271.164;  -88.875; -607.000; -528.000
271.305; -111.950; -666.000; -654.000
271.445; -106.950; -722.000; -683.000
271.586;  -66.025; -462.000; -283.000
271.726;  -61.775; -397.000; -322.000
271.867;  -62.350; -594.000; -534.000
272.008;  151.225; -473.000; -285.000
272.148;  106.925;  462.000;  468.000
272.289;   -5.950; -113.000; -181.000
272.429;    0.900;   19.000;  185.000
272.570; -100.425; -633.000; -737.000
272.710;  -94.425; -825.000; -775.000
272.851;  -30.725;  113.000; -130.000
272.991; -166.750;-1173.000;-1077.000
273.131;  -79.075; -419.000; -459.000
273.272; -106.175; -683.000; -723.000
273.412;  -11.275; -143.000;  -31.000
273.553;  -87.325; -488.000; -507.000
273.693;  120.225;  913.000;  858.000
273.834; -106.275; -894.000; -692.000
273.974;  -87.125; -664.000; -615.000
274.114; -118.675; -772.000; -560.000
274.255;   70.600;  414.000;  373.000
274.395;   -2.975; -180.000; -125.000
274.535;   31.275;  199.000;  350.000
274.676;   12.650;  225.000;   94.000
274.816;   -6.050;  110.000;   34.000
274.956;  -94.250; -624.000; -690.000
275.097;  -86.425;-1014.000; -922.000
275.237; -109.750; -913.000; -803.000
275.377; -108.525; -778.000; -689.000
275.517; -155.475; -878.000; -937.000
275.658;  -64.525; -590.000; -555.000
275.798;  -76.675; -606.000; -413.000
275.938;   -4.200;  215.000;  323.000
276.078; -121.125; -626.000; -395.000
276.218;   -6.375;   99.000;  104.000
276.359; -132.150;-1026.000;-1024.000
276.499;  -88.250; -605.000; -446.000
276.639;  -42.950; -305.000; -151.000
276.779;  -73.875; -475.000; -357.000
276.919; -115.800; -783.000; -624.000
277.059;  -33.175; -261.000; -212.000
277.199;  -52.250; -357.000; -259.000
277.340;   40.850;  287.000;  175.000
277.480; -122.250; -840.000; -693.000
277.620;   -6.725;  192.000;   16.000
277.760; -207.600;-1533.000;-1294.000
277.900;    1.600;  113.000;   33.000
278.040;   -2.775;  137.000;  159.000
278.180;   40.950;  270.000;  170.000
278.320;   -7.550;   21.000;   56.000
278.460;  -86.150; -443.000; -469.000
278.600;  -86.050; -708.000; -598.000
278.740;   42.500;  448.000;  224.000
278.880;  -80.450; -768.000; -791.000
279.020;  -23.100; -194.000; -144.000
279.160;  -88.850; -672.000; -595.000
279.300; -130.475; -926.000; -873.000
279.440;  -94.300; -709.000; -622.000
279.579;  -47.400;-1014.000; -929.000
279.719;  -68.825; -410.000; -394.000
279.859;   52.250;   -4.000;   41.000
279.999;   31.600; -208.000;  101.000
280.139;  -38.400; -435.000; -387.000
280.279;  -85.725; -708.000; -745.000
280.419;  -23.825; -229.000; -147.000
280.559;  -30.225; -259.000; -180.000
280.698;  -95.800; -790.000; -639.000
280.838; -103.150; -778.000; -800.000
280.978; -117.425; -846.000; -790.000
281.118; -125.700; -811.000; -704.000
281.257;   -6.725;   24.000;    6.000
281.397; -132.000;-1094.000; -960.000
281.537; -106.300; -599.000; -712.000
281.677;  -29.600; -150.000; -101.000
281.816; -106.325; -700.000; -630.000
281.956;  -54.250; -193.000; -257.000
282.096;  -78.775; -539.000; -396.000
282.235; -116.700; -672.000; -638.000
282.375;  -42.650; -243.000;  -98.000
282.515; -115.150; -715.000; -707.000
282.654;    6.625;   29.000;  106.000
282.794;    8.200;  388.000;  244.000
282.934;  -66.175; -530.000; -491.000
283.073; -142.100;-1030.000; -857.000
283.213;  -61.000; -460.000; -467.000
283.353;  -56.725; -408.000; -349.000
283.492;  -44.650; -264.000; -296.000
283.632;  -52.775; -254.000; -168.000
283.771; -104.950; -859.000; -730.000
283.911;  -64.425; -369.000; -260.000
284.050; -110.525; -794.000; -748.000
284.190; -157.200;-1229.000;-1096.000
284.329; -146.150;-1055.000; -964.000
284.469;  -90.325; -516.000; -591.000
284.608;  -77.375; -559.000; -598.000
284.748;  -70.775; -614.000; -570.000
284.887;  -24.300;  -87.000;  -20.000
285.027; -133.500; -844.000; -892.000
285.166;  -55.000; -192.000; -249.000
285.306;  -18.225; -116.000;  -33.000
285.445;  -50.525; -229.000; -343.000
285.584;  -92.275; -630.000; -494.000
285.724;  -57.000; -282.000; -322.000
285.863; -127.500; -857.000; -507.000
286.002;  -73.150; -366.000; -276.000
286.142; -106.175; -715.000; -622.000
286.281;  -70.325; -525.000; -493.000
286.420;  -81.200; -554.000; -417.000
286.560;   77.325;  653.000;  623.000
286.699; -159.075; -958.000; -912.000
286.838; -103.500; -590.000; -591.000
286.978;  -90.425; -533.000; -537.000
287.117; -141.475;-1085.000; -950.000
287.256;  -43.100; -228.000; -211.000
287.395;  -65.050; -197.000; -378.000
287.535;  -62.750; -370.000; -298.000
287.674;  -85.900; -509.000; -484.000
287.813;   61.925;  661.000;  533.000
287.952; -130.550;-1010.000; -871.000
288.091; -144.175;-1049.000; -915.000
288.231;   -4.150;   13.000;   15.000
288.370; -173.075;-1217.000;-1200.000
288.509; -107.000; -728.000; -645.000
288.648; -104.375; -770.000; -548.000
288.787;  -48.000; -243.000;  -87.000
288.926;  -91.075; -454.000; -475.000
289.065;  114.300;  859.000;  672.000
289.204;  -59.675; -377.000; -217.000
289.344; -100.400; -791.000; -690.000
289.483;   13.500;  416.000;  304.000
289.622;  -36.525; -291.000; -149.000
289.761;  -21.500; -309.000; -166.000
289.900; -120.375; -785.000; -626.000
290.039;  -35.300;  -12.000;  -95.000
290.178;  -60.925; -274.000; -180.000
290.317; -100.450; -618.000; -479.000
290.456;  -74.250; -463.000; -451.000
290.595; -149.825; -961.000; -833.000
290.734; -142.625; -904.000; -891.000
290.873;  -73.725; -456.000; -420.000
291.011; -125.975; -833.000; -843.000
291.150; -117.025; -770.000; -682.000
291.289;  -38.850; -343.000; -110.000
291.428;  -93.375; -599.000; -480.000
291.567;  -72.250; -370.000; -442.000
291.706;  -24.475;  109.000;  154.000
291.845; -103.200; -597.000; -505.000
291.984; -179.075;-1234.000;-1061.000
292.122;   60.500;  602.000;  582.000
292.261;   21.225;  620.000;  463.000
292.400;   -9.450; -144.000;  211.000
292.539; -121.550; -959.000; -813.000
292.678;  -50.825; -325.000; -300.000
292.816; -160.250;-1136.000; -965.000
292.955; -106.850; -844.000; -684.000
293.094;  -48.975; -173.000; -337.000
293.233;  -67.500; -556.000; -400.000
293.371;  -48.875; -225.000;  -84.000
293.510; -113.225; -866.000; -780.000
293.649; -136.150; -959.000; -924.000
293.787;  -88.150;-1083.000;-1012.000
293.926;  -31.875; -113.000;  -32.000
294.065;  -50.625; -379.000; -290.000
294.203;   35.350;  298.000;  406.000
294.342;   18.200;   74.000;  156.000
294.481; 6854.600;51180.000; -836.000
294.619;  -48.700; -425.000; -582.000
294.758; -174.425;-1230.000;-1137.000
294.896;   35.250; -125.000;    5.000
295.035; -150.225;-1040.000;-1006.000
295.174; -139.250;-1082.000; -954.000
295.312;  -55.075; -323.000; -203.000
295.451;  -47.950; -307.000; -428.000
295.589;  -74.100; -389.000; -518.000
295.728;   11.125; -292.000; -165.000
295.866;   -6.650;  -36.000;  -51.000
296.005;  -67.075; -584.000; -341.000
296.143;  -84.700; -558.000; -596.000
296.282; -114.025; -957.000; -881.000
296.420;  -96.225; -657.000; -557.000
296.559;  -95.075; -892.000; -633.000
296.697;    3.600; -847.000; -665.000
296.835;   12.300;-1141.000;-1002.000
296.974;   32.300;  -23.000;   39.000
297.112;  -15.700; -443.000; -504.000
297.251;  -89.750; -815.000; -755.000
297.389;   47.900; -576.000; -438.000
297.527;   12.725; -145.000;  -83.000
297.666;  -70.475; -486.000; -438.000
297.804;  -67.475; -404.000; -264.000
297.942;  -14.075; -136.000; -161.000
298.081;  -18.025; -183.000;   63.000
298.219;   34.400;  -17.000;  -19.000
298.357;   43.275; -144.000;  -71.000
298.495;   -1.050; -810.000; -812.000
298.634;   47.750;  245.000;  219.000
298.772;   15.125; -220.000; -338.000
298.910;  -49.200; -309.000; -182.000
299.048;  -23.550; -130.000; -153.000
299.187;  -39.725; -350.000; -250.000
299.325;    8.450;   52.000;  122.000
299.463;   10.800; -389.000; -299.000
299.601;   66.800; -327.000; -271.000
299.739; -116.075; -908.000; -883.000
299.877;  -99.050; -791.000; -703.000
300.016;  -67.475;-1095.000; -935.000
300.154;  115.425;  -19.000; -161.000
300.292;   30.200; -428.000; -348.000
300.430;   13.675; -408.000; -291.000
300.568; -119.775; -940.000; -874.000
300.706;  -78.400; -366.000; -469.000
300.844;  -96.825;-1108.000; -979.000
300.982;   93.775;  246.000;  282.000
301.120; -125.550; -965.000; -866.000
301.258;  -86.450; -812.000; -705.000
301.396;    9.200;  104.000;  -41.000
301.534;   38.800; -218.000; -293.000
301.672;  -38.400; -664.000; -521.000
301.810;   -3.925; -613.000; -545.000
301.948;   87.750;   53.000;  149.000
302.086;  538.775; -250.000;  -32.000
302.224;  792.400; -610.000; -585.000
302.362;    8.775; -558.000; -622.000
302.500;  -53.000; -923.000; -893.000
302.638;   86.600;  128.000;  245.000
302.776;  -25.725; -352.000; -408.000
302.913;   40.475;  447.000;  236.000
303.051;  -17.375;  -86.000;  -23.000
303.189;   16.625;   90.000;  118.000
303.327;  -46.950; -341.000; -256.000
303.465;  -94.475; -832.000; -588.000
303.603; -114.300; -805.000; -604.000
303.740;   58.325;  417.000;  241.000
303.878;  -13.850; -800.000; -759.000
304.016; -103.225; -915.000; -790.000
304.154; -137.400;-1123.000;-1152.000
304.291;  -55.000; -505.000; -554.000
304.429;   -3.375;  102.000;   74.000
304.567; -130.375; -908.000; -893.000
304.705;  -54.650; -408.000; -515.000
304.842;   57.900; -616.000; -540.000
304.980;   37.650;  215.000;   35.000
305.118;   17.600; -367.000; -365.000
305.255;  -97.675; -945.000; -927.000
305.393;   33.150;  178.000;  239.000
305.531; -134.825;-1173.000; -956.000
305.668;  -81.825; -663.000; -582.000
305.806;   60.700; -358.000; -439.000
305.943;   79.900; -629.000; -637.000
306.081;   26.975; -378.000; -267.000
306.219; -111.675; -863.000; -748.000
306.356;   -0.875;  158.000;   27.000
306.494;   99.925;  981.000;  761.000
306.631;  -28.375;  -11.000;  -55.000
306.769;  -11.200; -613.000; -485.000
306.906;  -24.625; -284.000; -258.000
307.044;  -84.400; -473.000; -488.000
307.181;  -87.275; -410.000; -332.000
307.319;   -4.325;  112.000;   87.000
307.456; -181.300;-1191.000;-1153.000
307.594; -118.350; -980.000; -727.000
307.731;  -13.100; -371.000; -164.000
307.868;  -25.750;  -15.000;   20.000
308.006; -136.425; -961.000; -847.000
308.143;  -71.275; -618.000; -330.000
308.281;  121.525;  -37.000; -254.000
308.418;  -46.825; -748.000; -640.000
308.555;  -69.675; -400.000; -250.000
308.693;  -73.925; -577.000; -573.000
308.830; -114.750; -712.000; -657.000
308.967;  -30.250; -215.000;  -95.000
309.105;  -47.450; -507.000; -396.000
309.242;   -4.450; -468.000; -367.000
309.379;  222.375; -577.000; -655.000
309.517;  -96.825; -936.000; -948.000
309.654; -127.400; -910.000; -734.000
309.791;  -96.850; -662.000; -580.000
309.928; -135.350; -977.000; -914.000
310.065;  158.200;  819.000;  697.000
310.203;  -42.175; -825.000; -850.000
310.340;  -56.175; -465.000; -321.000
310.477;  -88.500; -412.000; -516.000
310.614;  -71.300; -383.000; -473.000
310.751;  -91.275; -427.000; -518.000
310.889;  -39.125;    1.000;   11.000
311.026; -156.325;-1161.000; -939.000
311.163;  -68.600; -386.000; -380.000
311.300;  -88.025; -512.000; -479.000
311.437;  -85.225; -658.000; -619.000
311.574; -171.550;-1226.000; -985.000
311.711;  -69.975; -595.000; -433.000
311.848;  -44.525; -380.000; -388.000
311.985;   -4.950;  270.000;   93.000
312.122; -127.025; -932.000; -762.000
312.259; -132.625; -941.000; -994.000
312.396;  -95.575; -508.000; -551.000
312.533; -113.400; -812.000; -790.000
312.670; -149.200;-1070.000; -898.000
312.807;  -59.950; -352.000; -367.000
312.944;  -72.825; -513.000; -611.000
313.081;  -63.575; -150.000; -415.000
313.218; -124.775;-1111.000; -867.000
313.355;  -32.550; -531.000; -449.000
313.492;  -22.400; -455.000; -292.000
313.629;  109.400;  815.000;  735.000
313.766; -166.250;-1176.000;-1008.000
313.902;  -32.950; -186.000;   21.000
314.039;  -64.075; -372.000; -289.000
314.176;   27.050;  286.000;  192.000
314.313;  -87.850; -569.000; -473.000
314.450;  -94.225; -788.000; -684.000
314.587;  -60.800; -468.000; -480.000
314.723;   -7.875;  -78.000;  130.000
314.860;   15.950;  318.000;  332.000
314.997;   19.875;  223.000;  142.000
315.134;  -40.900; -385.000; -368.000
315.270;  -47.575; -480.000; -496.000
315.407; -132.125;-1094.000; -967.000
315.544;  -59.350; -657.000; -538.000
315.681;  -79.525; -681.000; -565.000
315.817;   17.400; -133.000; -176.000
315.954;  -19.225; -613.000; -392.000
316.091; -144.000;-1045.000;-1023.000
316.227;  -30.075;  -71.000; -179.000
316.364;  -10.300;   23.000;    6.000
316.500;  -50.625; -113.000; -300.000
316.637;  -58.900; -181.000; -302.000
316.774; -102.250; -625.000; -358.000
316.910; -106.925; -598.000; -629.000
317.047;  -89.175; -487.000; -351.000
317.183;  -72.375; -435.000; -566.000
317.320;  -13.400; -367.000; -321.000
317.456;  -84.125; -733.000; -805.000
317.593; -115.350; -598.000; -641.000
317.729;   -2.600;  168.000;  -67.000
317.866; -204.225;-1434.000;-1285.000
318.002; -107.900; -708.000; -948.000
318.139; -122.775; -883.000; -867.000
318.275; -121.700;-1003.000; -738.000
318.412;  -79.300; -517.000; -336.000
318.548;  -53.625; -751.000; -720.000
318.685; -105.750; -985.000; -888.000
318.821;  -96.900; -762.000; -735.000
318.957;  -39.525;   34.000;  -23.000
319.094;   16.700;  297.000;  154.000
319.230;  -80.875; -756.000; -742.000
319.367;   74.750; -471.000; -520.000
319.503;   35.175; -538.000; -436.000
319.639; -107.400; -877.000; -793.000
319.775;  -87.200; -750.000; -685.000
319.912;  -60.425; -424.000; -519.000
320.048; -104.075;-1184.000;-1184.000
320.184;   63.950;   59.000;   70.000
320.321;  -75.025; -497.000; -467.000
320.457;   57.625;  475.000;  662.000
320.593;  -77.525; -375.000; -382.000
320.729;  -97.875; -732.000; -734.000
320.866;  -83.650; -577.000; -635.000
321.002; -105.825; -759.000; -809.000
321.138;  -19.075; -135.000; -211.000
321.274;   51.100; -148.000; -115.000
321.410;  -37.200; -585.000; -353.000
321.546;  -72.225;-1011.000; -911.000
321.683;   31.950;  400.000;  185.000
321.819;  -21.975;  -48.000; -117.000
321.955; -112.300; -743.000; -722.000
322.091;  -66.575; -585.000; -540.000
322.227;  -24.275; -382.000; -202.000
322.363;  -46.000; -320.000; -215.000
322.499;  -60.425; -343.000; -331.000
322.635;  124.000;  636.000;  443.000
322.771;   14.750; -139.000;   12.000
322.907;   75.475;  129.000;  327.000
323.043;  -33.875; -115.000; -206.000
323.179;  -44.025; -394.000; -363.000
323.315;  -23.050; -401.000; -371.000
323.451;   60.925; -328.000; -236.000
323.587;   42.275;  -60.000;  -77.000
323.723;  -14.725; -682.000; -601.000
323.859;  -30.175; -258.000;  -76.000
323.995;  -43.925; -467.000; -409.000
324.131; -148.350; -967.000; -892.000
324.267;  -53.375; -254.000; -276.000
324.402; -141.425; -960.000; -983.000
324.538;  -29.475; -279.000; -104.000
324.674;   -2.050;  164.000;   77.000
324.810;   91.800;  226.000;  308.000
324.946;  -16.525; -810.000; -658.000
325.082;  -89.350; -568.000; -475.000
325.217;  -23.200;  -62.000;   16.000
325.353; -107.325; -764.000; -659.000
325.489;  -98.600; -540.000; -506.000
325.625;  -82.850; -579.000; -525.000
325.760;   42.850;  517.000;  376.000
325.896;  -31.725; -515.000; -702.000
326.032;  -54.225; -403.000; -352.000
326.168;  -77.800; -462.000; -369.000
326.303;  -74.275; -352.000; -461.000
326.439;  -27.325; -336.000; -276.000
326.575;   -4.000; -190.000;  -29.000
326.710;   -7.400; -156.000;  -30.000
326.846;  -19.100;  146.000;  103.000
326.982; -120.825; -530.000; -548.000
327.117;  -91.275; -481.000; -442.000
327.253; -105.275; -745.000; -742.000
327.388; -174.600;-1137.000;-1153.000
327.524;  -73.450; -811.000; -578.000
327.659;  -27.425;  -58.000;  -22.000
327.795;  -12.550;   69.000;   45.000
327.931;  -92.500; -723.000; -499.000
328.066;  -52.875; -417.000; -276.000
328.202;  -42.850;   12.000; -129.000
328.337;   85.075;  957.000;  713.000
328.473;   35.400;  -12.000;  -74.000
328.608;  -43.725; -256.000; -267.000
328.743; -101.175; -799.000; -664.000
328.879;   13.750;  214.000;  114.000
329.014;  -55.575; -102.000; -122.000
329.150;  -85.075; -358.000; -483.000
329.285;  -82.550; -465.000; -466.000
329.421;  -67.925; -548.000; -246.000
329.556;  -32.500;  -36.000;   85.000
329.691; -111.950; -633.000; -615.000
329.827;  -86.525; -626.000; -480.000
329.962;  -53.800;  131.000; -301.000
330.097;  -95.875; -673.000; -585.000
330.233;  -51.800; -410.000; -223.000
330.368; -137.675; -839.000; -628.000
330.503;  -34.550;    3.000;   98.000
330.638;  -14.500;  -93.000; -125.000
330.774;  -75.975; -609.000; -530.000
330.909;  -53.050; -434.000; -244.000
331.044; -122.425; -714.000; -708.000
331.179; -186.600;-1217.000;-1109.000
331.315;  -12.850;   77.000;   20.000
331.450;    6.675;  157.000;  285.000
331.585;  -97.800; -805.000; -706.000
331.720; -104.150; -510.000; -460.000
331.855;  -33.625;  -35.000; -102.000
331.990;  249.000;   62.000;  138.000
332.126;  125.675; -110.000;   71.000
332.261;  -44.300; -379.000; -265.000
332.396;  -14.075; -135.000; -242.000
332.531; -110.025;-1074.000;-1031.000
332.666;   19.575; -519.000; -363.000
332.801; -113.400; -726.000; -807.000
332.936;  -41.675; -192.000; -122.000
333.071; -163.775; -870.000; -817.000
333.206;    6.850;  307.000;  379.000
333.341;    5.075;  344.000;  418.000
333.476; -100.400; -627.000; -623.000
333.611;  -47.700; -251.000; -173.000
333.746;  -56.225; -381.000; -464.000
333.881; -145.900; -973.000; -935.000
334.016; -138.950; -936.000; -917.000
334.151; -140.525; -746.000; -702.000
334.286;   17.225;  152.000;  186.000
334.421;  -31.300; -125.000; -178.000
334.556;  -95.625; -611.000; -567.000
334.690;  -95.950; -631.000; -577.000
334.825;   24.125;  381.000;   83.000
334.960;  -65.300; -285.000; -413.000
335.095;  -22.550;  135.000;  -91.000
335.230; -111.575; -722.000; -738.000
335.365; -153.250;-1084.000; -990.000
335.499; -158.150;-1108.000;-1037.000
335.634;   -2.950;    9.000;  534.000
335.769; -109.325; -755.000; -720.000
335.904;  -83.725; -603.000; -561.000
336.038;  -69.150; -735.000; -657.000
336.173; -133.325;-1206.000;-1194.000
336.308;    3.100; -116.000; -189.000
336.443;    2.650; -544.000; -634.000
336.577;  -87.050; -936.000; -787.000
336.712;   31.675;   -4.000;  -12.000
336.847;  -46.450; -724.000; -607.000
336.981;   17.125; -272.000; -208.000
337.116;  255.000;  615.000;  501.000
337.250;  103.900; -434.000; -421.000
337.385;  266.300; -297.000; -208.000
337.520;   78.775; -632.000; -603.000
337.654;  -48.775; -215.000; -126.000
337.789; -138.950; -989.000; -933.000
337.923;  -41.975; -104.000; -205.000
338.058; -101.675; -673.000; -738.000
338.192;  -58.050; -611.000; -488.000
338.327;  -29.025;  -18.000; -155.000
338.461;  -88.100; -299.000; -469.000
338.596;  -99.050; -780.000; -638.000
338.730;  -93.875; -767.000; -803.000
338.865;   76.750;  -46.000; -140.000
338.999;  -66.750; -846.000; -702.000
339.134;  -27.875; -634.000; -536.000
339.268;   -0.775; -741.000; -603.000
339.403;  337.275; -740.000; -775.000
339.537;  117.375; -894.000; -820.000
339.671; -125.450; -829.000; -813.000
339.806;  -71.700; -556.000; -512.000
339.940;    5.200; -261.000; -235.000
340.074; -113.725; -685.000; -510.000
340.209;  -56.075; -351.000; -230.000
340.343; -107.825; -517.000; -573.000
340.477;  136.650;  998.000; 1036.000
340.612;  -49.975;-1033.000; -900.000
340.746;  146.825; -199.000; -243.000
340.880;  -88.150; -924.000; -785.000
341.014;  -35.275;  -45.000; -154.000
341.149; -134.050; -756.000; -718.000
341.283; -123.675; -839.000; -754.000
341.417; -111.475;-1124.000; -938.000
341.551;   69.725; -768.000; -708.000
341.685;  -55.900; -633.000; -611.000
341.820;  -58.325; -562.000; -493.000
341.954;  -67.950; -218.000; -349.000
342.088; -161.275;-1102.000;-1019.000
342.222;   39.025;  565.000;  618.000
342.356;  -68.250; -395.000; -335.000
342.490; -111.200; -880.000; -841.000
342.624;  -67.000; -339.000; -242.000
342.758;  -22.525; -364.000; -312.000
342.892;  -88.400; -710.000; -585.000
343.026;  -55.825;  -58.000; -116.000
343.160;  -67.950; -426.000; -376.000
343.294;  -92.075; -474.000; -337.000
343.428;  -41.400; -488.000; -448.000
343.562;  -29.200; -172.000;  -23.000
343.696;  -45.575; -385.000; -314.000
343.830;  -38.550; -362.000; -356.000
343.964;  -11.925; -231.000; -168.000
344.098;  753.175;  199.000;   70.000
344.232;  627.100; -266.000; -127.000
344.366;   55.400; -567.000; -453.000
344.500;   -0.400; -665.000; -744.000
344.634;    4.525; -324.000; -164.000
344.768;  -34.175; -531.000; -341.000
344.902;   -1.825;  278.000;  256.000
345.035;  -80.250; -556.000; -496.000
345.169; -151.100; -933.000; -656.000
345.303;  -49.075; -308.000; -482.000
345.437; -110.525; -826.000; -717.000
345.571;  -81.200; -675.000; -594.000
345.704;  -74.475; -309.000; -532.000
345.838;  -34.025; -331.000; -284.000
345.972;  -51.975; -543.000; -495.000
346.106;  158.250; -179.000; -190.000
346.239;  400.325; -312.000; -243.000
346.373;  -20.550; -343.000; -302.000
346.507; -140.650; -950.000; -962.000
346.640;   99.275;  -30.000;   13.000
346.774;  -73.350; -650.000; -797.000
346.908;  -30.850; -138.000;  -11.000
347.041; -114.200; -646.000; -593.000
347.175;   -6.025;  259.000;   27.000
347.309;  -88.625; -698.000; -628.000
347.442; -121.250; -883.000; -732.000
347.576;  230.375;  670.000;  668.000
347.709;  144.050; -123.000;  -52.000
347.843; -113.225; -933.000; -825.000
347.976;   23.250;  235.000;  294.000
348.110; -190.325;-1268.000;-1186.000
348.243; -120.625; -679.000; -772.000
348.377;  -11.075;  -26.000;   60.000
348.510;   39.925;  403.000;  540.000
348.644;  -45.200;  -37.000; -159.000
348.777;  -22.775;  180.000;  191.000
348.911;  -55.525; -142.000; -112.000
349.044;  129.950;  471.000;  448.000
349.178;   91.750;-1069.000;-1006.000
349.311;   93.550;  141.000;  255.000
349.444;  -14.100; -927.000; -813.000
349.578;  -39.475; -347.000; -200.000
349.711; -126.500; -959.000; -862.000
349.845;  -22.025; -661.000; -591.000
349.978; -158.825;-1224.000;-1137.000
350.111; -104.000; -546.000; -612.000
350.244;  -94.125; -596.000; -700.000
350.378;  -25.325; -392.000; -393.000
350.511;  -75.700; -393.000; -426.000
350.644; -126.150; -808.000; -806.000
350.778;    2.175;  168.000;  104.000
350.911;  -11.350;  134.000;  140.000
351.044; -111.425; -685.000; -615.000
351.177;  -50.075; -321.000; -281.000
351.310;  -39.675;    3.000; -131.000
351.444;  -96.875; -888.000; -788.000
351.577;   81.675;  140.000;   90.000
351.710;   78.825;  593.000;  417.000
351.843;  -42.300; -165.000;  -77.000
351.976;  -18.225;  149.000;  -79.000
352.109; -115.375; -621.000; -612.000
352.242;  -37.150; -464.000; -419.000
352.376;  -75.400; -580.000; -636.000
352.509;  100.800; -437.000; -356.000
352.642;  -23.050; -654.000; -604.000
352.775;   32.050; -141.000;  -98.000
352.908; -144.900; -933.000; -904.000
353.041; -127.525; -814.000; -824.000
353.174;  -70.950; -551.000; -424.000
353.307; -106.225; -753.000; -764.000
353.440;   49.500;  541.000;  453.000
353.573; -137.000; -957.000;-1008.000
353.706;  -86.200; -384.000; -558.000
353.839;  -26.375; -264.000; -220.000
353.971;  -92.075; -657.000; -512.000
354.104; -102.525; -896.000; -835.000
354.237;  -53.925; -627.000; -662.000
354.370; -104.925; -846.000; -879.000
354.503; -194.050;-1231.000;-1308.000
354.636;  -59.175; -529.000; -348.000
354.769; -140.775; -937.000; -860.000
354.902;  -46.175; -230.000; -139.000
355.034;  -35.300; -164.000; -220.000
355.167;  -50.525; -262.000; -162.000
355.300; -103.525;-1061.000; -880.000
355.433;  973.850;  -71.000;  -14.000
355.565; 1539.700; -402.000; -384.000
355.698;  386.275; -356.000; -296.000
355.831;  -39.700; -882.000; -801.000
355.964;   49.750; -285.000; -170.000
356.096; -103.600; -856.000; -843.000
356.229;  -22.550; -523.000; -530.000
356.362;  337.325; -373.000; -266.000
356.494;  610.875; -229.000; -162.000
356.627;  406.175;  269.000;  377.000
356.760;  643.150;  120.000;   53.000
356.892;  992.225; -286.000; -601.000
357.025;  545.400;  403.000;  389.000
357.157;  491.300; -167.000; -179.000
357.290;  732.275; -856.000; -713.000
357.423;  205.475; -667.000; -556.000
357.555;   87.025; -217.000; -228.000
357.688;   97.250; -483.000; -364.000
357.820;  375.200; -870.000; -877.000
357.953; 3294.475; -563.000; -589.000
358.085;  677.175; -632.000; -612.000
358.218;  831.600;-1131.000; -932.000
358.350;  149.725;  -58.000;  312.000
358.483; -152.475;-1300.000;-1187.000
358.615;  -61.875;-1182.000;-1078.000
358.747; -106.650;-1187.000;-1058.000
358.880;  -23.475; -810.000; -744.000
359.012;  -18.825; -376.000; -202.000
359.145;  -63.925; -480.000; -511.000
359.277;   31.025; -962.000; -913.000
359.409; 2706.700;  536.000;  231.000
359.542;  678.225; -738.000; -688.000
359.674;   50.400;   46.000;   13.000
359.806;  -79.150; -565.000; -438.000
359.939;  -54.800; -617.000; -516.000
360.071;  -10.700; -583.000; -579.000
360.203;  -31.825; -411.000; -364.000
360.335;   24.325;  164.000;  -16.000
360.468;  163.250; -249.000; -307.000
360.600; 2225.425; -547.000; -454.000
360.732; 2966.600; -546.000; -423.000
360.864;  385.650;-1216.000;-1044.000
360.996;  187.400; -516.000; -554.000
361.129;    6.650; -389.000; -598.000
361.261;   11.675;  110.000; -113.000
361.393;  -42.650; -252.000; -214.000
361.525;   22.650;   94.000;  244.000
361.657;  -63.475; -821.000; -703.000
361.789;  -18.825; -139.000; -155.000
361.921;  143.400; -642.000; -593.000
362.053;  210.500;  524.000;  541.000
362.185;   11.850;  288.000;   72.000
362.318; -100.600; -709.000; -705.000
362.450;   68.400;  294.000;  444.000
362.582;   18.000; -913.000; -870.000
362.714;  -58.850; -353.000; -332.000
362.846; -104.000; -606.000; -490.000
362.978; -156.400; -941.000; -811.000
363.109;   13.500; -161.000; -260.000
363.241;  338.375; -739.000; -749.000
363.373;  420.075; -649.000; -564.000
363.505;  686.500; -186.000;  -91.000
363.637;  145.450; -787.000; -601.000
363.769; -132.150;-1067.000;-1080.000
363.901;  -79.950; -596.000; -654.000
364.033; -135.900;-1103.000;-1062.000
364.165;  -21.600; -283.000; -283.000
364.296;   51.000; -316.000; -177.000
364.428;   66.825;-1344.000;-1220.000
364.560;  -83.950; -679.000; -661.000
364.692;  -74.600; -738.000; -835.000
364.824;  178.150; -588.000; -456.000
364.955;  411.750; -402.000; -564.000
365.087; 1013.125;-1097.000; -852.000
365.219;    6.475; -686.000; -816.000
365.351;  -78.700; -526.000; -572.000
365.482;   31.075;  300.000;  240.000
365.614;  -64.800; -402.000; -314.000
365.746; -123.425; -729.000; -752.000
365.877; -123.600; -706.000; -672.000
366.009;  262.825;  -35.000;  -62.000
366.141;  -87.925;-1249.000;-1134.000
366.272; -112.000; -803.000; -719.000
366.404; -127.000;-1005.000; -874.000
366.535;  -24.050; -139.000;  -12.000
366.667; -118.825; -644.000; -649.000
366.799;   17.725;  353.000;  203.000
366.930; -134.600; -862.000; -996.000
367.062;  106.725; -639.000; -613.000
367.193;  167.000; -872.000; -842.000
367.325;  -70.350; -580.000; -684.000
367.456;   12.500; -246.000;   31.000
367.588;  140.875; -371.000; -318.000
367.719;   14.775;  -44.000;  -45.000
367.851;  -47.275; -222.000; -241.000
367.982;  -81.075; -875.000; -732.000
368.113;   60.700; -475.000; -358.000
368.245; -139.250; -960.000; -841.000
368.376;  -43.925; -254.000; -302.000
368.508;  -65.025; -188.000; -263.000
368.639; -160.350;-1166.000;-1034.000
368.770;  -56.075; -670.000; -589.000
368.902;  -90.600; -836.000; -926.000
369.033; -116.150; -906.000; -855.000
369.164;  -62.175; -720.000; -653.000
369.296; -113.425; -452.000; -601.000
369.427;  -29.000; -209.000; -144.000
369.558;  -77.625; -593.000; -377.000
369.689; -104.950; -721.000; -569.000
369.821; -141.550; -951.000; -845.000
369.952;  -31.875;   42.000; -108.000
370.083;  -65.675; -229.000; -108.000
370.214;  -95.475; -735.000; -650.000
370.345;  -18.775;   65.000;   81.000
370.477; -115.500; -810.000; -790.000
370.608;  161.275; -328.000; -264.000
370.739;  -97.300;-1233.000;-1292.000
370.870;  -71.500;-1102.000; -923.000
371.001;   45.600; -378.000; -467.000
371.132; -109.875; -754.000; -735.000
371.263;  -31.925;  -42.000; -148.000
371.394; -151.175; -841.000; -748.000
371.525;   28.725;  345.000;  225.000
371.657; -104.650; -808.000; -670.000
371.788;   37.350;  103.000;  199.000
371.919;  122.700; -384.000; -304.000
372.050; 3116.875;  -91.000; -156.000
372.181;  916.025; -188.000; -294.000
372.311;  303.575;   42.000; -127.000
372.442;   -8.350; -457.000; -451.000
372.573;  -44.100; -444.000; -340.000
372.704; -121.450;-1008.000; -980.000
372.835;   40.475; -228.000; -289.000
372.966;  -76.875; -646.000; -554.000
373.097;  -94.750; -575.000; -711.000
373.228;  -80.500; -717.000; -542.000
373.359;   69.700; -824.000; -536.000
373.490;  710.600; -881.000; -727.000
373.620;  932.100;-1001.000; -803.000
373.751; 1451.150; -332.000; -396.000
373.882;  635.650; -663.000; -733.000
374.013;   25.225; -449.000; -262.000
374.143;  -57.350; -581.000; -659.000
374.274; -113.025; -987.000; -908.000
374.405;  117.125; -388.000; -276.000
374.536;  322.575; -526.000; -387.000
374.666;  883.350; -759.000; -807.000
374.797;  150.475; -817.000; -868.000
374.928;  649.800; -710.000; -560.000
375.058;  726.925; -535.000; -500.000
375.189;   44.950;  -59.000;  -93.000
375.320; -130.625; -928.000;-1034.000
375.450;  -59.700; -625.000; -616.000
375.581;  -72.825; -526.000; -436.000
375.712;  -44.650; -574.000; -250.000
375.842;  210.175; -438.000; -415.000
375.973;  127.825; -554.000; -513.000
376.103;  -73.625; -665.000; -648.000
376.234;  -98.750; -531.000; -552.000
376.364;  -69.200; -944.000; -867.000
376.495;  252.725;  925.000;  529.000
376.625;  -57.800; -472.000; -485.000
376.756;    9.475; -709.000; -678.000
376.886; -106.325;-1178.000;-1026.000
377.017;   63.425;-1048.000;-1061.000
377.147;  363.075; -786.000; -782.000
377.278;   48.275;  174.000;  228.000
377.408; -136.475; -801.000; -815.000
377.538; -107.500; -707.000; -693.000
377.669;  -89.450; -537.000; -613.000
377.799; -113.150; -645.000; -635.000
377.929;  -99.575; -610.000; -428.000
378.060; -155.600; -781.000; -847.000
378.190;  -70.525; -726.000; -531.000
378.320;  -60.900; -401.000; -406.000
378.451;  -28.575; -131.000;  -22.000
378.581;  -20.600;  -67.000; -110.000
378.711;  115.875; 1035.000;  866.000
378.841;  -38.875; -533.000; -675.000
378.972;  -90.625; -871.000; -751.000
379.102;  -42.350; -652.000; -579.000
379.232;  -49.925; -126.000;  -73.000
379.362; -132.225;-1001.000; -885.000
379.492;  -28.150; -373.000; -424.000
379.623;   66.800;    0.000;  111.000
379.753; -117.850;-1107.000; -974.000
379.883;  148.650;   59.000;  156.000
380.013;  -38.000;-1081.000;-1017.000
380.143; -134.425;-1097.000;-1056.000
380.273; -131.900; -985.000; -861.000
380.403;  -14.750; -344.000; -257.000
380.533;  -44.975; -651.000; -664.000
380.663;   42.300;  173.000;  128.000
380.793; -129.725;-1027.000;-1074.000
380.923;  -43.075; -103.000;  -34.000
381.053; -107.075; -613.000; -623.000
381.183;  -51.150; -106.000; -248.000
381.313;   -1.725; -656.000; -470.000
381.443;    9.500; -692.000; -473.000
381.573;   98.925; -402.000; -409.000
381.703;  162.725;-1249.000;-1095.000
381.833; -159.775;-1454.000;-1336.000
381.963;   91.100; -134.000;  -87.000
382.093; 1168.850; -925.000; -909.000
382.223;  359.075; -713.000; -602.000
382.353;  -51.700; -801.000; -608.000
382.482;  266.050;-1091.000; -964.000
382.612;  641.075; -872.000; -644.000
382.742;  331.275; -695.000; -622.000
382.872;  161.900; -565.000; -551.000
383.002;   38.200;  347.000; -132.000
383.131;  -36.900; -226.000; -160.000
383.261;  -62.975; -706.000; -768.000
383.391;  259.650; -552.000; -377.000
383.521; 3380.025;  451.000;  263.000
383.650;  855.825; -947.000; -904.000
383.780;  -18.775; -783.000; -656.000
383.910;   85.775;  880.000;  802.000
384.039;  -33.400; -794.000; -656.000
384.169;  108.800;-1205.000;-1017.000
384.299;  -49.500; -650.000; -662.000
384.428; -117.575; -764.000; -680.000
384.558;  -76.925; -308.000; -275.000
384.687;  -69.725; -414.000; -334.000
384.817;  -27.150;   75.000;   -2.000
384.947;   -6.175; -234.000; -141.000
385.076;  233.525;  982.000;  912.000
385.206;   65.300;  369.000;  480.000
385.335;  -70.025; -549.000; -417.000
385.465; -114.350; -655.000; -663.000
385.594;   88.400;  -53.000;  -44.000
385.724;  309.200; -868.000; -838.000
385.853;   76.700; -296.000; -270.000
385.982; 1116.675; -743.000; -787.000
386.112; 1774.100;-1052.000; -871.000
386.241;   94.800; -307.000; -312.000
386.371;   -2.050; -174.000;  -87.000
386.500;  -26.400; -825.000; -789.000
386.629;   -5.850; -874.000; -817.000
386.759;   31.100;  -43.000;   68.000
386.888;  -24.100; -170.000; -250.000
387.017; -110.525; -648.000; -620.000
387.147; -104.950; -771.000; -798.000
387.276;  -24.975; -410.000; -397.000
387.405;  -21.350; -398.000; -342.000
387.535;  -71.675; -452.000; -361.000
387.664;  -75.850; -692.000; -620.000
387.793;   30.200; -198.000; -113.000
387.922;  378.575;  255.000;  200.000
388.052;  -17.850; -576.000; -423.000
388.181;  -37.275; -342.000; -472.000
388.310;  -42.025; -889.000; -710.000
388.439;  -75.775; -749.000; -742.000
388.568;  147.425;  365.000;  244.000
388.697;  812.325; -756.000; -653.000
388.826;  139.225; -768.000; -666.000
388.956;   16.125; -285.000; -307.000
389.085;  -60.350; -347.000; -287.000
389.214; -136.000; -842.000; -872.000
389.343;  -98.600; -645.000; -413.000
389.472;  394.775;  126.000;  149.000
389.601;  498.350;   91.000;    0.000
389.730;  -16.875; -568.000; -687.000
389.859;   37.825;  226.000;   46.000
389.988;  115.775; -423.000; -408.000
390.117;  102.475; -168.000; -146.000
390.246;  -31.400; -331.000; -320.000
390.375;   44.975; -673.000; -626.000
390.504;  -90.300; -703.000; -621.000
390.633; -117.250; -672.000; -726.000
390.761; -100.675; -732.000; -645.000
390.890;   -1.050;   -4.000; -130.000
391.019;  -43.550; -421.000; -441.000
391.148; -154.600; -826.000; -855.000
391.277;  -85.400; -576.000; -493.000
391.406; -106.250; -821.000; -805.000
391.534;    1.175;  574.000; -301.000
391.663;  -93.700; -583.000; -645.000
391.792; -112.375; -673.000; -701.000
391.921;   54.475;   -3.000;   15.000
392.050;  111.000; -287.000; -228.000
392.178;  -87.825;-1206.000;-1061.000
392.307;   74.750; -758.000; -712.000
392.436;   21.800; -427.000; -641.000
392.564;   -0.350;  166.000;   -6.000
392.693; -109.900; -860.000; -682.000
392.822;  128.000; -529.000; -534.000
392.950;   28.750; -880.000; -714.000
393.079;  228.350; -188.000; -328.000
393.208;    0.150; -488.000; -511.000
393.336;  -28.650; -170.000; -145.000
393.465;  -62.300; -317.000; -199.000
393.593;  -10.725;   62.000;   79.000
393.722; -161.050;-1121.000; -916.000
393.850;  -64.375; -188.000;  -61.000
393.979; -174.475; -926.000; -805.000
394.107;  -89.425; -517.000; -537.000
394.236;  -33.150; -570.000; -507.000
394.364;  169.300;  383.000;  206.000
394.493;  266.400; -911.000; -767.000
394.621;  -32.400; -955.000; -916.000
394.750;  707.450; -873.000; -923.000
394.878; 3037.375; -247.000; -149.000
395.007; 4149.300; -721.000; -807.000
395.135;  309.450; -790.000; -721.000
395.263;  -95.500;-1038.000;-1040.000
395.392;  -10.150;  -25.000; -107.000
395.520; -138.450; -818.000; -679.000
395.648; -122.425; -865.000; -915.000
395.777;  -40.850; -366.000; -405.000
395.905;  -71.175; -449.000; -564.000
396.033;   -2.800;  217.000;  172.000
396.162;  425.025; -399.000; -453.000
396.290;  404.200;  -17.000;   -2.000
396.418;   45.250; -555.000; -514.000
396.546; -101.500; -571.000; -466.000
396.674; -119.600; -850.000; -878.000
396.803;  -12.550;  -72.000;  -23.000
396.931;   25.650; -179.000; -199.000
397.059;  -23.175;-1026.000; -989.000
397.187; -138.000;-1026.000; -975.000
397.315; -157.725; -884.000; -649.000
397.443; -118.375; -592.000; -443.000
397.572;  -96.550; -578.000; -424.000
397.700;  -42.700; -607.000; -614.000
397.828;    2.250;  120.000;  -90.000
397.956;  -63.975; -508.000; -478.000
398.084;  -76.525; -767.000; -626.000
398.212;   17.625;  137.000;  124.000
398.340;  -19.850;  -56.000;  159.000
398.468;  -15.650; -390.000; -169.000
398.596; -153.000; -993.000; -953.000
398.724; -130.450; -762.000; -767.000
398.852; -175.325;-1024.000; -976.000
398.980;  -83.300; -560.000; -560.000
399.108;  -75.525; -982.000; -735.000
399.236;    3.975;   13.000;    8.000
399.363;  -14.825;  222.000;  196.000
399.491;  -80.875; -404.000; -398.000
399.619; -145.250; -829.000; -800.000
399.747; -130.675; -859.000; -771.000
399.875;   41.975;  220.000;  234.000
400.003;  -55.525; -359.000; -284.000
400.130; -115.775; -421.000; -341.000
400.258;  -40.175;  -83.000;   38.000
400.386;  -73.100; -352.000; -168.000
400.514;  -75.150; -526.000; -587.000
400.641; -125.625; -928.000; -802.000
400.769; -162.550; -979.000; -888.000
400.897; -139.375; -838.000; -793.000
401.025;  -34.250; -166.000; -152.000
401.152;  -19.575;  220.000;   38.000
401.280;  -92.400; -430.000; -429.000
401.408; -124.725; -712.000; -576.000
401.535; -125.275; -735.000; -758.000
401.663; -201.775;-1134.000;-1054.000
401.790;  -99.725; -514.000; -525.000
401.918;   23.775;  436.000;  405.000
402.046;  -37.525;  134.000;  122.000
402.173;  -48.675;  -18.000;    7.000
402.301;  -85.075; -519.000; -397.000
402.428;   23.425;  528.000;  383.000
402.556; -157.275;-1188.000; -913.000
402.683;  -43.250;  -20.000;   -1.000
402.811;  -31.100;  -37.000; -206.000
402.938;  -30.600;   20.000;   27.000
403.066;  119.975; -574.000; -558.000
403.193;  263.175;  299.000;  239.000
403.321;  175.300; -396.000; -574.000
403.448;  242.700;   83.000;   27.000
403.575;   99.775;  -90.000;  -46.000
403.703;  -91.925; -732.000; -557.000
403.830;  -78.800; -531.000; -496.000
403.957; -154.375;-1117.000;-1023.000
404.085;  -11.450;  -61.000; -172.000
404.212;   79.225;  -50.000;   63.000
404.339;  255.175; -566.000; -306.000
404.467; 5995.125; -612.000; -524.000
404.594; 3853.275; -287.000; -227.000
404.721;  817.450; -869.000; -764.000
404.848;   72.725; -113.000; -202.000
404.976; -117.450; -856.000; -783.000
405.103;  -34.925;  -14.000;  -82.000
405.230;  -27.700;  190.000;  226.000
405.357;    6.525;  117.000;   44.000
405.484;  268.725;  -49.000;    5.000
405.612;   39.500; -548.000; -563.000
405.739;  -72.075; -488.000; -243.000
405.866;   61.600;  669.000;  385.000
405.993;  -60.375; -398.000; -102.000
406.120; -147.025; -801.000; -887.000
406.247;  -89.775; -323.000; -342.000
406.374;  320.675;  540.000;  629.000
406.501;   35.075; -632.000; -702.000
406.628; -110.375; -621.000; -589.000
406.755; -122.200; -803.000; -620.000
406.882;  -55.500; -228.000; -277.000
407.009; -128.125; -719.000; -628.000
407.136;   -9.825; -480.000; -401.000
407.263;   44.575; -939.000; -829.000
407.390; -102.575; -692.000; -614.000
407.517; -195.075;-1139.000;-1187.000
407.644;  -73.075; -332.000; -256.000
407.771;  -85.175; -249.000; -287.000
407.898;   -2.600;  168.000;  328.000
408.025;  -91.025; -421.000; -313.000
408.151;  -33.300;   82.000;  153.000
408.278;  -78.350; -267.000; -216.000
408.405; -139.825; -931.000; -899.000
408.532;  -84.100; -549.000; -542.000
408.659; -128.600; -677.000; -648.000
408.785; -217.825;-1298.000;-1170.000
408.912;  -86.825; -412.000; -296.000
409.039; -121.875; -610.000; -686.000
409.166; -112.025; -591.000; -555.000
409.292; -132.550; -571.000; -534.000
409.419; -139.625; -665.000; -649.000
409.546; -103.575; -431.000; -192.000
409.672; -126.300; -713.000; -545.000
409.799;  -41.950;  -36.000;   34.000
409.926;  -55.850; -180.000; -179.000
410.052; -182.825;-1127.000;-1091.000
410.179;  -77.125; -368.000; -392.000
410.305; -115.400; -375.000; -493.000
410.432;  -67.725; -220.000; -333.000
410.558; -103.900; -305.000; -380.000
410.685; -113.600; -688.000; -431.000
410.812; -103.700; -409.000; -588.000
410.938; -147.650; -964.000; -808.000
411.065; -111.300; -671.000; -645.000
411.191;  -24.675; -189.000; -174.000
411.317; -142.850; -823.000; -742.000
411.444;  -86.125; -317.000; -246.000
411.570;  -90.350; -339.000; -294.000
411.697; -150.250; -758.000; -752.000
411.823; -190.225; -989.000; -999.000
411.949;  -49.625;  -56.000;   17.000
412.076; -135.525; -539.000; -519.000
412.202; -127.375; -758.000; -757.000
412.329; -144.000; -798.000; -752.000
412.455; -127.775; -821.000; -657.000
412.581;  -27.025;  -15.000;  172.000
412.707;  -83.800; -540.000; -457.000
412.834;   -1.225;  156.000;  219.000
412.960; -105.100; -785.000; -784.000
413.086; -109.400; -743.000; -701.000
413.212;  103.025;  604.000;  578.000
413.339;  -91.475; -685.000; -701.000
413.465;  -31.675; -364.000; -310.000
413.591; -129.425; -757.000; -474.000
413.717;  -65.575; -358.000; -366.000
413.843; -165.600; -839.000; -861.000
413.969;  -74.450;  -47.000; -292.000
414.096; -121.900; -679.000; -679.000
414.222;  -26.950;  -33.000;   85.000
414.348;  -51.675; -652.000; -385.000
414.474;   41.525;   38.000;  -52.000
414.600;  -26.800; -126.000; -144.000
414.726;  -30.900;  -96.000;  -55.000
414.852;  -60.875; -365.000; -342.000
414.978;   -1.075;  104.000;  -18.000
415.104;   25.325;   38.000;   80.000
415.230;   10.725; -329.000; -330.000
415.356;   10.600; -409.000; -514.000
415.482;  169.225;   13.000;  -35.000
415.608;  272.400; -247.000; -323.000
415.734;  955.750;   67.000;   38.000
415.860;20181.350; -875.000; -767.000
415.986;15011.125; -685.000; -607.000
416.111; 1290.075; -798.000; -652.000
416.237;  265.900; -424.000; -571.000
416.363; 1135.350; -765.000; -733.000
416.489; 4415.025; -324.000; -251.000
416.615;  489.175; -707.000; -742.000
416.741;  -27.450; -677.000; -784.000
416.866;  -97.825; -673.000; -736.000
416.992; -127.075; -801.000; -818.000
417.118;  -49.875;  -41.000;  -80.000
417.244;  -83.450; -798.000; -531.000
417.369; -112.800; -801.000; -612.000
417.495;  -25.000; -325.000; -254.000
417.621;  -91.550;-1015.000; -803.000
417.746;  -22.300; -579.000; -572.000
417.872;   23.175; -254.000; -144.000
417.998;   54.775; -515.000; -530.000
418.123; 1062.425;-1073.000; -845.000
418.249; 5650.675; -512.000; -601.000
418.374;  797.875; -916.000; -824.000
418.500;  111.625; -383.000; -482.000
418.626;  107.075;   70.000;  -59.000
418.751;  107.600; -549.000; -448.000
418.877;  189.725; -637.000; -643.000
419.002; 1808.475; -688.000; -560.000
419.128;13110.875; -930.000; -721.000
419.253; 3275.725; -967.000; -837.000
419.379;  430.575; -391.000; -338.000
419.504;  382.725;  325.000;  415.000
419.629;  538.750; -393.000; -212.000
419.755; 3712.825; -317.000; -254.000
419.880;22566.625;  -98.000;   67.000
420.006;11927.450; -280.000; -221.000
420.131;30670.725; -662.000; -775.000
420.256; 4470.400; -315.000; -316.000
420.382;  578.100; -665.000; -687.000
420.507;   55.825; -649.000; -778.000
420.632;   83.875; -337.000; -339.000
420.758;  170.900; -251.000; -425.000
420.883;  -98.725; -876.000; -672.000
421.008; -114.925; -775.000; -619.000
421.133;  -98.850; -509.000; -467.000
421.259;  -57.575; -325.000; -259.000
421.384; -138.500; -834.000; -693.000
421.509; -103.150;-1052.000; -862.000
421.634;  836.900; -936.000; -820.000
421.759;  358.325; -359.000; -327.000
421.885;  -83.275; -717.000; -656.000
422.010; -101.975; -673.000; -542.000
422.135; -172.450; -695.000; -727.000
422.260;    9.025;  340.000;  280.000
422.385;  -50.675;   12.000;  -98.000
422.510;  -15.125;  151.000;  -26.000
422.635;  -11.450;  -87.000;  -43.000
422.760;   73.975; -766.000; -791.000
422.885;   45.950;  -57.000;  -80.000
423.010;  -38.000; -112.000; -169.000
423.135; -105.000; -481.000; -561.000
423.260;  -41.725; -150.000; -245.000
423.385;   42.975;  476.000;  222.000
423.510;    5.775;   71.000;  -22.000
423.635;   40.900;  133.000;   45.000
423.760;   33.825;  383.000;  328.000
423.885;   40.550;  336.000;  391.000
424.010;  -15.275;  -68.000;  -13.000
424.135;  -34.175;    5.000;  -33.000
424.259; -100.375; -654.000; -457.000
424.384;  -71.475; -279.000; -272.000
424.509;  -30.850; -260.000; -186.000
424.634; -114.275; -761.000; -623.000
424.759;  -54.850; -688.000; -544.000
424.883;  -37.425; -506.000; -527.000
425.008;  141.275; -502.000; -410.000
425.133; 2041.850; -679.000; -653.000
425.258;  972.500; -517.000; -381.000
425.382;  898.175; -867.000; -774.000
425.507; 2264.375; -487.000; -543.000
425.632;  413.775; -802.000; -663.000
425.756;  464.075; -256.000; -146.000
425.881; 6982.225; -831.000; -857.000
426.006;19444.750; -604.000; -355.000
426.130; 3049.475; -696.000; -508.000
426.255;  377.150; -611.000; -491.000
426.379;  147.825; -189.000; -577.000
426.504;  367.825;  660.000;  544.000
426.629; 4049.975; -519.000; -466.000
426.753; 2864.650;   64.000;  -46.000
426.878;  313.200; -252.000; -288.000
427.002;  129.450; -651.000; -668.000
427.127; 1594.500;  -35.000; -158.000
427.251;11875.050;  372.000;  401.000
427.375; 3494.250; -191.000; -173.000
427.500; 2009.100; -616.000; -610.000
427.624;  684.975; -234.000; -400.000
427.749;   57.275; -216.000; -225.000
427.873;  -54.700; -499.000; -412.000
427.997;  -62.300; -222.000; -230.000
428.122;   52.850;  795.000;  703.000
428.246;   49.100;  433.000;  434.000
428.371; -126.675; -869.000; -773.000
428.495; -120.275; -624.000; -646.000
428.619;  -51.400; -186.000; -117.000
428.743;    3.400;   65.000;  132.000
428.868;  -19.050; -732.000; -643.000
428.992; 1176.400; -219.000; -326.000
429.116;  454.775; -329.000; -357.000
429.240;  218.375;  419.000;  426.000
429.365;  -42.325; -454.000; -574.000
429.489;  -74.100; -638.000; -647.000
429.613;  -10.425; -236.000; -177.000
429.737;   24.050; -563.000; -432.000
429.861;  257.200; -247.000; -133.000
429.985; 5672.875; -425.000; -305.000
430.109; 6442.550; -770.000; -908.000
430.234;  757.825;   76.000;  -50.000
430.358;   59.125; -250.000; -160.000
430.482;  -81.500; -672.000; -564.000
430.606;  -85.950; -655.000; -375.000
430.730;  -19.650; -437.000; -388.000
430.854;   48.325; -909.000; -835.000
430.978; -103.475; -795.000; -764.000
431.102; -102.525; -499.000; -422.000
431.226; -156.300; -874.000; -815.000
431.350;   -3.300;  345.000;  422.000
431.474; -103.300; -661.000; -373.000
431.597; -158.275;-1060.000; -848.000
431.721;  -96.925; -276.000; -267.000
431.845; -146.525; -704.000; -472.000
431.969;  -95.300; -304.000; -349.000
432.093; -107.575; -395.000; -317.000
432.217;  -45.550;   32.000;   82.000
432.341; -111.550; -523.000; -518.000
432.464;  -11.800;   96.000;   40.000
432.588;  114.000; -401.000; -329.000
432.712;   67.125;  -52.000;  -52.000
432.836;   38.700;  213.000;  263.000
432.959;  -41.650; -372.000; -311.000
433.083;   70.300;   11.000;    2.000
433.207;  374.825;  285.000;  930.000
433.330; 5238.175; -391.000; -200.000
433.454; 6606.900; -654.000; -638.000
433.578; 3763.875;  583.000;  278.000
433.701;  678.550; -623.000; -675.000
433.825;  107.125; -292.000; -299.000
433.949;  100.750;   28.000;  -72.000
434.072;  -11.225; -410.000; -323.000
434.196;  -31.800; -309.000; -117.000
434.319; 3760.675;25482.000;25124.000
434.443;  676.100; -656.000; -603.000
434.566; 2771.925;  281.000;   62.000
434.690;  476.450; -637.000; -383.000
434.813;   45.000; -251.000; -173.000
434.937;  -96.800; -569.000; -696.000
435.060;  -54.100; -423.000; -332.000
435.184;  169.800; -492.000; -217.000
435.307;   89.000;  159.000;  102.000
435.431;  -34.500;  -40.000;   24.000
435.554;  -91.800; -399.000; -240.000
435.677; -108.175; -350.000; -258.000
435.801;  -51.625;  -25.000;   49.000
435.924;  -36.200;    1.000;  -67.000
436.048; -143.225;-1019.000; -732.000
436.171;  -82.075; -240.000;  -66.000
436.294;  -43.500; -248.000; -229.000
436.417;   72.850; -963.000; -849.000
436.541;  -81.275; -814.000; -840.000
436.664;  -68.050; -242.000; -316.000
436.787;  -52.525;   13.000;  113.000
436.910; -142.250; -792.000; -422.000
437.034;  -12.875;  142.000;  143.000
437.157;   23.150;  -11.000;    0.000
437.280;  -75.225; -392.000; -292.000
437.403; -127.650; -982.000; -869.000
437.526;  379.000; -903.000; -865.000
437.649; 1613.000; -505.000; -332.000
437.772;  188.250; -692.000; -540.000
437.896;   77.675;  700.000;  544.000
438.019; -121.800; -758.000; -503.000
438.142; -112.525; -596.000; -506.000
438.265;  -59.550; -639.000; -670.000
438.388;  382.600; -520.000; -410.000
438.511;   28.025; -597.000; -394.000
438.634;  -76.875; -247.000; -125.000
438.757; -160.900; -693.000; -619.000
438.880;  -42.025;  -34.000;  -57.000
439.003; -105.250; -417.000; -437.000
439.126;  -86.150; -287.000; -167.000
439.248;  -74.950;  -98.000; -139.000
439.371;  -62.975;    9.000;  -53.000
439.494;   11.325;  510.000;  439.000
439.617;  -68.850;   65.000;  -88.000
439.740; -201.025; -968.000; -816.000
439.863; -148.700; -755.000; -595.000
439.986; -144.575; -476.000; -431.000
440.108;  -53.050; -161.000; -112.000
440.231; -170.950; -950.000; -836.000
440.354;  -60.200;  -64.000; -150.000
440.477;  -40.800; -566.000; -542.000
440.599;  -51.100; -200.000; -225.000
440.722; -127.900; -709.000; -586.000
440.845;   41.300;  751.000;  928.000
440.968; -119.825; -415.000; -311.000
441.090;  -86.025; -199.000;  -33.000
441.213; -188.400;-1021.000; -825.000
441.336;  -59.050; -159.000;   -5.000
441.458; -107.300; -549.000; -396.000
441.581; -101.275; -628.000; -629.000
441.703;  -93.275; -152.000;   13.000
441.826; -135.175; -557.000; -400.000
441.948;  -66.175;   56.000;   51.000
442.071;    0.650;  555.000;  424.000
442.193; -136.475; -531.000; -485.000
442.316;  -23.825;  152.000;   97.000
442.438;   22.400; -233.000;  -10.000
442.561;   47.150;  272.000;  262.000
442.683;  341.025; -809.000; -522.000
442.806;  840.400;   -8.000;   74.000
442.928;  -31.750; -859.000; -604.000
443.051;  -98.350; -577.000; -373.000
443.173; -106.600; -341.000; -339.000
443.295; -110.275; -263.000; -371.000
443.418;  -80.250; -321.000;  -29.000
443.540;  -44.275; -106.000;   -4.000
443.662; -141.325; -563.000; -465.000
443.785;  -44.350;  335.000;  199.000
443.907; -113.000; -362.000; -208.000
444.029; -134.500; -767.000; -494.000
444.152; -154.875; -644.000; -554.000
444.274;  -49.500;  -18.000;  -24.000
444.396; -131.775; -461.000; -221.000
444.518; -136.150; -691.000; -454.000
444.640; -117.850; -268.000; -111.000
444.763;  -40.950;  388.000;  249.000
444.885; -129.350; -432.000; -392.000
445.007;  -55.175;   35.000;   86.000
445.129; -133.350; -610.000; -515.000
445.251; -117.800; -372.000; -439.000
445.373; -152.800; -537.000; -386.000
445.495;  -16.975;  242.000;  350.000
445.617;   27.100;  853.000;  753.000
445.739;  -89.000; -215.000;  -97.000
445.861;  -52.150; -245.000; -112.000
445.984;  -72.200; -267.000; -101.000
446.105;  111.250; -418.000; -251.000
446.227;  432.000; -176.000;  -19.000
446.349;  -41.200; -358.000; -249.000
446.471; -125.575; -615.000; -448.000
446.593;  -84.975; -316.000;   19.000
446.715;  -25.100;  -67.000;   41.000
446.837;   34.175;  697.000;  832.000
446.959; -106.125; -457.000; -478.000
447.081; -142.925; -628.000; -518.000
447.203;   35.000;  862.000;  834.000
447.325; -107.650; -270.000;   42.000
447.446;  -26.900;  286.000;  530.000
447.568; -155.950; -921.000; -803.000
447.690; -108.450; -236.000; -245.000
447.812; -159.850; -798.000; -519.000
447.933;  -33.025;  155.000;  127.000
448.055;  -91.475; -306.000; -261.000
448.177;   90.850;   31.000;   79.000
448.299;   16.200; -935.000; -727.000
448.420;   18.025;  -25.000;  159.000
448.542;  -58.925;   -3.000;   33.000
448.664;  -44.625;  109.000;  322.000
448.785;  -46.250;  265.000;   83.000
448.907; -102.175; -614.000; -353.000
449.028;  -60.800; -771.000; -471.000
449.150;   48.500;  492.000;  589.000
449.272; -194.025;-1044.000; -913.000
449.393;   18.725;  612.000;  694.000
449.515; -170.600; -634.000; -581.000
449.636;  -75.875; -264.000; -155.000
449.758;   51.875;  763.000;  622.000
449.879; -109.050; -498.000; -396.000
450.001;  -91.375; -149.000;  -49.000
450.122;  -40.400;  -95.000;  162.000
450.244;  -33.700;   37.000;  364.000
450.365; -108.475; -495.000; -301.000
450.486;  -34.700;   80.000;  268.000
450.608;   -2.000;  393.000;  326.000
450.729;   84.375;  578.000;  645.000
450.850;   -3.625; -574.000; -466.000
450.972;  786.025; -552.000; -389.000
451.093; 5197.725;  190.000;  588.000
451.214; 2337.475; -516.000; -337.000
451.336;  393.300;  773.000;  579.000
451.457;   56.225;  264.000;  393.000
451.578;  -61.275; -118.000;  -74.000
451.699; -132.375; -546.000; -540.000
451.821;  -86.175; -284.000;  -50.000
451.942;   -5.150;  278.000;  285.000
452.063;   21.900;  228.000;  419.000
452.184;  573.750;  -54.000;  -49.000
452.305; 1158.025;  103.000;  170.000
452.427;  156.200; -549.000; -301.000
452.548;  -36.025;   23.000;   79.000
452.669;  -76.350; -257.000;  -89.000
452.790;  -61.150;    3.000;  -18.000
452.911;  -27.500;  195.000;  259.000
453.032;  -99.475; -289.000;  -60.000
453.153;  -59.150;  -29.000;   81.000
453.274;   31.575;  737.000;  868.000
453.395;  -69.150;  -51.000;  175.000
453.516;  100.550; 1317.000; 1388.000
453.637;  -78.075; -205.000; -150.000
453.758;  -70.425;   15.000;   69.000
453.879; -127.250; -462.000; -250.000
454.000;   66.150; 1086.000;  948.000
454.121; -131.200; -554.000; -326.000
454.242; -132.825; -599.000; -383.000
454.362;  -75.075;  -99.000;  114.000
454.483;  -57.225; -309.000; -229.000
454.604;   40.625;  512.000;  580.000
454.725; -140.800; -627.000; -555.000
454.846; -122.475; -474.000; -406.000
454.967;  -37.000;  230.000;  539.000
455.087;  -57.150;  179.000;  153.000
455.208;   -7.000;  554.000;  856.000
455.329;  -67.725;  -22.000;   82.000
455.450;   24.825;  473.000;  633.000
455.570;  -84.475; -234.000; -211.000
455.691;  -79.400;  201.000;  407.000
455.812; -119.650; -270.000;  -92.000
455.932;  -74.750;  107.000;  -97.000
456.053;  -90.525;   36.000;   24.000
456.173; -121.075; -433.000; -355.000
456.294; -138.450; -476.000; -303.000
456.415;  -72.200;  -73.000;   70.000
456.535;  -40.600;  297.000;  273.000
456.656;  -67.850;  132.000;  240.000
456.776;  -87.775;    3.000;  298.000
456.897;  -27.700;  308.000;  513.000
457.017;  -88.325; -153.000;   -3.000
457.138; -131.150; -402.000; -249.000
457.258;  -43.200;  263.000;  224.000
457.379;  -22.800;  509.000;  521.000
457.499;  -42.200;  443.000;  432.000
457.620; -129.150; -407.000; -231.000
457.740; -109.150; -132.000;  -11.000
457.860;  -72.950;   87.000;   44.000
457.981;  -55.425;  132.000;  124.000
458.101;  -88.200;  -89.000;   40.000
458.221;  -14.975;  336.000;  402.000
458.342;  -64.600;   -4.000;  -37.000
458.462;   30.125;  617.000;  352.000
458.582;  -44.100; -302.000; -294.000
458.703;   12.325;  303.000;  154.000
458.823;  -35.800;   22.000;  163.000
458.943;   10.500;  341.000;  467.000
459.063;  -24.850; 1124.000;  192.000
459.183;  -28.675;  328.000;  313.000
459.304;  -15.625;  315.000;  517.000
459.424;  -73.775; -246.000;  -89.000
459.544;  331.125;  388.000;  764.000
459.664;  857.625;  499.000;  506.000
459.784;  318.250; 1004.000; 1175.000
459.904;   34.850;  867.000;  744.000
460.024;   51.600;  867.000;  684.000
460.144;   -8.300;  449.000;  554.000
460.264;  -18.425;  515.000;  327.000
460.385; -108.250; -145.000; -119.000
460.505;   25.725;  905.000;  858.000
460.625; -110.775;  -17.000;  -68.000
460.745;  -35.825;  396.000;  541.000
460.864;  -82.625;  153.000;  469.000
460.984;   -8.150;  499.000;  573.000
461.104;  121.425; 1656.000; 1775.000
461.224;    5.500;  657.000;  650.000
461.344;  -37.075;  431.000;  360.000
461.464;  -38.350;  258.000;  513.000
461.584;  -28.650;  283.000;  466.000
461.704;  -75.300;   58.000;  108.000
461.824;  -66.475;  238.000;  259.000
461.943;  -67.100;  191.000;  130.000
462.063;  -85.525;    2.000;  324.000
462.183;   18.975;  639.000;  717.000
462.303;   85.500; 1678.000; 1230.000
462.422;   16.550;  781.000;  840.000
462.542;  -51.475;  271.000;  391.000
462.662;   27.600;  353.000;  380.000
462.782;  234.650;  833.000;  572.000
462.901;  490.800;  545.000;  717.000
463.021;  287.250; 1702.000; 1638.000
463.141;  -34.600;  337.000;  770.000
463.260;  -38.600;  614.000;  474.000
463.380;    7.300;  902.000;  884.000
463.499;  -51.400;  342.000;  332.000
463.619;  -38.150;  581.000;  559.000
463.738;  103.350; 1644.000;  903.000
463.858;    0.050;  657.000;  811.000
463.978;  -34.225;  542.000;  396.000
464.097;   43.900;  921.000; 1114.000
464.217;  111.300; 1196.000; 1143.000
464.336;  115.150; 1068.000; 1130.000
464.455;  -51.725;  328.000;  659.000
464.575;   20.975;  597.000;  602.000
464.694;  153.575; 1204.000; 1179.000
464.814;  116.775; 1190.000; 1138.000
464.933;   65.900; 1095.000; 1027.000
465.052;   77.200; 1412.000; 1054.000
465.172;   55.000;  922.000;  799.000
465.291;  116.875; 1376.000; 1320.000
465.410;   -1.400;  462.000;  735.000
465.530;   87.250; 1355.000; 1310.000
465.649;   52.900; 1209.000; 1273.000
465.768;  113.025; 1673.000; 1508.000
465.888;   45.550;  941.000; 1174.000
466.007;   68.175; 1335.000; 1440.000
466.126;  -22.300;  721.000;  641.000
466.245;   22.425; 1176.000; 1187.000
466.364;   12.000;  950.000; 1060.000
466.484;   48.725; 1024.000; 1213.000
466.603;   17.475; 1101.000; 1222.000
466.722;  107.775; 1490.000; 1769.000
466.841;   60.250; 1151.000; 1401.000
466.960;   16.750; 1069.000;  972.000
467.079;  103.375; 1971.000; 1786.000
467.198;   48.050; 1238.000; 1181.000
467.317;   77.825; 1768.000; 1162.000
467.436;   52.825; 1709.000; 1261.000
467.555;  112.025; 1796.000; 1746.000
467.674;   64.700; 1227.000; 1329.000
467.793;   45.375; 1376.000; 1374.000
467.912;   79.000; 1658.000; 1539.000
468.031;  133.800; 2038.000; 1930.000
468.150;  128.425; 1842.000; 1837.000
468.269;  181.025; 2313.000; 2090.000
468.388;  174.700; 2168.000; 2339.000
468.507;  234.750; 2884.000; 2903.000
468.626;  253.350; 2555.000; 2541.000
468.744;  120.675; 2018.000; 2174.000
468.863;  182.800; 2312.000; 2523.000
468.982;   73.575; 1503.000; 1555.000
469.101;  214.450; 2788.000; 2692.000
469.220;  136.250; 2333.000; 2176.000
469.338;  221.000; 2935.000; 3051.000
469.457;  191.125; 2719.000; 2545.000
469.576;  337.300; 3953.000; 3784.000
469.695;  230.250; 2877.000; 3066.000
469.813;  407.325; 4148.000; 4192.000
469.932;  380.725; 4255.000; 4485.000
470.051;  403.425; 4075.000; 4161.000
470.169;  851.175; 4470.000; 4338.000
470.288; 1514.900; 4700.000; 4809.000
470.406;  884.500; 5059.000; 5194.000
470.525;  605.650; 6101.000; 5787.000
470.644;  648.500; 6847.000; 6794.000
470.762;  798.175; 8397.000; 7873.000
470.881;  900.775; 8651.000; 8464.000
470.999; 1032.725; 9685.000; 9151.000
471.118; 1088.925;11174.000;10711.000

