
Integration time [ms]: 100.000
Averaging Nr. [scans]: 40
Smoothing Nr. [pixels]: 0
Data measured with spectrometer [name]: 2101012U2
Wave   ;Sample   ;Dark     ;Reference
[nm]   ;[counts] ;[counts] ;[counts] 

197.733;   60.300;  516.000;  404.000
197.879;  -85.600; -610.000; -634.000
198.025;  -42.400; -475.000; -420.000
198.171;  -63.375; -602.000; -612.000
198.317;  -39.575; -401.000; -316.000
198.463;  -63.175; -655.000; -404.000
198.609;   26.600;  181.000; -137.000
198.755;  -89.525; -644.000; -410.000
198.901;  -67.550; -505.000; -424.000
199.047;  -65.600; -615.000; -488.000
199.193;  -36.825; -230.000; -468.000
199.339;  -41.400; -222.000; -369.000
199.485;   56.000;  330.000;  271.000
199.631;   30.800;  227.000;  310.000
199.777;  -44.100; -466.000; -398.000
199.923;  -61.000; -610.000; -424.000
200.069;   -9.800; -141.000;  -58.000
200.215;   54.700;  128.000;  453.000
200.361;   48.875;  243.000;  477.000
200.507;  -62.600; -600.000; -373.000
200.653;  -18.775; -371.000; -194.000
200.798;  -32.875; -215.000; -125.000
200.944;   -2.625; -146.000;  -41.000
201.090;   37.225;   61.000;  222.000
201.236;    1.125; -116.000; -158.000
201.382;  124.075;  874.000;  903.000
201.528;   12.350;  -58.000;  -48.000
201.674;  -63.275; -386.000; -293.000
201.819;  -54.950; -540.000; -439.000
201.965;  -85.250; -699.000; -447.000
202.111;  -28.900; -273.000; -226.000
202.257;  -41.650; -250.000; -238.000
202.402;   17.175;   13.000;  -36.000
202.548;  -32.400; -169.000; -116.000
202.694;   96.725;  410.000; -183.000
202.840;  -77.325; -603.000; -531.000
202.985;  -74.875; -681.000; -639.000
203.131;  -95.850; -832.000; -666.000
203.277;  -20.225; -199.000; -262.000
203.423;  -45.050; -434.000; -520.000
203.568;  -37.700; -462.000; -237.000
203.714;  -62.750; -535.000; -542.000
203.860;  -75.450; -682.000; -641.000
204.005;   22.300;  112.000;  167.000
204.151;   81.250;  561.000;  556.000
204.296;  -42.400; -354.000; -221.000
204.442;  -63.875; -600.000; -547.000
204.588;  -81.300; -592.000; -579.000
204.733;   26.050;  178.000;  168.000
204.879; -129.500;-1018.000; -822.000
205.025;   21.850;  -99.000;  126.000
205.170;    4.600;  -17.000;   94.000
205.316;   91.000;  438.000;  661.000
205.461;  -79.250; -698.000; -554.000
205.607;   89.500;  609.000;  665.000
205.752;  -91.300; -626.000; -551.000
205.898;  -50.500; -501.000; -391.000
206.043;  -62.700; -578.000; -506.000
206.189;  -43.100; -243.000; -285.000
206.334;   79.875;  554.000;  606.000
206.480;   88.825;  409.000;  239.000
206.625;  -88.275; -529.000; -552.000
206.771;  -41.675; -451.000; -373.000
206.916;  -39.475; -210.000; -537.000
207.062;  -66.425; -545.000; -591.000
207.207;  -67.400; -546.000; -443.000
207.353;   69.675;  185.000;  460.000
207.498;   22.500;  196.000;   85.000
207.643;  -49.400; -501.000; -370.000
207.789; -139.750;-1069.000; -910.000
207.934;  -96.875; -665.000; -713.000
208.080;  -18.975; -154.000;   66.000
208.225;   -5.475;  -22.000;  -57.000
208.370;  -72.950; -727.000; -619.000
208.516;  -59.075; -741.000; -487.000
208.661;  -22.250; -127.000;  -69.000
208.806;  -31.425; -165.000; -171.000
208.952; -128.200;-1044.000; -731.000
209.097;   88.975;  378.000;  349.000
209.242;  -43.500; -307.000; -382.000
209.387;   65.225;  392.000;  350.000
209.533;  -59.825; -321.000; -350.000
209.678;   86.850;  472.000;  543.000
209.823;  -59.175; -408.000; -310.000
209.969;  -81.775; -860.000; -757.000
210.114; -101.950; -907.000; -719.000
210.259; -113.725; -939.000; -889.000
210.404;   -5.725; -171.000;  103.000
210.549;   15.475;  108.000;    3.000
210.695;  -13.775;   -3.000;  -95.000
210.840;   28.275;   94.000;   67.000
210.985;  -66.575; -484.000; -303.000
211.130;   82.500;  268.000;  406.000
211.275;   19.225;  207.000;  199.000
211.420;  -47.850; -300.000; -289.000
211.566;  -80.675; -536.000; -489.000
211.711;   32.475;  218.000;  157.000
211.856;  -69.975; -545.000; -519.000
212.001;   15.750;  151.000;   44.000
212.146;   26.725;  153.000;   49.000
212.291;  -22.300; -210.000; -186.000
212.436;  -28.025; -280.000;   -6.000
212.581;  -67.900; -685.000; -653.000
212.726;  -70.950; -487.000; -538.000
212.871;  -47.475; -552.000; -217.000
213.016; -146.450;-1172.000;-1029.000
213.161;   67.675;  406.000;  291.000
213.306;  -62.750; -435.000; -577.000
213.451;  -94.375; -778.000; -689.000
213.596;  -45.150; -455.000; -347.000
213.741;  -55.400; -448.000; -538.000
213.886;  -84.650; -498.000; -517.000
214.031;  -13.825; -294.000; -124.000
214.176;  -50.450; -408.000; -341.000
214.321;   -8.700; -296.000; -157.000
214.466;  -26.750; -163.000;  -43.000
214.611;   -0.250;  -61.000;  -10.000
214.756; -115.375; -948.000; -858.000
214.901;    4.225; -388.000; -226.000
215.046; -127.675; -797.000; -825.000
215.191;   13.900;  128.000;   35.000
215.336;  -19.200; -157.000;  -19.000
215.480;  -61.200; -684.000; -505.000
215.625;  -12.675; -175.000;  -19.000
215.770;  -75.600; -757.000; -662.000
215.915;  -10.000;   -5.000;  -97.000
216.060;   -4.375; -113.000;  -21.000
216.205; -113.300; -731.000; -779.000
216.349;  -69.550; -470.000; -533.000
216.494; -151.075; -939.000; -867.000
216.639;  -96.150; -823.000; -888.000
216.784;  -90.225; -577.000; -525.000
216.929;   44.975;  392.000;  281.000
217.073;  -12.825; -244.000;  -31.000
217.218;    1.500;   78.000;  -47.000
217.363;  -85.350; -656.000; -618.000
217.507;  -73.075; -623.000; -588.000
217.652; -120.875; -845.000; -874.000
217.797;  -76.125; -708.000; -659.000
217.942; -117.375; -856.000; -720.000
218.086;   70.350;  608.000;  539.000
218.231;  -24.825; -174.000;  -26.000
218.376;  -23.600; -337.000; -229.000
218.520;    0.775;  -41.000;   96.000
218.665;  -10.450; -338.000; -204.000
218.810;  -45.325; -275.000; -233.000
218.954;   19.825;  201.000;   35.000
219.099; -106.450; -713.000; -963.000
219.243;  -77.575; -589.000; -554.000
219.388;  -33.100; -264.000; -136.000
219.532;  -15.675; -116.000; -116.000
219.677;  -72.600; -564.000; -521.000
219.822;   10.225;   33.000;   89.000
219.966;   13.775;   17.000;  -99.000
220.111;  -17.425; -328.000;  -40.000
220.255; -104.025; -797.000; -750.000
220.400;  -27.850; -180.000; -146.000
220.544;  -75.725; -516.000; -450.000
220.689;  -59.025; -422.000; -451.000
220.833;  -13.125; -123.000;  -58.000
220.978;  -40.550; -393.000; -563.000
221.122;   23.600;  319.000;  307.000
221.267; -104.750; -906.000; -837.000
221.411;  -68.650; -478.000; -394.000
221.555;    8.550; -104.000;  -23.000
221.700;  -61.575; -329.000; -222.000
221.844;   34.900;  255.000;  272.000
221.989;  -48.825; -328.000; -311.000
222.133;  -25.025; -289.000; -307.000
222.277;   -6.900;    5.000;   78.000
222.422;    7.275;  227.000;  113.000
222.566;  -50.025; -381.000; -214.000
222.711;  -37.700; -414.000; -479.000
222.855;  -72.525; -643.000; -586.000
222.999;  -83.300; -642.000; -717.000
223.144;  -39.550; -195.000; -194.000
223.288;   67.400;  423.000;  251.000
223.432;   37.000;  184.000;  230.000
223.576;   24.250;  152.000;  -21.000
223.721;   27.200;  364.000;  273.000
223.865;  -57.925; -472.000; -475.000
224.009;  261.375; 1673.000; 1631.000
224.153;  -67.950; -660.000; -671.000
224.298;  -67.075; -531.000; -489.000
224.442;   -5.550;  -74.000;  -33.000
224.586;  -15.150; -169.000; -106.000
224.730;  -87.375; -858.000; -670.000
224.875; -105.825; -739.000; -688.000
225.019;   16.325;  102.000;  188.000
225.163;   61.125;  208.000;  341.000
225.307;   31.175;   97.000;  -91.000
225.451;   42.450;  360.000;  481.000
225.595;   41.375;  264.000;  176.000
225.739;  -22.300; -170.000;  -94.000
225.884;   18.075;   86.000;    5.000
226.028; -105.750; -760.000; -626.000
226.172;  -38.650; -260.000; -273.000
226.316; -119.800; -941.000; -902.000
226.460;  -71.950; -645.000; -493.000
226.604;  -53.400; -406.000; -400.000
226.748; -111.575; -836.000; -733.000
226.892;  -32.900; -227.000; -181.000
227.036;  -35.900; -537.000; -447.000
227.180;  -63.675; -551.000; -375.000
227.324;  -67.875; -561.000; -580.000
227.468; -112.600; -819.000; -717.000
227.612;   29.600;  242.000;  -28.000
227.756; -103.300; -845.000; -698.000
227.900;   41.675;  342.000;  441.000
228.044;  -65.225; -509.000; -290.000
228.188;   57.000;  448.000;  568.000
228.332;  -96.800; -546.000; -472.000
228.476;  -26.525; -223.000; -149.000
228.620;  -32.525; -210.000; -150.000
228.764;   64.325;  431.000;  349.000
228.908;  -25.375; -155.000;   30.000
229.052;  -57.600; -615.000; -528.000
229.195;  -27.325; -172.000;   13.000
229.339;  -17.225; -235.000; -305.000
229.483;  -22.125;    5.000; -162.000
229.627;   -4.275; -156.000;  139.000
229.771;  -51.000; -218.000; -294.000
229.915;   16.850;  230.000;   79.000
230.059;  -95.750; -648.000; -663.000
230.202;  -32.475; -370.000; -317.000
230.346;  -21.500; -107.000;  107.000
230.490;  -55.000; -489.000; -521.000
230.634; -112.450; -736.000; -553.000
230.777;   83.000;  478.000;  509.000
230.921;  -66.425; -450.000; -359.000
231.065;  -48.100; -246.000; -286.000
231.209;   26.475;  261.000;  265.000
231.352;   22.025;   54.000;   40.000
231.496;   17.325;  568.000;  188.000
231.640;  -76.375; -693.000; -621.000
231.783;   46.225;  546.000;  525.000
231.927;  -38.350; -294.000; -365.000
232.071; -134.300; -962.000; -736.000
232.214; -104.100; -980.000; -764.000
232.358; -104.700; -683.000; -599.000
232.502;    3.325;  -19.000;    7.000
232.645; -131.225;-1090.000; -927.000
232.789;  -22.575; -257.000; -218.000
232.933;  -35.675; -407.000; -224.000
233.076; -122.250;-1038.000; -897.000
233.220;  -97.275; -752.000; -777.000
233.363;  -67.000; -669.000; -477.000
233.507;   71.150;  371.000;  129.000
233.650;  -94.875; -764.000; -834.000
233.794;   42.625;  438.000;  461.000
233.938;  -56.175; -530.000; -362.000
234.081;  -26.625;  -93.000;   31.000
234.225;  -67.025; -631.000; -539.000
234.368;  -98.725; -773.000; -723.000
234.512;  -38.975; -385.000; -299.000
234.655;  -84.325; -582.000; -555.000
234.798;  -60.425; -493.000; -466.000
234.942; -132.850; -884.000;-1002.000
235.085;  -75.100; -651.000; -443.000
235.229;  -66.275; -405.000; -410.000
235.372;  -50.550; -247.000; -191.000
235.516;  -59.700; -397.000; -321.000
235.659;   11.300;   92.000;  121.000
235.802;  -20.225;  -38.000;  -22.000
235.946;   35.250;  335.000;  215.000
236.089;   32.850;  126.000;  250.000
236.233;   46.150;  275.000;  298.000
236.376;  -61.450; -235.000; -378.000
236.519;  -31.550; -297.000; -319.000
236.663;  -30.100; -215.000; -117.000
236.806; -131.375;-1029.000; -999.000
236.949;   54.025;  543.000;  431.000
237.092;   63.650;  412.000;  391.000
237.236;  -90.300; -589.000; -502.000
237.379;   69.975;  352.000;  428.000
237.522; -116.250; -879.000; -768.000
237.666;  -26.275; -271.000;   18.000
237.809; -125.300; -851.000; -823.000
237.952;   51.175;  469.000;  271.000
238.095;  -74.825; -447.000; -442.000
238.238;   78.350;  688.000;  700.000
238.382;    7.400;  166.000;  103.000
238.525;  -66.875; -598.000; -511.000
238.668; -148.450;-1060.000; -985.000
238.811;  -82.000; -638.000; -643.000
238.954;  -59.325; -483.000; -334.000
239.097;  103.075;  617.000;  664.000
239.241;   28.400;  394.000;  326.000
239.384;  -40.100; -254.000; -214.000
239.527;  -64.650; -424.000; -224.000
239.670; -152.175; -994.000;-1091.000
239.813; -112.100; -696.000; -658.000
239.956;   80.200;  579.000;  473.000
240.099; -110.325; -778.000; -725.000
240.242;   51.325;  428.000;  432.000
240.385;   44.125;  466.000;  450.000
240.528;  -66.775; -706.000; -473.000
240.671;    8.250;  189.000;  134.000
240.814;  -39.650; -441.000; -158.000
240.957; -110.975; -767.000; -578.000
241.100;  -91.300; -779.000; -755.000
241.243; -148.700;-1234.000; -893.000
241.386;  -68.625; -508.000; -379.000
241.529;  -89.825; -735.000; -547.000
241.672;  -59.325; -566.000; -495.000
241.815; -131.500; -832.000; -808.000
241.958;  -20.025; -125.000; -182.000
242.101;  -78.450; -545.000; -390.000
242.244;  -43.300; -270.000; -325.000
242.387;  -50.900; -304.000; -246.000
242.530;   57.450;  470.000;  134.000
242.673;  -55.025; -381.000; -309.000
242.815; -106.900; -925.000; -899.000
242.958;  -69.650; -482.000; -381.000
243.101;   14.875;  132.000;  187.000
243.244;  -90.150; -564.000; -521.000
243.387;  -47.450; -313.000; -316.000
243.530;  -98.125; -657.000; -674.000
243.672;   15.725;   43.000;  -92.000
243.815;  -52.975; -355.000; -283.000
243.958;    5.800;   98.000;  -26.000
244.101;   -3.100;   59.000;  -16.000
244.243;   -6.125;  -47.000;  101.000
244.386; -111.450; -761.000; -630.000
244.529;  -25.625; -132.000; -139.000
244.672; -151.925;-1154.000; -951.000
244.814;  -93.000; -621.000; -794.000
244.957;  -53.025; -380.000; -304.000
245.100;  -66.575; -489.000; -489.000
245.242;  -53.625; -387.000; -374.000
245.385;   -4.225;  -59.000;  -39.000
245.528; -127.425; -871.000; -705.000
245.670;   88.825;  612.000;  634.000
245.813;  -82.875; -599.000; -547.000
245.956;  -30.625; -324.000; -275.000
246.098;  -80.300; -508.000; -650.000
246.241;    8.575;  194.000;   48.000
246.383;  -28.050; -119.000;  -73.000
246.526;  -73.225; -454.000; -525.000
246.669; -114.400; -889.000; -780.000
246.811;   28.350;  172.000;   -1.000
246.954;  -70.275; -512.000; -426.000
247.096;  -12.300;  -84.000;   -6.000
247.239;  -62.025; -482.000; -445.000
247.381;  -60.625; -647.000; -488.000
247.524;   84.700;  645.000;  679.000
247.666;  -19.050;   58.000;   11.000
247.809; -128.550; -887.000; -691.000
247.951;   -5.775;  -75.000;  138.000
248.094;   31.450;  432.000;  308.000
248.236; -164.075;-1262.000;-1238.000
248.378;   -0.775; -356.000;  -81.000
248.521;  -24.575; -334.000; -337.000
248.663;  -48.800; -236.000; -267.000
248.806;  -13.925; -300.000; -266.000
248.948;  -93.400; -886.000; -763.000
249.090;  -37.775; -428.000; -398.000
249.233;  -70.825; -344.000; -381.000
249.375;  -65.075; -474.000; -451.000
249.518;  -28.875;  -83.000; -133.000
249.660;   -8.150; -103.000;    3.000
249.802; -170.125;-1303.000;-1189.000
249.945;  -82.125; -612.000; -540.000
250.087; -119.750; -834.000; -768.000
250.229;  -52.875; -362.000; -480.000
250.371;  -90.625; -494.000; -439.000
250.514;  -48.725; -310.000; -244.000
250.656;   -6.700;   69.000;  102.000
250.798; -101.750; -849.000; -800.000
250.940;  -60.325; -322.000; -322.000
251.083;  -28.800; -335.000; -111.000
251.225;   58.700;  338.000;  310.000
251.367;  -47.550; -274.000; -373.000
251.509;  -41.600; -265.000; -210.000
251.651;  -88.750; -731.000; -671.000
251.794;   53.125;  538.000;  632.000
251.936; -111.875; -821.000; -747.000
252.078;  -87.125; -540.000; -461.000
252.220;  -70.450; -645.000; -477.000
252.362;   77.400;  344.000;  462.000
252.504;  -63.550; -677.000; -584.000
252.646; -116.350; -875.000; -722.000
252.788;    6.750;   14.000; -128.000
252.931;  -39.050; -257.000; -253.000
253.073;  -34.725; -376.000; -317.000
253.215;  -13.000;  141.000;  122.000
253.357;  -17.425;   82.000; -153.000
253.499;  -52.850; -374.000; -234.000
253.641;  -86.850; -749.000; -594.000
253.783;  -85.725; -609.000; -527.000
253.925;  -81.550; -586.000; -591.000
254.067; -111.600; -744.000; -667.000
254.209;  -22.925; -391.000; -259.000
254.351; -138.450; -865.000; -883.000
254.493;  -70.150; -441.000; -417.000
254.635; -132.500; -936.000; -818.000
254.777;  -88.325; -752.000; -687.000
254.918;  -64.975; -512.000; -430.000
255.060;  -59.450; -551.000; -395.000
255.202;  -66.825; -473.000; -261.000
255.344;  -75.150; -658.000; -455.000
255.486;  -80.825; -471.000; -406.000
255.628;  -91.600; -780.000; -781.000
255.770;  -90.700; -676.000; -536.000
255.912;  -56.375; -559.000; -468.000
256.053;  -88.000; -730.000; -508.000
256.195;  150.950; 1008.000;  903.000
256.337; -106.650; -861.000; -595.000
256.479;   67.650;  532.000;  416.000
256.621;  -43.025; -394.000; -212.000
256.762;  -97.075; -789.000; -742.000
256.904;   52.950;  485.000;  487.000
257.046;  -32.725; -381.000; -271.000
257.188;  -48.500; -351.000; -264.000
257.329;  -80.975; -525.000; -464.000
257.471; -107.400; -939.000; -807.000
257.613;  -73.275; -584.000; -498.000
257.755; -154.425;-1073.000; -982.000
257.896;   32.450;  286.000;  392.000
258.038;  -73.175; -403.000; -352.000
258.180;  -45.025; -354.000; -279.000
258.321;  -84.650; -581.000; -457.000
258.463;   -5.250;  -71.000;  133.000
258.605; -106.225; -562.000; -570.000
258.746;  -96.600; -886.000; -772.000
258.888; -145.800;-1026.000;-1020.000
259.029;   42.425;  121.000;   -8.000
259.171;  -92.400; -614.000; -550.000
259.313;    4.825;  -49.000;  -47.000
259.454;  -77.125; -536.000; -414.000
259.596;  -58.675; -483.000; -390.000
259.737;  -80.275; -590.000; -474.000
259.879;   44.750;  217.000;  311.000
260.020;   74.400;  901.000;  636.000
260.162;  -22.725; -146.000; -253.000
260.303; -115.725; -768.000; -687.000
260.445;  -76.950; -609.000; -613.000
260.586;   23.025;  392.000;  157.000
260.728;  -33.800; -360.000; -248.000
260.869; -120.350; -350.000; -343.000
261.011;   83.175;  706.000;  537.000
261.152;  -61.200; -479.000; -319.000
261.293;  -81.575; -576.000; -595.000
261.435;  -34.200; -219.000; -184.000
261.576;  -45.450; -455.000; -325.000
261.718;   44.250;  420.000;  470.000
261.859; -125.525; -940.000; -949.000
262.000; -129.800; -951.000;-1016.000
262.142;  -27.175;  -52.000;  -60.000
262.283; -116.550; -808.000; -691.000
262.424;  -92.150; -666.000; -625.000
262.566; -151.250;-1161.000; -983.000
262.707; -110.950; -840.000; -830.000
262.848; -131.600; -769.000; -726.000
262.990;  -43.400; -362.000; -345.000
263.131;   69.275;  650.000;  681.000
263.272;   -8.975;  -61.000;  -41.000
263.413; -100.525; -589.000; -561.000
263.555;  -60.125; -669.000; -143.000
263.696;  -83.450; -550.000; -641.000
263.837;  -60.850; -449.000; -551.000
263.978;  -10.300;   -5.000;  -77.000
264.119;  -35.475; -283.000; -264.000
264.261; -119.400; -847.000; -630.000
264.402;   -9.150;   33.000;   40.000
264.543;  -85.275; -509.000; -524.000
264.684;  -10.475;   61.000;  -50.000
264.825;  -80.775; -816.000; -538.000
264.966;   -7.000;  -84.000;  -67.000
265.107; -122.300; -646.000; -670.000
265.248; -110.300; -825.000; -812.000
265.390;  -18.575;  152.000;   -9.000
265.531;   -5.925; -238.000; -107.000
265.672;  -84.975; -557.000; -630.000
265.813;   64.775;  563.000;  439.000
265.954; -150.350; -959.000; -940.000
266.095;  -13.125; -372.000; -322.000
266.236; -101.575; -686.000; -548.000
266.377;  -44.100; -243.000; -297.000
266.518;  -70.725; -619.000; -547.000
266.659;   23.875;  170.000;  268.000
266.800;    4.775;   83.000;   85.000
266.941;  -73.250; -487.000; -478.000
267.082;    3.525;  354.000;   99.000
267.223;  -55.800; -344.000; -273.000
267.364; -124.950; -892.000; -686.000
267.504;  -20.975;    3.000;  135.000
267.645;    0.550;  160.000;   67.000
267.786;  -12.200; -147.000;  -86.000
267.927;  -72.325; -473.000; -379.000
268.068;  -21.250; -186.000;  -61.000
268.209;  -59.475; -175.000; -413.000
268.350;  -63.950; -388.000; -532.000
268.490;  -84.725; -648.000; -521.000
268.631;   40.250;  127.000;  225.000
268.772; -108.525; -874.000; -647.000
268.913;  -57.325; -328.000; -476.000
269.054;  -40.075; -117.000;   12.000
269.194;  -54.025; -418.000; -402.000
269.335; -165.550;-1137.000;-1074.000
269.476;  -11.525;   33.000;  -35.000
269.617;  -51.500; -347.000; -392.000
269.757;  -90.725; -713.000; -646.000
269.898; -106.325; -856.000; -613.000
270.039;  -49.800; -415.000; -405.000
270.180; -144.750; -952.000; -816.000
270.320;  -35.300; -190.000; -250.000
270.461;  -54.400; -277.000; -249.000
270.602;   -5.675; -186.000; -156.000
270.742; -137.250; -868.000; -943.000
270.883;  -43.275; -442.000; -390.000
271.023;  -54.450; -358.000; -357.000
271.164;  -70.275; -607.000; -528.000
271.305; -112.625; -666.000; -654.000
271.445;  -99.850; -722.000; -683.000
271.586;  -76.525; -462.000; -283.000
271.726;  -64.300; -397.000; -322.000
271.867;  -64.425; -594.000; -534.000
272.008;  166.025; -473.000; -285.000
272.148;  106.925;  462.000;  468.000
272.289;   13.225; -113.000; -181.000
272.429;   20.275;   19.000;  185.000
272.570;  -89.975; -633.000; -737.000
272.710; -104.925; -825.000; -775.000
272.851;  -26.550;  113.000; -130.000
272.991; -168.100;-1173.000;-1077.000
273.131;  -64.575; -419.000; -459.000
273.272;  -95.175; -683.000; -723.000
273.412;   -7.850; -143.000;  -31.000
273.553;  -71.250; -488.000; -507.000
273.693;  136.450;  913.000;  858.000
273.834;  -92.500; -894.000; -692.000
273.974;  -70.500; -664.000; -615.000
274.114; -103.375; -772.000; -560.000
274.255;   76.200;  414.000;  373.000
274.395;    1.300; -180.000; -125.000
274.535;   55.475;  199.000;  350.000
274.676;   34.800;  225.000;   94.000
274.816;   12.750;  110.000;   34.000
274.956; -104.675; -624.000; -690.000
275.097;  -58.575;-1014.000; -922.000
275.237; -113.475; -913.000; -803.000
275.377;  -93.725; -778.000; -689.000
275.517; -145.450; -878.000; -937.000
275.658;  -56.725; -590.000; -555.000
275.798;  -68.600; -606.000; -413.000
275.938;   22.050;  215.000;  323.000
276.078; -105.175; -626.000; -395.000
276.218;   15.975;   99.000;  104.000
276.359; -156.475;-1026.000;-1024.000
276.499;  -64.975; -605.000; -446.000
276.639;  -35.975; -305.000; -151.000
276.779;  -48.150; -475.000; -357.000
276.919;  -98.150; -783.000; -624.000
277.059;  -32.475; -261.000; -212.000
277.199;  -48.775; -357.000; -259.000
277.340;   63.025;  287.000;  175.000
277.480; -111.400; -840.000; -693.000
277.620;   28.975;  192.000;   16.000
277.760; -201.400;-1533.000;-1294.000
277.900;    6.225;  113.000;   33.000
278.040;   16.700;  137.000;  159.000
278.180;   25.400;  270.000;  170.000
278.320;    3.075;   21.000;   56.000
278.460;  -63.325; -443.000; -469.000
278.600;  -98.075; -708.000; -598.000
278.740;   49.375;  448.000;  224.000
278.880;  -74.325; -768.000; -791.000
279.020;  -20.575; -194.000; -144.000
279.160;  -96.900; -672.000; -595.000
279.300; -128.900; -926.000; -873.000
279.440;  -89.025; -709.000; -622.000
279.579;  -14.875;-1014.000; -929.000
279.719;  -53.000; -410.000; -394.000
279.859;   77.050;   -4.000;   41.000
279.999;   26.275; -208.000;  101.000
280.139;  -26.175; -435.000; -387.000
280.279;  -69.425; -708.000; -745.000
280.419;  -20.400; -229.000; -147.000
280.559;  -33.675; -259.000; -180.000
280.698;  -94.025; -790.000; -639.000
280.838;  -97.675; -778.000; -800.000
280.978;  -96.150; -846.000; -790.000
281.118; -109.675; -811.000; -704.000
281.257;   22.225;   24.000;    6.000
281.397; -121.350;-1094.000; -960.000
281.537;  -90.400; -599.000; -712.000
281.677;  -15.425; -150.000; -101.000
281.816;  -95.075; -700.000; -630.000
281.956;  -42.100; -193.000; -257.000
282.096;  -64.625; -539.000; -396.000
282.235; -110.275; -672.000; -638.000
282.375;  -29.100; -243.000;  -98.000
282.515; -102.450; -715.000; -707.000
282.654;   20.900;   29.000;  106.000
282.794;   32.150;  388.000;  244.000
282.934;  -54.400; -530.000; -491.000
283.073; -128.750;-1030.000; -857.000
283.213;  -49.350; -460.000; -467.000
283.353;  -41.375; -408.000; -349.000
283.492;  -28.250; -264.000; -296.000
283.632;  -46.650; -254.000; -168.000
283.771;  -89.575; -859.000; -730.000
283.911;  -50.175; -369.000; -260.000
284.050; -103.200; -794.000; -748.000
284.190; -156.100;-1229.000;-1096.000
284.329; -132.075;-1055.000; -964.000
284.469;  -84.450; -516.000; -591.000
284.608;  -51.600; -559.000; -598.000
284.748;  -67.850; -614.000; -570.000
284.887;   -2.000;  -87.000;  -20.000
285.027; -134.100; -844.000; -892.000
285.166;  -31.875; -192.000; -249.000
285.306;   16.750; -116.000;  -33.000
285.445;  -47.475; -229.000; -343.000
285.584; -101.775; -630.000; -494.000
285.724;  -41.900; -282.000; -322.000
285.863; -118.350; -857.000; -507.000
286.002;  -50.375; -366.000; -276.000
286.142; -115.300; -715.000; -622.000
286.281;  -69.775; -525.000; -493.000
286.420;  -89.575; -554.000; -417.000
286.560;   92.875;  653.000;  623.000
286.699; -140.000; -958.000; -912.000
286.838;  -90.925; -590.000; -591.000
286.978;  -93.525; -533.000; -537.000
287.117; -133.625;-1085.000; -950.000
287.256;  -45.225; -228.000; -211.000
287.395;  -50.725; -197.000; -378.000
287.535;  -49.600; -370.000; -298.000
287.674;  -76.025; -509.000; -484.000
287.813;   41.025;  661.000;  533.000
287.952; -132.325;-1010.000; -871.000
288.091; -157.250;-1049.000; -915.000
288.231;   23.700;   13.000;   15.000
288.370; -173.050;-1217.000;-1200.000
288.509;  -89.050; -728.000; -645.000
288.648;  -93.100; -770.000; -548.000
288.787;  -36.475; -243.000;  -87.000
288.926;  -82.825; -454.000; -475.000
289.065;  134.175;  859.000;  672.000
289.204;  -59.450; -377.000; -217.000
289.344;  -97.550; -791.000; -690.000
289.483;    9.750;  416.000;  304.000
289.622;  -37.300; -291.000; -149.000
289.761;  -20.825; -309.000; -166.000
289.900; -110.375; -785.000; -626.000
290.039;  -13.100;  -12.000;  -95.000
290.178;  -36.850; -274.000; -180.000
290.317;  -93.700; -618.000; -479.000
290.456;  -58.525; -463.000; -451.000
290.595; -137.125; -961.000; -833.000
290.734; -139.675; -904.000; -891.000
290.873;  -75.450; -456.000; -420.000
291.011; -100.700; -833.000; -843.000
291.150; -102.625; -770.000; -682.000
291.289;  -23.150; -343.000; -110.000
291.428; -100.475; -599.000; -480.000
291.567;  -39.975; -370.000; -442.000
291.706;  -12.900;  109.000;  154.000
291.845;  -97.100; -597.000; -505.000
291.984; -160.275;-1234.000;-1061.000
292.122;   80.300;  602.000;  582.000
292.261;   41.125;  620.000;  463.000
292.400;    0.300; -144.000;  211.000
292.539; -124.625; -959.000; -813.000
292.678;  -29.575; -325.000; -300.000
292.816; -170.775;-1136.000; -965.000
292.955; -101.300; -844.000; -684.000
293.094;  -42.650; -173.000; -337.000
293.233;  -55.750; -556.000; -400.000
293.371;  -31.025; -225.000;  -84.000
293.510; -102.500; -866.000; -780.000
293.649; -140.975; -959.000; -924.000
293.787;  -65.850;-1083.000;-1012.000
293.926;  -14.325; -113.000;  -32.000
294.065;  -33.150; -379.000; -290.000
294.203;   46.950;  298.000;  406.000
294.342;   25.175;   74.000;  156.000
294.481; 5426.775;51180.000; -836.000
294.619;  -27.075; -425.000; -582.000
294.758; -149.900;-1230.000;-1137.000
294.896;   74.550; -125.000;    5.000
295.035; -132.400;-1040.000;-1006.000
295.174; -106.825;-1082.000; -954.000
295.312;  -48.125; -323.000; -203.000
295.451;  -14.900; -307.000; -428.000
295.589;  -62.375; -389.000; -518.000
295.728;   12.425; -292.000; -165.000
295.866;    4.925;  -36.000;  -51.000
296.005;  -64.850; -584.000; -341.000
296.143;  -66.725; -558.000; -596.000
296.282; -110.750; -957.000; -881.000
296.420;  -87.625; -657.000; -557.000
296.559;  -73.225; -892.000; -633.000
296.697;   10.625; -847.000; -665.000
296.835;   36.100;-1141.000;-1002.000
296.974;   39.575;  -23.000;   39.000
297.112;    8.500; -443.000; -504.000
297.251;  -66.700; -815.000; -755.000
297.389;   79.375; -576.000; -438.000
297.527;   31.775; -145.000;  -83.000
297.666;  -45.650; -486.000; -438.000
297.804;  -58.625; -404.000; -264.000
297.942;   -7.200; -136.000; -161.000
298.081;   -5.325; -183.000;   63.000
298.219;   58.350;  -17.000;  -19.000
298.357;   45.975; -144.000;  -71.000
298.495;    7.325; -810.000; -812.000
298.634;   58.200;  245.000;  219.000
298.772;   35.825; -220.000; -338.000
298.910;  -31.325; -309.000; -182.000
299.048;  -11.350; -130.000; -153.000
299.187;  -46.200; -350.000; -250.000
299.325;   12.500;   52.000;  122.000
299.463;   23.925; -389.000; -299.000
299.601;   99.025; -327.000; -271.000
299.739; -112.975; -908.000; -883.000
299.877;  -72.350; -791.000; -703.000
300.016;  -44.900;-1095.000; -935.000
300.154;  135.100;  -19.000; -161.000
300.292;   39.300; -428.000; -348.000
300.430;   24.075; -408.000; -291.000
300.568;  -99.175; -940.000; -874.000
300.706;  -49.725; -366.000; -469.000
300.844;  -77.850;-1108.000; -979.000
300.982;  117.900;  246.000;  282.000
301.120; -112.075; -965.000; -866.000
301.258;  -60.600; -812.000; -705.000
301.396;   28.225;  104.000;  -41.000
301.534;   56.225; -218.000; -293.000
301.672;  -32.750; -664.000; -521.000
301.810;   11.275; -613.000; -545.000
301.948;   93.450;   53.000;  149.000
302.086;  545.325; -250.000;  -32.000
302.224;  827.475; -610.000; -585.000
302.362;   27.400; -558.000; -622.000
302.500;  -33.675; -923.000; -893.000
302.638;   87.250;  128.000;  245.000
302.776;  -19.575; -352.000; -408.000
302.913;   31.250;  447.000;  236.000
303.051;   -6.325;  -86.000;  -23.000
303.189;   35.200;   90.000;  118.000
303.327;  -46.950; -341.000; -256.000
303.465;  -71.850; -832.000; -588.000
303.603;  -89.475; -805.000; -604.000
303.740;   87.050;  417.000;  241.000
303.878;   -5.675; -800.000; -759.000
304.016;  -90.050; -915.000; -790.000
304.154; -146.650;-1123.000;-1152.000
304.291;  -33.975; -505.000; -554.000
304.429;   -2.875;  102.000;   74.000
304.567; -123.775; -908.000; -893.000
304.705;  -44.350; -408.000; -515.000
304.842;   91.325; -616.000; -540.000
304.980;   40.325;  215.000;   35.000
305.118;   37.250; -367.000; -365.000
305.255;  -87.300; -945.000; -927.000
305.393;   60.875;  178.000;  239.000
305.531; -104.600;-1173.000; -956.000
305.668;  -72.150; -663.000; -582.000
305.806;   85.325; -358.000; -439.000
305.943;   82.350; -629.000; -637.000
306.081;   48.375; -378.000; -267.000
306.219;  -96.850; -863.000; -748.000
306.356;    0.050;  158.000;   27.000
306.494;  102.450;  981.000;  761.000
306.631;   -5.175;  -11.000;  -55.000
306.769;   23.425; -613.000; -485.000
306.906;  -17.675; -284.000; -258.000
307.044;  -64.150; -473.000; -488.000
307.181;  -73.150; -410.000; -332.000
307.319;    8.875;  112.000;   87.000
307.456; -173.725;-1191.000;-1153.000
307.594;  -91.800; -980.000; -727.000
307.731;  -13.325; -371.000; -164.000
307.868;    0.875;  -15.000;   20.000
308.006; -132.550; -961.000; -847.000
308.143;  -60.725; -618.000; -330.000
308.281;  124.975;  -37.000; -254.000
308.418;  -36.225; -748.000; -640.000
308.555;  -78.350; -400.000; -250.000
308.693;  -72.825; -577.000; -573.000
308.830; -118.550; -712.000; -657.000
308.967;   -5.475; -215.000;  -95.000
309.105;  -44.825; -507.000; -396.000
309.242;   31.500; -468.000; -367.000
309.379;  233.400; -577.000; -655.000
309.517;  -57.800; -936.000; -948.000
309.654; -119.125; -910.000; -734.000
309.791;  -61.400; -662.000; -580.000
309.928; -121.625; -977.000; -914.000
310.065;  175.850;  819.000;  697.000
310.203;  -17.575; -825.000; -850.000
310.340;  -25.875; -465.000; -321.000
310.477;  -90.625; -412.000; -516.000
310.614;  -63.175; -383.000; -473.000
310.751;  -73.750; -427.000; -518.000
310.889;  -12.575;    1.000;   11.000
311.026; -155.700;-1161.000; -939.000
311.163;  -52.725; -386.000; -380.000
311.300;  -76.400; -512.000; -479.000
311.437;  -80.050; -658.000; -619.000
311.574; -167.875;-1226.000; -985.000
311.711;  -37.525; -595.000; -433.000
311.848;  -41.225; -380.000; -388.000
311.985;   14.850;  270.000;   93.000
312.122; -118.450; -932.000; -762.000
312.259; -119.875; -941.000; -994.000
312.396;  -79.775; -508.000; -551.000
312.533;  -90.750; -812.000; -790.000
312.670; -133.675;-1070.000; -898.000
312.807;  -35.125; -352.000; -367.000
312.944;  -82.375; -513.000; -611.000
313.081;  -36.500; -150.000; -415.000
313.218; -112.075;-1111.000; -867.000
313.355;    1.225; -531.000; -449.000
313.492;   -0.625; -455.000; -292.000
313.629;  129.325;  815.000;  735.000
313.766; -151.775;-1176.000;-1008.000
313.902;   -2.925; -186.000;   21.000
314.039;  -62.475; -372.000; -289.000
314.176;   18.950;  286.000;  192.000
314.313;  -85.775; -569.000; -473.000
314.450;  -83.525; -788.000; -684.000
314.587;  -57.100; -468.000; -480.000
314.723;    2.950;  -78.000;  130.000
314.860;   30.575;  318.000;  332.000
314.997;   29.550;  223.000;  142.000
315.134;  -49.075; -385.000; -368.000
315.270;  -22.175; -480.000; -496.000
315.407; -124.675;-1094.000; -967.000
315.544;  -53.075; -657.000; -538.000
315.681;  -67.500; -681.000; -565.000
315.817;   19.775; -133.000; -176.000
315.954;    2.075; -613.000; -392.000
316.091; -130.000;-1045.000;-1023.000
316.227;  -37.150;  -71.000; -179.000
316.364;    9.475;   23.000;    6.000
316.500;  -40.475; -113.000; -300.000
316.637;  -39.475; -181.000; -302.000
316.774;  -86.200; -625.000; -358.000
316.910;  -95.925; -598.000; -629.000
317.047;  -67.300; -487.000; -351.000
317.183;  -56.600; -435.000; -566.000
317.320;   -9.400; -367.000; -321.000
317.456;  -66.725; -733.000; -805.000
317.593;  -93.650; -598.000; -641.000
317.729;    8.900;  168.000;  -67.000
317.866; -205.000;-1434.000;-1285.000
318.002;  -85.925; -708.000; -948.000
318.139; -113.175; -883.000; -867.000
318.275; -107.225;-1003.000; -738.000
318.412;  -83.475; -517.000; -336.000
318.548;  -38.075; -751.000; -720.000
318.685; -107.325; -985.000; -888.000
318.821; -101.375; -762.000; -735.000
318.957;  -16.600;   34.000;  -23.000
319.094;   48.925;  297.000;  154.000
319.230;  -65.925; -756.000; -742.000
319.367;  109.025; -471.000; -520.000
319.503;   28.975; -538.000; -436.000
319.639;  -78.950; -877.000; -793.000
319.775;  -76.675; -750.000; -685.000
319.912;  -54.125; -424.000; -519.000
320.048;  -94.325;-1184.000;-1184.000
320.184;   75.875;   59.000;   70.000
320.321;  -61.475; -497.000; -467.000
320.457;   60.650;  475.000;  662.000
320.593;  -66.200; -375.000; -382.000
320.729;  -99.675; -732.000; -734.000
320.866;  -80.775; -577.000; -635.000
321.002;  -72.400; -759.000; -809.000
321.138;  -15.525; -135.000; -211.000
321.274;   86.450; -148.000; -115.000
321.410;  -35.000; -585.000; -353.000
321.546;  -42.525;-1011.000; -911.000
321.683;   48.500;  400.000;  185.000
321.819;    3.675;  -48.000; -117.000
321.955; -109.775; -743.000; -722.000
322.091;  -53.925; -585.000; -540.000
322.227;  -40.200; -382.000; -202.000
322.363;  -24.700; -320.000; -215.000
322.499;  -31.750; -343.000; -331.000
322.635;  144.400;  636.000;  443.000
322.771;    9.650; -139.000;   12.000
322.907;   79.725;  129.000;  327.000
323.043;  -38.975; -115.000; -206.000
323.179;  -36.325; -394.000; -363.000
323.315;   -0.400; -401.000; -371.000
323.451;   78.300; -328.000; -236.000
323.587;   41.975;  -60.000;  -77.000
323.723;    2.475; -682.000; -601.000
323.859;  -14.525; -258.000;  -76.000
323.995;  -25.275; -467.000; -409.000
324.131; -118.900; -967.000; -892.000
324.267;  -43.150; -254.000; -276.000
324.402; -135.700; -960.000; -983.000
324.538;  -10.025; -279.000; -104.000
324.674;   17.600;  164.000;   77.000
324.810;  109.000;  226.000;  308.000
324.946;  -10.250; -810.000; -658.000
325.082;  -80.400; -568.000; -475.000
325.217;  -22.475;  -62.000;   16.000
325.353;  -98.200; -764.000; -659.000
325.489;  -95.225; -540.000; -506.000
325.625;  -66.875; -579.000; -525.000
325.760;   53.650;  517.000;  376.000
325.896;  -23.100; -515.000; -702.000
326.032;  -62.125; -403.000; -352.000
326.168;  -73.350; -462.000; -369.000
326.303;  -66.375; -352.000; -461.000
326.439;  -27.500; -336.000; -276.000
326.575;   -9.600; -190.000;  -29.000
326.710;    2.700; -156.000;  -30.000
326.846;   -7.225;  146.000;  103.000
326.982;  -89.475; -530.000; -548.000
327.117;  -74.875; -481.000; -442.000
327.253;  -78.050; -745.000; -742.000
327.388; -132.575;-1137.000;-1153.000
327.524;  -49.650; -811.000; -578.000
327.659;  -32.800;  -58.000;  -22.000
327.795;  -21.125;   69.000;   45.000
327.931;  -85.575; -723.000; -499.000
328.066;  -17.775; -417.000; -276.000
328.202;  -12.875;   12.000; -129.000
328.337;  100.775;  957.000;  713.000
328.473;   31.575;  -12.000;  -74.000
328.608;  -28.175; -256.000; -267.000
328.743;  -90.800; -799.000; -664.000
328.879;   32.450;  214.000;  114.000
329.014;  -39.250; -102.000; -122.000
329.150;  -74.625; -358.000; -483.000
329.285;  -82.025; -465.000; -466.000
329.421;  -48.650; -548.000; -246.000
329.556;  -22.850;  -36.000;   85.000
329.691; -102.100; -633.000; -615.000
329.827;  -78.625; -626.000; -480.000
329.962;  -41.250;  131.000; -301.000
330.097; -102.725; -673.000; -585.000
330.233;  -39.250; -410.000; -223.000
330.368; -132.700; -839.000; -628.000
330.503;   -9.000;    3.000;   98.000
330.638;  -18.250;  -93.000; -125.000
330.774;  -65.625; -609.000; -530.000
330.909;  -54.425; -434.000; -244.000
331.044;  -98.300; -714.000; -708.000
331.179; -171.200;-1217.000;-1109.000
331.315;    5.525;   77.000;   20.000
331.450;   12.800;  157.000;  285.000
331.585;  -71.275; -805.000; -706.000
331.720;  -74.725; -510.000; -460.000
331.855;    0.800;  -35.000; -102.000
331.990;  249.525;   62.000;  138.000
332.126;  144.500; -110.000;   71.000
332.261;  -31.675; -379.000; -265.000
332.396;    4.475; -135.000; -242.000
332.531;  -97.475;-1074.000;-1031.000
332.666;   37.000; -519.000; -363.000
332.801; -115.175; -726.000; -807.000
332.936;  -14.875; -192.000; -122.000
333.071; -148.425; -870.000; -817.000
333.206;   21.600;  307.000;  379.000
333.341;   26.650;  344.000;  418.000
333.476;  -97.350; -627.000; -623.000
333.611;  -51.700; -251.000; -173.000
333.746;  -48.350; -381.000; -464.000
333.881; -121.075; -973.000; -935.000
334.016; -125.425; -936.000; -917.000
334.151; -124.575; -746.000; -702.000
334.286;   24.625;  152.000;  186.000
334.421;  -32.150; -125.000; -178.000
334.556;  -76.700; -611.000; -567.000
334.690;  -97.550; -631.000; -577.000
334.825;   45.575;  381.000;   83.000
334.960;  -66.200; -285.000; -413.000
335.095;   -6.250;  135.000;  -91.000
335.230;  -92.725; -722.000; -738.000
335.365; -122.625;-1084.000; -990.000
335.499; -128.275;-1108.000;-1037.000
335.634;   18.400;    9.000;  534.000
335.769; -109.950; -755.000; -720.000
335.904;  -69.175; -603.000; -561.000
336.038;  -68.225; -735.000; -657.000
336.173; -106.750;-1206.000;-1194.000
336.308;    9.825; -116.000; -189.000
336.443;   12.300; -544.000; -634.000
336.577;  -68.000; -936.000; -787.000
336.712;   68.375;   -4.000;  -12.000
336.847;  -46.925; -724.000; -607.000
336.981;   52.750; -272.000; -208.000
337.116;  260.375;  615.000;  501.000
337.250;  142.475; -434.000; -421.000
337.385;  255.475; -297.000; -208.000
337.520;   88.800; -632.000; -603.000
337.654;  -35.125; -215.000; -126.000
337.789; -127.800; -989.000; -933.000
337.923;  -32.600; -104.000; -205.000
338.058;  -93.925; -673.000; -738.000
338.192;  -42.100; -611.000; -488.000
338.327;   -5.250;  -18.000; -155.000
338.461;  -75.275; -299.000; -469.000
338.596;  -83.400; -780.000; -638.000
338.730;  -95.075; -767.000; -803.000
338.865;   88.925;  -46.000; -140.000
338.999;  -66.375; -846.000; -702.000
339.134;  -24.325; -634.000; -536.000
339.268;   29.150; -741.000; -603.000
339.403;  385.600; -740.000; -775.000
339.537;  121.450; -894.000; -820.000
339.671; -110.725; -829.000; -813.000
339.806;  -48.175; -556.000; -512.000
339.940;   16.425; -261.000; -235.000
340.074; -114.900; -685.000; -510.000
340.209;  -32.325; -351.000; -230.000
340.343;  -96.275; -517.000; -573.000
340.477;  151.700;  998.000; 1036.000
340.612;  -55.050;-1033.000; -900.000
340.746;  140.700; -199.000; -243.000
340.880;  -91.400; -924.000; -785.000
341.014;  -12.775;  -45.000; -154.000
341.149; -124.500; -756.000; -718.000
341.283; -101.825; -839.000; -754.000
341.417; -106.150;-1124.000; -938.000
341.551;  116.275; -768.000; -708.000
341.685;  -28.825; -633.000; -611.000
341.820;  -59.975; -562.000; -493.000
341.954;  -42.175; -218.000; -349.000
342.088; -143.625;-1102.000;-1019.000
342.222;   71.975;  565.000;  618.000
342.356;  -61.150; -395.000; -335.000
342.490;  -99.325; -880.000; -841.000
342.624;  -48.600; -339.000; -242.000
342.758;  -17.575; -364.000; -312.000
342.892;  -66.350; -710.000; -585.000
343.026;  -37.625;  -58.000; -116.000
343.160;  -53.625; -426.000; -376.000
343.294;  -96.150; -474.000; -337.000
343.428;  -33.725; -488.000; -448.000
343.562;  -21.125; -172.000;  -23.000
343.696;  -23.550; -385.000; -314.000
343.830;  -25.100; -362.000; -356.000
343.964;   13.350; -231.000; -168.000
344.098;  810.950;  199.000;   70.000
344.232;  685.950; -266.000; -127.000
344.366;   76.225; -567.000; -453.000
344.500;   40.300; -665.000; -744.000
344.634;   28.100; -324.000; -164.000
344.768;  -22.300; -531.000; -341.000
344.902;   10.600;  278.000;  256.000
345.035;  -66.675; -556.000; -496.000
345.169; -144.550; -933.000; -656.000
345.303;  -34.250; -308.000; -482.000
345.437;  -82.300; -826.000; -717.000
345.571;  -70.950; -675.000; -594.000
345.704;  -69.375; -309.000; -532.000
345.838;  -30.450; -331.000; -284.000
345.972;  -48.925; -543.000; -495.000
346.106;  160.675; -179.000; -190.000
346.239;  399.250; -312.000; -243.000
346.373;   -1.775; -343.000; -302.000
346.507; -152.500; -950.000; -962.000
346.640;  134.975;  -30.000;   13.000
346.774;  -49.125; -650.000; -797.000
346.908;   -5.750; -138.000;  -11.000
347.041; -108.500; -646.000; -593.000
347.175;   18.725;  259.000;   27.000
347.309;  -76.775; -698.000; -628.000
347.442; -111.675; -883.000; -732.000
347.576;  259.200;  670.000;  668.000
347.709;  163.150; -123.000;  -52.000
347.843;  -96.800; -933.000; -825.000
347.976;   29.200;  235.000;  294.000
348.110; -187.850;-1268.000;-1186.000
348.243;  -95.375; -679.000; -772.000
348.377;    9.925;  -26.000;   60.000
348.510;   42.875;  403.000;  540.000
348.644;  -40.125;  -37.000; -159.000
348.777;   -3.725;  180.000;  191.000
348.911;  -43.925; -142.000; -112.000
349.044;  143.025;  471.000;  448.000
349.178;  112.650;-1069.000;-1006.000
349.311;  117.525;  141.000;  255.000
349.444;  -13.075; -927.000; -813.000
349.578;  -18.800; -347.000; -200.000
349.711; -114.700; -959.000; -862.000
349.845;  -19.825; -661.000; -591.000
349.978; -145.275;-1224.000;-1137.000
350.111;  -91.525; -546.000; -612.000
350.244;  -82.825; -596.000; -700.000
350.378;   -9.050; -392.000; -393.000
350.511;  -81.475; -393.000; -426.000
350.644;  -97.100; -808.000; -806.000
350.778;   16.125;  168.000;  104.000
350.911;    4.725;  134.000;  140.000
351.044;  -99.250; -685.000; -615.000
351.177;  -18.550; -321.000; -281.000
351.310;  -25.675;    3.000; -131.000
351.444;  -99.000; -888.000; -788.000
351.577;  104.500;  140.000;   90.000
351.710;   87.475;  593.000;  417.000
351.843;  -32.800; -165.000;  -77.000
351.976;    6.775;  149.000;  -79.000
352.109;  -96.075; -621.000; -612.000
352.242;  -34.475; -464.000; -419.000
352.376;  -67.850; -580.000; -636.000
352.509;  160.275; -437.000; -356.000
352.642;   -8.525; -654.000; -604.000
352.775;   51.575; -141.000;  -98.000
352.908; -122.625; -933.000; -904.000
353.041; -101.150; -814.000; -824.000
353.174;  -57.000; -551.000; -424.000
353.307;  -85.400; -753.000; -764.000
353.440;   59.950;  541.000;  453.000
353.573; -111.700; -957.000;-1008.000
353.706;  -63.975; -384.000; -558.000
353.839;  -16.175; -264.000; -220.000
353.971; -100.000; -657.000; -512.000
354.104;  -93.750; -896.000; -835.000
354.237;  -51.650; -627.000; -662.000
354.370;  -90.425; -846.000; -879.000
354.503; -187.450;-1231.000;-1308.000
354.636;  -41.725; -529.000; -348.000
354.769; -131.550; -937.000; -860.000
354.902;  -14.450; -230.000; -139.000
355.034;  -21.800; -164.000; -220.000
355.167;   -7.400; -262.000; -162.000
355.300;  -98.725;-1061.000; -880.000
355.433;  981.925;  -71.000;  -14.000
355.565; 1517.250; -402.000; -384.000
355.698;  393.150; -356.000; -296.000
355.831;   -5.600; -882.000; -801.000
355.964;   79.350; -285.000; -170.000
356.096;  -83.275; -856.000; -843.000
356.229;    8.900; -523.000; -530.000
356.362;  311.750; -373.000; -266.000
356.494;  600.225; -229.000; -162.000
356.627;  432.375;  269.000;  377.000
356.760;  673.000;  120.000;   53.000
356.892;  949.950; -286.000; -601.000
357.025;  595.750;  403.000;  389.000
357.157;  522.025; -167.000; -179.000
357.290;  712.400; -856.000; -713.000
357.423;  208.450; -667.000; -556.000
357.555;  111.600; -217.000; -228.000
357.688;  102.125; -483.000; -364.000
357.820;  419.425; -870.000; -877.000
357.953; 3387.275; -563.000; -589.000
358.085;  717.075; -632.000; -612.000
358.218;  955.625;-1131.000; -932.000
358.350;  166.700;  -58.000;  312.000
358.483; -129.150;-1300.000;-1187.000
358.615;  -33.450;-1182.000;-1078.000
358.747;  -74.625;-1187.000;-1058.000
358.880;   12.575; -810.000; -744.000
359.012;  -10.375; -376.000; -202.000
359.145;  -33.375; -480.000; -511.000
359.277;   40.200; -962.000; -913.000
359.409; 2802.475;  536.000;  231.000
359.542;  729.925; -738.000; -688.000
359.674;   61.675;   46.000;   13.000
359.806;  -59.675; -565.000; -438.000
359.939;  -38.300; -617.000; -516.000
360.071;  -14.425; -583.000; -579.000
360.203;  -23.375; -411.000; -364.000
360.335;   32.500;  164.000;  -16.000
360.468;  173.150; -249.000; -307.000
360.600; 2258.525; -547.000; -454.000
360.732; 2886.250; -546.000; -423.000
360.864;  379.075;-1216.000;-1044.000
360.996;  245.325; -516.000; -554.000
361.129;   39.250; -389.000; -598.000
361.261;   32.150;  110.000; -113.000
361.393;  -25.025; -252.000; -214.000
361.525;   20.850;   94.000;  244.000
361.657;  -45.025; -821.000; -703.000
361.789;    3.800; -139.000; -155.000
361.921;  183.275; -642.000; -593.000
362.053;  234.225;  524.000;  541.000
362.185;   53.775;  288.000;   72.000
362.318;  -82.275; -709.000; -705.000
362.450;  100.050;  294.000;  444.000
362.582;   61.600; -913.000; -870.000
362.714;  -44.500; -353.000; -332.000
362.846;  -77.900; -606.000; -490.000
362.978; -150.100; -941.000; -811.000
363.109;   48.125; -161.000; -260.000
363.241;  367.450; -739.000; -749.000
363.373;  423.200; -649.000; -564.000
363.505;  677.600; -186.000;  -91.000
363.637;  147.275; -787.000; -601.000
363.769; -126.875;-1067.000;-1080.000
363.901;  -70.425; -596.000; -654.000
364.033; -131.100;-1103.000;-1062.000
364.165;    5.250; -283.000; -283.000
364.296;   79.350; -316.000; -177.000
364.428;   68.875;-1344.000;-1220.000
364.560;  -63.125; -679.000; -661.000
364.692;  -73.950; -738.000; -835.000
364.824;  194.925; -588.000; -456.000
364.955;  427.275; -402.000; -564.000
365.087;  974.925;-1097.000; -852.000
365.219;   36.575; -686.000; -816.000
365.351;  -66.425; -526.000; -572.000
365.482;   56.950;  300.000;  240.000
365.614;  -48.675; -402.000; -314.000
365.746;  -93.775; -729.000; -752.000
365.877;  -98.900; -706.000; -672.000
366.009;  255.950;  -35.000;  -62.000
366.141;  -73.550;-1249.000;-1134.000
366.272; -107.775; -803.000; -719.000
366.404; -104.625;-1005.000; -874.000
366.535;  -11.200; -139.000;  -12.000
366.667; -102.875; -644.000; -649.000
366.799;   30.450;  353.000;  203.000
366.930; -138.275; -862.000; -996.000
367.062;   99.600; -639.000; -613.000
367.193;  154.575; -872.000; -842.000
367.325;  -51.500; -580.000; -684.000
367.456;   31.075; -246.000;   31.000
367.588;  159.275; -371.000; -318.000
367.719;   18.100;  -44.000;  -45.000
367.851;  -27.775; -222.000; -241.000
367.982;  -62.425; -875.000; -732.000
368.113;   84.125; -475.000; -358.000
368.245; -127.500; -960.000; -841.000
368.376;  -15.150; -254.000; -302.000
368.508;  -29.750; -188.000; -263.000
368.639; -129.225;-1166.000;-1034.000
368.770;  -36.150; -670.000; -589.000
368.902;  -62.150; -836.000; -926.000
369.033; -119.425; -906.000; -855.000
369.164;  -44.800; -720.000; -653.000
369.296; -106.175; -452.000; -601.000
369.427;   -4.725; -209.000; -144.000
369.558;  -44.850; -593.000; -377.000
369.689;  -79.550; -721.000; -569.000
369.821; -136.225; -951.000; -845.000
369.952;  -11.200;   42.000; -108.000
370.083;  -50.575; -229.000; -108.000
370.214;  -68.700; -735.000; -650.000
370.345;  -16.775;   65.000;   81.000
370.477;  -81.325; -810.000; -790.000
370.608;  184.150; -328.000; -264.000
370.739;  -68.375;-1233.000;-1292.000
370.870;  -45.750;-1102.000; -923.000
371.001;   69.250; -378.000; -467.000
371.132;  -79.975; -754.000; -735.000
371.263;  -22.000;  -42.000; -148.000
371.394; -138.325; -841.000; -748.000
371.525;   37.200;  345.000;  225.000
371.657;  -82.600; -808.000; -670.000
371.788;   55.675;  103.000;  199.000
371.919;  149.400; -384.000; -304.000
372.050; 3260.925;  -91.000; -156.000
372.181;  978.475; -188.000; -294.000
372.311;  300.925;   42.000; -127.000
372.442;   12.000; -457.000; -451.000
372.573;   -9.950; -444.000; -340.000
372.704; -117.050;-1008.000; -980.000
372.835;   64.375; -228.000; -289.000
372.966;  -63.275; -646.000; -554.000
373.097;  -67.600; -575.000; -711.000
373.228;  -52.775; -717.000; -542.000
373.359;   98.175; -824.000; -536.000
373.490;  785.600; -881.000; -727.000
373.620; 1026.125;-1001.000; -803.000
373.751; 1564.125; -332.000; -396.000
373.882;  722.575; -663.000; -733.000
374.013;   45.050; -449.000; -262.000
374.143;  -51.775; -581.000; -659.000
374.274; -109.825; -987.000; -908.000
374.405;  162.950; -388.000; -276.000
374.536;  365.950; -526.000; -387.000
374.666;  966.875; -759.000; -807.000
374.797;  176.800; -817.000; -868.000
374.928;  757.250; -710.000; -560.000
375.058;  754.000; -535.000; -500.000
375.189;   73.150;  -59.000;  -93.000
375.320; -101.975; -928.000;-1034.000
375.450;  -36.300; -625.000; -616.000
375.581;  -44.125; -526.000; -436.000
375.712;  -30.800; -574.000; -250.000
375.842;  240.525; -438.000; -415.000
375.973;  180.075; -554.000; -513.000
376.103;  -62.800; -665.000; -648.000
376.234;  -82.575; -531.000; -552.000
376.364;  -55.100; -944.000; -867.000
376.495;  294.425;  925.000;  529.000
376.625;  -16.550; -472.000; -485.000
376.756;   47.700; -709.000; -678.000
376.886;  -99.675;-1178.000;-1026.000
377.017;   55.875;-1048.000;-1061.000
377.147;  364.650; -786.000; -782.000
377.278;   56.525;  174.000;  228.000
377.408; -137.725; -801.000; -815.000
377.538; -104.225; -707.000; -693.000
377.669;  -82.950; -537.000; -613.000
377.799;  -89.675; -645.000; -635.000
377.929;  -83.325; -610.000; -428.000
378.060; -136.325; -781.000; -847.000
378.190;  -46.725; -726.000; -531.000
378.320;  -41.525; -401.000; -406.000
378.451;  -12.525; -131.000;  -22.000
378.581;   -5.150;  -67.000; -110.000
378.711;  147.325; 1035.000;  866.000
378.841;  -10.475; -533.000; -675.000
378.972;  -84.950; -871.000; -751.000
379.102;  -17.975; -652.000; -579.000
379.232;  -33.675; -126.000;  -73.000
379.362; -112.950;-1001.000; -885.000
379.492;  -25.025; -373.000; -424.000
379.623;   94.075;    0.000;  111.000
379.753;  -93.700;-1107.000; -974.000
379.883;  186.350;   59.000;  156.000
380.013;  -21.800;-1081.000;-1017.000
380.143; -112.025;-1097.000;-1056.000
380.273; -109.050; -985.000; -861.000
380.403;   -2.700; -344.000; -257.000
380.533;  -49.775; -651.000; -664.000
380.663;   61.225;  173.000;  128.000
380.793; -108.200;-1027.000;-1074.000
380.923;  -23.350; -103.000;  -34.000
381.053;  -97.100; -613.000; -623.000
381.183;  -30.975; -106.000; -248.000
381.313;   19.050; -656.000; -470.000
381.443;   29.450; -692.000; -473.000
381.573;  144.150; -402.000; -409.000
381.703;  215.125;-1249.000;-1095.000
381.833; -137.300;-1454.000;-1336.000
381.963;  109.125; -134.000;  -87.000
382.093; 1239.550; -925.000; -909.000
382.223;  366.325; -713.000; -602.000
382.353;  -32.850; -801.000; -608.000
382.482;  314.825;-1091.000; -964.000
382.612;  668.100; -872.000; -644.000
382.742;  377.250; -695.000; -622.000
382.872;  221.675; -565.000; -551.000
383.002;   62.750;  347.000; -132.000
383.131;  -29.200; -226.000; -160.000
383.261;  -44.225; -706.000; -768.000
383.391;  279.800; -552.000; -377.000
383.521; 3285.000;  451.000;  263.000
383.650;  807.500; -947.000; -904.000
383.780;  -24.300; -783.000; -656.000
383.910;  104.675;  880.000;  802.000
384.039;    0.400; -794.000; -656.000
384.169;  148.700;-1205.000;-1017.000
384.299;  -28.125; -650.000; -662.000
384.428;  -95.925; -764.000; -680.000
384.558;  -42.700; -308.000; -275.000
384.687;  -56.300; -414.000; -334.000
384.817;    7.500;   75.000;   -2.000
384.947;   22.325; -234.000; -141.000
385.076;  264.600;  982.000;  912.000
385.206;   97.375;  369.000;  480.000
385.335;  -34.300; -549.000; -417.000
385.465;  -98.025; -655.000; -663.000
385.594;  119.325;  -53.000;  -44.000
385.724;  368.450; -868.000; -838.000
385.853;   86.825; -296.000; -270.000
385.982; 1224.200; -743.000; -787.000
386.112; 1925.575;-1052.000; -871.000
386.241;  127.850; -307.000; -312.000
386.371;   19.425; -174.000;  -87.000
386.500;  -20.925; -825.000; -789.000
386.629;   10.475; -874.000; -817.000
386.759;   68.475;  -43.000;   68.000
386.888;   -8.575; -170.000; -250.000
387.017; -100.250; -648.000; -620.000
387.147; -104.225; -771.000; -798.000
387.276;  -12.825; -410.000; -397.000
387.405;   -0.625; -398.000; -342.000
387.535;  -52.825; -452.000; -361.000
387.664;  -64.950; -692.000; -620.000
387.793;   40.375; -198.000; -113.000
387.922;  454.375;  255.000;  200.000
388.052;    0.325; -576.000; -423.000
388.181;   -3.800; -342.000; -472.000
388.310;  -26.025; -889.000; -710.000
388.439;  -58.925; -749.000; -742.000
388.568;  158.950;  365.000;  244.000
388.697;  910.875; -756.000; -653.000
388.826;  178.475; -768.000; -666.000
388.956;   48.650; -285.000; -307.000
389.085;  -30.775; -347.000; -287.000
389.214; -107.900; -842.000; -872.000
389.343;  -65.700; -645.000; -413.000
389.472;  398.100;  126.000;  149.000
389.601;  510.950;   91.000;    0.000
389.730;    6.025; -568.000; -687.000
389.859;   50.475;  226.000;   46.000
389.988;  156.025; -423.000; -408.000
390.117;  108.100; -168.000; -146.000
390.246;  -22.050; -331.000; -320.000
390.375;   70.250; -673.000; -626.000
390.504;  -72.150; -703.000; -621.000
390.633; -112.300; -672.000; -726.000
390.761;  -65.225; -732.000; -645.000
390.890;    9.275;   -4.000; -130.000
391.019;  -39.650; -421.000; -441.000
391.148; -138.850; -826.000; -855.000
391.277;  -63.275; -576.000; -493.000
391.406;  -98.250; -821.000; -805.000
391.534;   32.025;  574.000; -301.000
391.663;  -73.550; -583.000; -645.000
391.792;  -89.625; -673.000; -701.000
391.921;   83.150;   -3.000;   15.000
392.050;  158.650; -287.000; -228.000
392.178;  -53.050;-1206.000;-1061.000
392.307;  105.550; -758.000; -712.000
392.436;   46.900; -427.000; -641.000
392.564;   26.600;  166.000;   -6.000
392.693;  -93.175; -860.000; -682.000
392.822;  166.750; -529.000; -534.000
392.950;   70.625; -880.000; -714.000
393.079;  296.350; -188.000; -328.000
393.208;   12.825; -488.000; -511.000
393.336;  -20.325; -170.000; -145.000
393.465;  -46.700; -317.000; -199.000
393.593;    0.750;   62.000;   79.000
393.722; -158.775;-1121.000; -916.000
393.850;  -32.925; -188.000;  -61.000
393.979; -157.875; -926.000; -805.000
394.107;  -70.575; -517.000; -537.000
394.236;  -31.100; -570.000; -507.000
394.364;  190.550;  383.000;  206.000
394.493;  269.675; -911.000; -767.000
394.621;  -28.050; -955.000; -916.000
394.750;  700.125; -873.000; -923.000
394.878; 2989.275; -247.000; -149.000
395.007; 4085.375; -721.000; -807.000
395.135;  309.925; -790.000; -721.000
395.263;  -93.450;-1038.000;-1040.000
395.392;    9.175;  -25.000; -107.000
395.520; -146.975; -818.000; -679.000
395.648;  -89.875; -865.000; -915.000
395.777;  -30.775; -366.000; -405.000
395.905;  -48.250; -449.000; -564.000
396.033;   17.975;  217.000;  172.000
396.162;  453.325; -399.000; -453.000
396.290;  398.150;  -17.000;   -2.000
396.418;   90.800; -555.000; -514.000
396.546;  -78.350; -571.000; -466.000
396.674;  -93.400; -850.000; -878.000
396.803;  -10.325;  -72.000;  -23.000
396.931;   74.125; -179.000; -199.000
397.059;    8.225;-1026.000; -989.000
397.187; -115.700;-1026.000; -975.000
397.315; -138.650; -884.000; -649.000
397.443;  -92.925; -592.000; -443.000
397.572; -102.675; -578.000; -424.000
397.700;  -40.025; -607.000; -614.000
397.828;    8.475;  120.000;  -90.000
397.956;  -40.625; -508.000; -478.000
398.084;  -56.575; -767.000; -626.000
398.212;   31.175;  137.000;  124.000
398.340;   -3.350;  -56.000;  159.000
398.468;   20.000; -390.000; -169.000
398.596; -142.600; -993.000; -953.000
398.724; -116.750; -762.000; -767.000
398.852; -164.350;-1024.000; -976.000
398.980;  -63.325; -560.000; -560.000
399.108;  -56.800; -982.000; -735.000
399.236;   35.250;   13.000;    8.000
399.363;    6.875;  222.000;  196.000
399.491;  -58.125; -404.000; -398.000
399.619; -145.225; -829.000; -800.000
399.747; -104.050; -859.000; -771.000
399.875;   66.825;  220.000;  234.000
400.003;  -49.950; -359.000; -284.000
400.130;  -99.925; -421.000; -341.000
400.258;  -38.475;  -83.000;   38.000
400.386;  -57.275; -352.000; -168.000
400.514;  -49.000; -526.000; -587.000
400.641;  -95.600; -928.000; -802.000
400.769; -138.275; -979.000; -888.000
400.897; -129.050; -838.000; -793.000
401.025;  -22.675; -166.000; -152.000
401.152;  -16.475;  220.000;   38.000
401.280;  -88.200; -430.000; -429.000
401.408; -124.775; -712.000; -576.000
401.535; -106.375; -735.000; -758.000
401.663; -189.750;-1134.000;-1054.000
401.790;  -92.850; -514.000; -525.000
401.918;   31.150;  436.000;  405.000
402.046;   -5.425;  134.000;  122.000
402.173;  -37.950;  -18.000;    7.000
402.301;  -75.600; -519.000; -397.000
402.428;   44.275;  528.000;  383.000
402.556; -139.800;-1188.000; -913.000
402.683;  -35.500;  -20.000;   -1.000
402.811;  -18.750;  -37.000; -206.000
402.938;  -13.975;   20.000;   27.000
403.066;  167.875; -574.000; -558.000
403.193;  292.975;  299.000;  239.000
403.321;  213.500; -396.000; -574.000
403.448;  291.275;   83.000;   27.000
403.575;  142.525;  -90.000;  -46.000
403.703;  -90.150; -732.000; -557.000
403.830;  -63.800; -531.000; -496.000
403.957; -133.050;-1117.000;-1023.000
404.085;   11.875;  -61.000; -172.000
404.212;   95.350;  -50.000;   63.000
404.339;  276.325; -566.000; -306.000
404.467; 5878.400; -612.000; -524.000
404.594; 3805.400; -287.000; -227.000
404.721;  856.425; -869.000; -764.000
404.848;   64.350; -113.000; -202.000
404.976; -102.250; -856.000; -783.000
405.103;  -15.725;  -14.000;  -82.000
405.230;    4.050;  190.000;  226.000
405.357;   36.175;  117.000;   44.000
405.484;  272.300;  -49.000;    5.000
405.612;   61.350; -548.000; -563.000
405.739;  -66.825; -488.000; -243.000
405.866;   89.450;  669.000;  385.000
405.993;  -51.875; -398.000; -102.000
406.120; -142.250; -801.000; -887.000
406.247;  -61.800; -323.000; -342.000
406.374;  383.975;  540.000;  629.000
406.501;   68.450; -632.000; -702.000
406.628;  -73.500; -621.000; -589.000
406.755; -101.375; -803.000; -620.000
406.882;  -32.350; -228.000; -277.000
407.009; -118.000; -719.000; -628.000
407.136;   38.750; -480.000; -401.000
407.263;   86.725; -939.000; -829.000
407.390;  -72.275; -692.000; -614.000
407.517; -187.850;-1139.000;-1187.000
407.644;  -61.575; -332.000; -256.000
407.771;  -78.950; -249.000; -287.000
407.898;    2.175;  168.000;  328.000
408.025;  -70.400; -421.000; -313.000
408.151;  -32.100;   82.000;  153.000
408.278;  -83.725; -267.000; -216.000
408.405; -125.625; -931.000; -899.000
408.532;  -78.400; -549.000; -542.000
408.659; -111.975; -677.000; -648.000
408.785; -209.175;-1298.000;-1170.000
408.912;  -63.050; -412.000; -296.000
409.039; -116.850; -610.000; -686.000
409.166;  -95.375; -591.000; -555.000
409.292; -113.200; -571.000; -534.000
409.419; -116.625; -665.000; -649.000
409.546;  -83.500; -431.000; -192.000
409.672; -103.575; -713.000; -545.000
409.799;  -37.550;  -36.000;   34.000
409.926;  -45.200; -180.000; -179.000
410.052; -178.725;-1127.000;-1091.000
410.179;  -61.900; -368.000; -392.000
410.305;  -84.650; -375.000; -493.000
410.432;  -59.825; -220.000; -333.000
410.558;  -98.975; -305.000; -380.000
410.685; -105.700; -688.000; -431.000
410.812; -101.475; -409.000; -588.000
410.938; -134.425; -964.000; -808.000
411.065; -112.400; -671.000; -645.000
411.191;   -3.300; -189.000; -174.000
411.317; -121.800; -823.000; -742.000
411.444;  -62.225; -317.000; -246.000
411.570;  -66.050; -339.000; -294.000
411.697; -128.475; -758.000; -752.000
411.823; -176.625; -989.000; -999.000
411.949;  -30.375;  -56.000;   17.000
412.076; -107.750; -539.000; -519.000
412.202; -115.650; -758.000; -757.000
412.329; -134.675; -798.000; -752.000
412.455; -123.750; -821.000; -657.000
412.581;  -31.325;  -15.000;  172.000
412.707;  -71.325; -540.000; -457.000
412.834;    4.500;  156.000;  219.000
412.960;  -82.475; -785.000; -784.000
413.086;  -99.550; -743.000; -701.000
413.212;  131.775;  604.000;  578.000
413.339;  -84.625; -685.000; -701.000
413.465;   -8.775; -364.000; -310.000
413.591;  -98.150; -757.000; -474.000
413.717;  -52.275; -358.000; -366.000
413.843; -135.200; -839.000; -861.000
413.969;  -52.850;  -47.000; -292.000
414.096; -119.275; -679.000; -679.000
414.222;   -8.150;  -33.000;   85.000
414.348;  -37.300; -652.000; -385.000
414.474;   80.900;   38.000;  -52.000
414.600;  -22.650; -126.000; -144.000
414.726;   -3.050;  -96.000;  -55.000
414.852;  -53.575; -365.000; -342.000
414.978;   17.750;  104.000;  -18.000
415.104;   37.000;   38.000;   80.000
415.230;   17.075; -329.000; -330.000
415.356;   27.525; -409.000; -514.000
415.482;  207.425;   13.000;  -35.000
415.608;  270.050; -247.000; -323.000
415.734;  983.175;   67.000;   38.000
415.860;20137.525; -875.000; -767.000
415.986;14775.850; -685.000; -607.000
416.111; 1262.950; -798.000; -652.000
416.237;  260.400; -424.000; -571.000
416.363; 1138.125; -765.000; -733.000
416.489; 4308.125; -324.000; -251.000
416.615;  463.625; -707.000; -742.000
416.741;  -16.475; -677.000; -784.000
416.866; -103.350; -673.000; -736.000
416.992; -116.575; -801.000; -818.000
417.118;  -30.300;  -41.000;  -80.000
417.244;  -63.450; -798.000; -531.000
417.369;  -91.600; -801.000; -612.000
417.495;  -11.725; -325.000; -254.000
417.621;  -97.675;-1015.000; -803.000
417.746;    1.125; -579.000; -572.000
417.872;   56.700; -254.000; -144.000
417.998;   55.725; -515.000; -530.000
418.123; 1063.475;-1073.000; -845.000
418.249; 5559.750; -512.000; -601.000
418.374;  784.325; -916.000; -824.000
418.500;  113.425; -383.000; -482.000
418.626;  110.850;   70.000;  -59.000
418.751;  114.325; -549.000; -448.000
418.877;  197.875; -637.000; -643.000
419.002; 1825.550; -688.000; -560.000
419.128;12853.725; -930.000; -721.000
419.253; 3209.050; -967.000; -837.000
419.379;  409.675; -391.000; -338.000
419.504;  402.475;  325.000;  415.000
419.629;  522.575; -393.000; -212.000
419.755; 3655.925; -317.000; -254.000
419.880;21965.475;  -98.000;   67.000
420.006;11738.675; -280.000; -221.000
420.131;30087.675; -662.000; -775.000
420.256; 4387.550; -315.000; -316.000
420.382;  566.875; -665.000; -687.000
420.507;   75.200; -649.000; -778.000
420.632;  102.225; -337.000; -339.000
420.758;  203.075; -251.000; -425.000
420.883;  -89.750; -876.000; -672.000
421.008; -103.875; -775.000; -619.000
421.133;  -94.750; -509.000; -467.000
421.259;  -54.775; -325.000; -259.000
421.384; -126.100; -834.000; -693.000
421.509;  -59.425;-1052.000; -862.000
421.634;  934.750; -936.000; -820.000
421.759;  424.525; -359.000; -327.000
421.885;  -70.650; -717.000; -656.000
422.010;  -90.200; -673.000; -542.000
422.135; -139.075; -695.000; -727.000
422.260;   35.475;  340.000;  280.000
422.385;  -48.975;   12.000;  -98.000
422.510;   16.975;  151.000;  -26.000
422.635;    4.750;  -87.000;  -43.000
422.760;   94.575; -766.000; -791.000
422.885;   34.750;  -57.000;  -80.000
423.010;  -26.750; -112.000; -169.000
423.135; -103.800; -481.000; -561.000
423.260;  -15.000; -150.000; -245.000
423.385;   57.475;  476.000;  222.000
423.510;   28.425;   71.000;  -22.000
423.635;   55.550;  133.000;   45.000
423.760;   60.475;  383.000;  328.000
423.885;   38.425;  336.000;  391.000
424.010;   14.050;  -68.000;  -13.000
424.135;  -23.025;    5.000;  -33.000
424.259;  -86.800; -654.000; -457.000
424.384;  -68.575; -279.000; -272.000
424.509;  -18.450; -260.000; -186.000
424.634; -108.175; -761.000; -623.000
424.759;  -24.125; -688.000; -544.000
424.883;  -19.700; -506.000; -527.000
425.008;  151.300; -502.000; -410.000
425.133; 2047.625; -679.000; -653.000
425.258;  951.325; -517.000; -381.000
425.382;  914.525; -867.000; -774.000
425.507; 2355.275; -487.000; -543.000
425.632;  416.075; -802.000; -663.000
425.756;  470.175; -256.000; -146.000
425.881; 6771.925; -831.000; -857.000
426.006;18604.775; -604.000; -355.000
426.130; 2898.775; -696.000; -508.000
426.255;  378.250; -611.000; -491.000
426.379;  156.550; -189.000; -577.000
426.504;  361.725;  660.000;  544.000
426.629; 4078.300; -519.000; -466.000
426.753; 2841.525;   64.000;  -46.000
426.878;  298.400; -252.000; -288.000
427.002;  130.600; -651.000; -668.000
427.127; 1584.475;  -35.000; -158.000
427.251;11678.350;  372.000;  401.000
427.375; 3397.225; -191.000; -173.000
427.500; 2131.625; -616.000; -610.000
427.624;  719.950; -234.000; -400.000
427.749;   89.850; -216.000; -225.000
427.873;  -49.250; -499.000; -412.000
427.997;  -44.050; -222.000; -230.000
428.122;   78.625;  795.000;  703.000
428.246;   78.625;  433.000;  434.000
428.371; -137.300; -869.000; -773.000
428.495; -112.075; -624.000; -646.000
428.619;  -48.100; -186.000; -117.000
428.743;   16.625;   65.000;  132.000
428.868;   -9.750; -732.000; -643.000
428.992; 1232.450; -219.000; -326.000
429.116;  494.575; -329.000; -357.000
429.240;  244.925;  419.000;  426.000
429.365;  -31.750; -454.000; -574.000
429.489;  -36.450; -638.000; -647.000
429.613;   12.625; -236.000; -177.000
429.737;   38.325; -563.000; -432.000
429.861;  272.000; -247.000; -133.000
429.985; 5637.575; -425.000; -305.000
430.109; 6323.325; -770.000; -908.000
430.234;  711.075;   76.000;  -50.000
430.358;   54.950; -250.000; -160.000
430.482;  -57.850; -672.000; -564.000
430.606;  -63.775; -655.000; -375.000
430.730;   -2.325; -437.000; -388.000
430.854;   76.175; -909.000; -835.000
430.978;  -84.200; -795.000; -764.000
431.102;  -90.950; -499.000; -422.000
431.226; -134.175; -874.000; -815.000
431.350;   31.275;  345.000;  422.000
431.474;  -76.200; -661.000; -373.000
431.597; -148.125;-1060.000; -848.000
431.721;  -77.075; -276.000; -267.000
431.845; -133.050; -704.000; -472.000
431.969;  -63.850; -304.000; -349.000
432.093;  -88.000; -395.000; -317.000
432.217;  -18.800;   32.000;   82.000
432.341;  -87.350; -523.000; -518.000
432.464;    6.300;   96.000;   40.000
432.588;  146.950; -401.000; -329.000
432.712;   94.875;  -52.000;  -52.000
432.836;   45.300;  213.000;  263.000
432.959;  -23.700; -372.000; -311.000
433.083;   91.025;   11.000;    2.000
433.207;  391.100;  285.000;  930.000
433.330; 5128.000; -391.000; -200.000
433.454; 6464.400; -654.000; -638.000
433.578; 3714.425;  583.000;  278.000
433.701;  684.700; -623.000; -675.000
433.825;  116.575; -292.000; -299.000
433.949;  140.975;   28.000;  -72.000
434.072;   33.675; -410.000; -323.000
434.196;   -6.925; -309.000; -117.000
434.319; 3681.250;25482.000;25124.000
434.443;  708.825; -656.000; -603.000
434.566; 2739.250;  281.000;   62.000
434.690;  453.900; -637.000; -383.000
434.813;   48.225; -251.000; -173.000
434.937;  -78.525; -569.000; -696.000
435.060;  -46.200; -423.000; -332.000
435.184;  218.625; -492.000; -217.000
435.307;  127.300;  159.000;  102.000
435.431;  -17.250;  -40.000;   24.000
435.554;  -77.800; -399.000; -240.000
435.677;  -79.725; -350.000; -258.000
435.801;  -48.750;  -25.000;   49.000
435.924;  -19.925;    1.000;  -67.000
436.048; -128.400;-1019.000; -732.000
436.171;  -74.900; -240.000;  -66.000
436.294;  -23.125; -248.000; -229.000
436.417;  107.675; -963.000; -849.000
436.541;  -80.375; -814.000; -840.000
436.664;  -48.475; -242.000; -316.000
436.787;  -27.625;   13.000;  113.000
436.910; -117.275; -792.000; -422.000
437.034;  -13.425;  142.000;  143.000
437.157;   29.875;  -11.000;    0.000
437.280;  -65.375; -392.000; -292.000
437.403; -100.075; -982.000; -869.000
437.526;  449.100; -903.000; -865.000
437.649; 1841.850; -505.000; -332.000
437.772;  260.700; -692.000; -540.000
437.896;  102.425;  700.000;  544.000
438.019; -112.325; -758.000; -503.000
438.142;  -97.425; -596.000; -506.000
438.265;  -45.025; -639.000; -670.000
438.388;  460.300; -520.000; -410.000
438.511;   54.600; -597.000; -394.000
438.634;  -66.250; -247.000; -125.000
438.757; -149.975; -693.000; -619.000
438.880;  -15.775;  -34.000;  -57.000
439.003;  -86.750; -417.000; -437.000
439.126;  -57.650; -287.000; -167.000
439.248;  -63.525;  -98.000; -139.000
439.371;  -56.225;    9.000;  -53.000
439.494;    7.050;  510.000;  439.000
439.617;  -46.575;   65.000;  -88.000
439.740; -190.750; -968.000; -816.000
439.863; -134.775; -755.000; -595.000
439.986; -127.800; -476.000; -431.000
440.108;  -45.175; -161.000; -112.000
440.231; -170.475; -950.000; -836.000
440.354;  -48.350;  -64.000; -150.000
440.477;   15.125; -566.000; -542.000
440.599;  -18.300; -200.000; -225.000
440.722; -131.575; -709.000; -586.000
440.845;   63.550;  751.000;  928.000
440.968; -116.750; -415.000; -311.000
441.090;  -53.700; -199.000;  -33.000
441.213; -180.525;-1021.000; -825.000
441.336;  -67.300; -159.000;   -5.000
441.458;  -82.575; -549.000; -396.000
441.581;  -98.450; -628.000; -629.000
441.703;  -76.500; -152.000;   13.000
441.826; -118.700; -557.000; -400.000
441.948;  -58.900;   56.000;   51.000
442.071;   34.750;  555.000;  424.000
442.193; -131.600; -531.000; -485.000
442.316;    6.375;  152.000;   97.000
442.438;   45.275; -233.000;  -10.000
442.561;   64.950;  272.000;  262.000
442.683;  414.375; -809.000; -522.000
442.806;  982.100;   -8.000;   74.000
442.928;   -1.000; -859.000; -604.000
443.051;  -79.925; -577.000; -373.000
443.173;  -86.100; -341.000; -339.000
443.295;  -91.100; -263.000; -371.000
443.418;  -78.125; -321.000;  -29.000
443.540;   -9.700; -106.000;   -4.000
443.662; -127.550; -563.000; -465.000
443.785;  -14.600;  335.000;  199.000
443.907;  -95.525; -362.000; -208.000
444.029; -116.375; -767.000; -494.000
444.152; -151.325; -644.000; -554.000
444.274;  -34.500;  -18.000;  -24.000
444.396; -118.900; -461.000; -221.000
444.518; -140.200; -691.000; -454.000
444.640; -109.850; -268.000; -111.000
444.763;   -3.375;  388.000;  249.000
444.885; -117.850; -432.000; -392.000
445.007;  -39.950;   35.000;   86.000
445.129; -125.925; -610.000; -515.000
445.251; -109.825; -372.000; -439.000
445.373; -139.150; -537.000; -386.000
445.495;    7.800;  242.000;  350.000
445.617;   43.050;  853.000;  753.000
445.739;  -72.425; -215.000;  -97.000
445.861;  -46.400; -245.000; -112.000
445.984;  -35.825; -267.000; -101.000
446.105;  139.200; -418.000; -251.000
446.227;  499.475; -176.000;  -19.000
446.349;  -10.400; -358.000; -249.000
446.471;  -94.550; -615.000; -448.000
446.593;  -82.475; -316.000;   19.000
446.715;   -9.950;  -67.000;   41.000
446.837;   60.525;  697.000;  832.000
446.959;  -95.500; -457.000; -478.000
447.081; -139.675; -628.000; -518.000
447.203;   58.550;  862.000;  834.000
447.325;  -90.600; -270.000;   42.000
447.446;   -8.500;  286.000;  530.000
447.568; -160.200; -921.000; -803.000
447.690;  -80.425; -236.000; -245.000
447.812; -158.250; -798.000; -519.000
447.933;  -23.450;  155.000;  127.000
448.055;  -64.450; -306.000; -261.000
448.177;  145.500;   31.000;   79.000
448.299;   35.225; -935.000; -727.000
448.420;   28.450;  -25.000;  159.000
448.542;  -46.900;   -3.000;   33.000
448.664;  -23.350;  109.000;  322.000
448.785;  -48.125;  265.000;   83.000
448.907;  -85.250; -614.000; -353.000
449.028;  -51.025; -771.000; -471.000
449.150;   51.675;  492.000;  589.000
449.272; -171.150;-1044.000; -913.000
449.393;   29.775;  612.000;  694.000
449.515; -149.125; -634.000; -581.000
449.636;  -66.500; -264.000; -155.000
449.758;   51.575;  763.000;  622.000
449.879;  -89.200; -498.000; -396.000
450.001;  -77.150; -149.000;  -49.000
450.122;  -39.250;  -95.000;  162.000
450.244;  -15.100;   37.000;  364.000
450.365;  -88.150; -495.000; -301.000
450.486;  -38.850;   80.000;  268.000
450.608;   17.025;  393.000;  326.000
450.729;   75.275;  578.000;  645.000
450.850;   22.925; -574.000; -466.000
450.972;  768.025; -552.000; -389.000
451.093; 5114.675;  190.000;  588.000
451.214; 2242.250; -516.000; -337.000
451.336;  405.100;  773.000;  579.000
451.457;   65.675;  264.000;  393.000
451.578;  -23.875; -118.000;  -74.000
451.699; -128.625; -546.000; -540.000
451.821;  -64.525; -284.000;  -50.000
451.942;    2.850;  278.000;  285.000
452.063;   47.075;  228.000;  419.000
452.184;  563.000;  -54.000;  -49.000
452.305; 1143.075;  103.000;  170.000
452.427;  118.550; -549.000; -301.000
452.548;  -21.800;   23.000;   79.000
452.669;  -52.300; -257.000;  -89.000
452.790;  -53.450;    3.000;  -18.000
452.911;   -6.100;  195.000;  259.000
453.032;  -62.525; -289.000;  -60.000
453.153;  -55.850;  -29.000;   81.000
453.274;   68.200;  737.000;  868.000
453.395;  -59.025;  -51.000;  175.000
453.516;   24.200; 1317.000; 1388.000
453.637;  -87.000; -205.000; -150.000
453.758;  -50.675;   15.000;   69.000
453.879; -118.475; -462.000; -250.000
454.000;   71.450; 1086.000;  948.000
454.121; -127.150; -554.000; -326.000
454.242; -116.250; -599.000; -383.000
454.362;  -58.575;  -99.000;  114.000
454.483;  -46.525; -309.000; -229.000
454.604;   40.125;  512.000;  580.000
454.725; -120.675; -627.000; -555.000
454.846; -142.025; -474.000; -406.000
454.967;  -15.000;  230.000;  539.000
455.087;  -61.675;  179.000;  153.000
455.208;    4.475;  554.000;  856.000
455.329;  -71.475;  -22.000;   82.000
455.450;   41.525;  473.000;  633.000
455.570;  -87.500; -234.000; -211.000
455.691;  -42.950;  201.000;  407.000
455.812; -111.300; -270.000;  -92.000
455.932;  -63.525;  107.000;  -97.000
456.053;  -78.150;   36.000;   24.000
456.173; -106.475; -433.000; -355.000
456.294; -132.350; -476.000; -303.000
456.415;  -74.125;  -73.000;   70.000
456.535;  -43.475;  297.000;  273.000
456.656;  -36.175;  132.000;  240.000
456.776;  -70.775;    3.000;  298.000
456.897;    6.150;  308.000;  513.000
457.017;  -92.425; -153.000;   -3.000
457.138;  -96.950; -402.000; -249.000
457.258;  -23.125;  263.000;  224.000
457.379;  -16.025;  509.000;  521.000
457.499;  -27.600;  443.000;  432.000
457.620; -112.050; -407.000; -231.000
457.740;  -90.450; -132.000;  -11.000
457.860;  -56.675;   87.000;   44.000
457.981;  -61.825;  132.000;  124.000
458.101;  -59.475;  -89.000;   40.000
458.221;  -26.425;  336.000;  402.000
458.342;  -50.150;   -4.000;  -37.000
458.462;   18.275;  617.000;  352.000
458.582;  -27.150; -302.000; -294.000
458.703;   -0.500;  303.000;  154.000
458.823;  -37.750;   22.000;  163.000
458.943;   15.875;  341.000;  467.000
459.063;   -9.400; 1124.000;  192.000
459.183;  -37.500;  328.000;  313.000
459.304;   -1.500;  315.000;  517.000
459.424;  -67.000; -246.000;  -89.000
459.544;  321.450;  388.000;  764.000
459.664;  858.500;  499.000;  506.000
459.784;  329.850; 1004.000; 1175.000
459.904;   38.225;  867.000;  744.000
460.024;   62.775;  867.000;  684.000
460.144;   -0.950;  449.000;  554.000
460.264;  -10.400;  515.000;  327.000
460.385;  -98.625; -145.000; -119.000
460.505;   21.650;  905.000;  858.000
460.625; -106.025;  -17.000;  -68.000
460.745;  -27.700;  396.000;  541.000
460.864;  -49.900;  153.000;  469.000
460.984;   15.050;  499.000;  573.000
461.104;  130.350; 1656.000; 1775.000
461.224;   11.450;  657.000;  650.000
461.344;  -31.800;  431.000;  360.000
461.464;  -30.600;  258.000;  513.000
461.584;  -21.625;  283.000;  466.000
461.704;  -45.925;   58.000;  108.000
461.824;  -60.050;  238.000;  259.000
461.943;  -44.550;  191.000;  130.000
462.063;  -74.050;    2.000;  324.000
462.183;   30.875;  639.000;  717.000
462.303;   90.950; 1678.000; 1230.000
462.422;   39.175;  781.000;  840.000
462.542;  -35.775;  271.000;  391.000
462.662;   26.300;  353.000;  380.000
462.782;  237.400;  833.000;  572.000
462.901;  492.850;  545.000;  717.000
463.021;  299.800; 1702.000; 1638.000
463.141;  -27.225;  337.000;  770.000
463.260;  -30.575;  614.000;  474.000
463.380;   -0.850;  902.000;  884.000
463.499;  -38.100;  342.000;  332.000
463.619;  -42.750;  581.000;  559.000
463.738;  108.950; 1644.000;  903.000
463.858;   20.125;  657.000;  811.000
463.978;  -41.500;  542.000;  396.000
464.097;   57.525;  921.000; 1114.000
464.217;  104.075; 1196.000; 1143.000
464.336;  105.150; 1068.000; 1130.000
464.455;  -36.250;  328.000;  659.000
464.575;   26.150;  597.000;  602.000
464.694;  161.875; 1204.000; 1179.000
464.814;  124.850; 1190.000; 1138.000
464.933;   72.000; 1095.000; 1027.000
465.052;  111.750; 1412.000; 1054.000
465.172;   79.800;  922.000;  799.000
465.291;  140.025; 1376.000; 1320.000
465.410;    7.575;  462.000;  735.000
465.530;   77.650; 1355.000; 1310.000
465.649;   57.050; 1209.000; 1273.000
465.768;  152.200; 1673.000; 1508.000
465.888;   40.125;  941.000; 1174.000
466.007;   98.875; 1335.000; 1440.000
466.126;  -19.775;  721.000;  641.000
466.245;   39.650; 1176.000; 1187.000
466.364;   22.750;  950.000; 1060.000
466.484;   51.800; 1024.000; 1213.000
466.603;   28.000; 1101.000; 1222.000
466.722;  127.850; 1490.000; 1769.000
466.841;   69.450; 1151.000; 1401.000
466.960;   44.425; 1069.000;  972.000
467.079;  125.875; 1971.000; 1786.000
467.198;   57.400; 1238.000; 1181.000
467.317;   84.675; 1768.000; 1162.000
467.436;   71.475; 1709.000; 1261.000
467.555;  112.700; 1796.000; 1746.000
467.674;   72.650; 1227.000; 1329.000
467.793;   47.950; 1376.000; 1374.000
467.912;  108.000; 1658.000; 1539.000
468.031;  128.225; 2038.000; 1930.000
468.150;  143.025; 1842.000; 1837.000
468.269;  185.625; 2313.000; 2090.000
468.388;  206.000; 2168.000; 2339.000
468.507;  237.625; 2884.000; 2903.000
468.626;  227.500; 2555.000; 2541.000
468.744;  158.425; 2018.000; 2174.000
468.863;  203.450; 2312.000; 2523.000
468.982;   90.675; 1503.000; 1555.000
469.101;  235.750; 2788.000; 2692.000
469.220;  144.900; 2333.000; 2176.000
469.338;  262.775; 2935.000; 3051.000
469.457;  204.650; 2719.000; 2545.000
469.576;  336.750; 3953.000; 3784.000
469.695;  238.225; 2877.000; 3066.000
469.813;  413.325; 4148.000; 4192.000
469.932;  414.800; 4255.000; 4485.000
470.051;  430.125; 4075.000; 4161.000
470.169;  860.050; 4470.000; 4338.000
470.288; 1488.350; 4700.000; 4809.000
470.406;  877.125; 5059.000; 5194.000
470.525;  626.425; 6101.000; 5787.000
470.644;  648.175; 6847.000; 6794.000
470.762;  814.400; 8397.000; 7873.000
470.881;  919.025; 8651.000; 8464.000
470.999; 1031.050; 9685.000; 9151.000
471.118; 1087.900;11174.000;10711.000

