
Integration time [ms]: 200.000
Averaging Nr. [scans]: 10
Smoothing Nr. [pixels]: 0
Data measured with spectrometer [name]: 2101012U2
Wave   ;Sample   ;Dark     ;Reference
[nm]   ;[counts] ;[counts] ;[counts] 

197.733;  128.900;  516.000;  404.000
197.879; -177.300; -610.000; -634.000
198.025; -106.600; -475.000; -420.000
198.171; -151.400; -602.000; -612.000
198.317;  -73.700; -401.000; -316.000
198.463; -138.200; -655.000; -404.000
198.609;   42.300;  181.000; -137.000
198.755; -188.600; -644.000; -410.000
198.901; -161.400; -505.000; -424.000
199.047; -157.300; -615.000; -488.000
199.193;  -69.400; -230.000; -468.000
199.339; -138.400; -222.000; -369.000
199.485;  101.600;  330.000;  271.000
199.631;  -14.200;  227.000;  310.000
199.777; -104.900; -466.000; -398.000
199.923; -130.500; -610.000; -424.000
200.069;   -5.000; -141.000;  -58.000
200.215;  125.600;  128.000;  453.000
200.361;   89.100;  243.000;  477.000
200.507; -162.600; -600.000; -373.000
200.653;  -37.500; -371.000; -194.000
200.798;  -63.100; -215.000; -125.000
200.944;  -10.600; -146.000;  -41.000
201.090;   57.200;   61.000;  222.000
201.236;    8.100; -116.000; -158.000
201.382;  297.900;  874.000;  903.000
201.528;    4.100;  -58.000;  -48.000
201.674; -128.600; -386.000; -293.000
201.819; -139.600; -540.000; -439.000
201.965; -195.500; -699.000; -447.000
202.111;  -82.300; -273.000; -226.000
202.257;  -92.000; -250.000; -238.000
202.402;   26.100;   13.000;  -36.000
202.548;  -63.600; -169.000; -116.000
202.694;  181.600;  410.000; -183.000
202.840; -162.400; -603.000; -531.000
202.985; -161.000; -681.000; -639.000
203.131; -228.900; -832.000; -666.000
203.277;  -61.900; -199.000; -262.000
203.423; -140.100; -434.000; -520.000
203.568;  -88.700; -462.000; -237.000
203.714; -139.200; -535.000; -542.000
203.860; -155.000; -682.000; -641.000
204.005;   26.200;  112.000;  167.000
204.151;  215.300;  561.000;  556.000
204.296; -106.100; -354.000; -221.000
204.442; -161.300; -600.000; -547.000
204.588; -163.300; -592.000; -579.000
204.733;   49.400;  178.000;  168.000
204.879; -304.100;-1018.000; -822.000
205.025;    5.400;  -99.000;  126.000
205.170;   10.200;  -17.000;   94.000
205.316;  192.800;  438.000;  661.000
205.461; -152.400; -698.000; -554.000
205.607;  180.300;  609.000;  665.000
205.752; -202.500; -626.000; -551.000
205.898; -113.100; -501.000; -391.000
206.043; -113.100; -578.000; -506.000
206.189;  -99.100; -243.000; -285.000
206.334;  161.100;  554.000;  606.000
206.480;  154.800;  409.000;  239.000
206.625; -184.900; -529.000; -552.000
206.771;  -94.100; -451.000; -373.000
206.916;  -60.500; -210.000; -537.000
207.062; -161.400; -545.000; -591.000
207.207; -107.500; -546.000; -443.000
207.353;  130.400;  185.000;  460.000
207.498;   14.900;  196.000;   85.000
207.643; -128.000; -501.000; -370.000
207.789; -288.600;-1069.000; -910.000
207.934; -183.400; -665.000; -713.000
208.080;  -79.800; -154.000;   66.000
208.225;  -20.000;  -22.000;  -57.000
208.370; -178.600; -727.000; -619.000
208.516; -182.400; -741.000; -487.000
208.661;  -79.000; -127.000;  -69.000
208.806;  -40.000; -165.000; -171.000
208.952; -284.500;-1044.000; -731.000
209.097;  156.200;  378.000;  349.000
209.242; -118.600; -307.000; -382.000
209.387;  126.100;  392.000;  350.000
209.533; -107.400; -321.000; -350.000
209.678;  163.200;  472.000;  543.000
209.823; -133.400; -408.000; -310.000
209.969; -199.300; -860.000; -757.000
210.114; -231.100; -907.000; -719.000
210.259; -247.800; -939.000; -889.000
210.404;  -20.400; -171.000;  103.000
210.549;   39.200;  108.000;    3.000
210.695;  -51.100;   -3.000;  -95.000
210.840;   86.000;   94.000;   67.000
210.985; -127.800; -484.000; -303.000
211.130;  152.400;  268.000;  406.000
211.275;   19.800;  207.000;  199.000
211.420;  -82.100; -300.000; -289.000
211.566; -141.600; -536.000; -489.000
211.711;   62.100;  218.000;  157.000
211.856; -110.800; -545.000; -519.000
212.001;   25.300;  151.000;   44.000
212.146;    6.900;  153.000;   49.000
212.291;  -32.700; -210.000; -186.000
212.436;  -63.600; -280.000;   -6.000
212.581; -188.500; -685.000; -653.000
212.726; -177.200; -487.000; -538.000
212.871; -102.700; -552.000; -217.000
213.016; -347.900;-1172.000;-1029.000
213.161;  141.200;  406.000;  291.000
213.306; -145.500; -435.000; -577.000
213.451; -210.300; -778.000; -689.000
213.596; -108.300; -455.000; -347.000
213.741; -137.000; -448.000; -538.000
213.886; -164.300; -498.000; -517.000
214.031;  -50.300; -294.000; -124.000
214.176; -104.800; -408.000; -341.000
214.321;  -11.000; -296.000; -157.000
214.466;  -56.200; -163.000;  -43.000
214.611;  -12.000;  -61.000;  -10.000
214.756; -264.600; -948.000; -858.000
214.901;  -19.800; -388.000; -226.000
215.046; -274.900; -797.000; -825.000
215.191;   49.400;  128.000;   35.000
215.336;  -33.600; -157.000;  -19.000
215.480; -168.400; -684.000; -505.000
215.625;  -11.300; -175.000;  -19.000
215.770; -181.100; -757.000; -662.000
215.915;  -24.700;   -5.000;  -97.000
216.060;  -25.400; -113.000;  -21.000
216.205; -229.200; -731.000; -779.000
216.349; -171.300; -470.000; -533.000
216.494; -293.600; -939.000; -867.000
216.639; -224.700; -823.000; -888.000
216.784; -194.900; -577.000; -525.000
216.929;  119.200;  392.000;  281.000
217.073;  -21.800; -244.000;  -31.000
217.218;   13.900;   78.000;  -47.000
217.363; -183.200; -656.000; -618.000
217.507; -155.600; -623.000; -588.000
217.652; -273.700; -845.000; -874.000
217.797; -201.100; -708.000; -659.000
217.942; -240.000; -856.000; -720.000
218.086;  150.700;  608.000;  539.000
218.231;  -38.900; -174.000;  -26.000
218.376;  -54.300; -337.000; -229.000
218.520;  -18.000;  -41.000;   96.000
218.665;  -69.000; -338.000; -204.000
218.810;  -98.100; -275.000; -233.000
218.954;   27.400;  201.000;   35.000
219.099; -200.900; -713.000; -963.000
219.243; -142.000; -589.000; -554.000
219.388;  -66.500; -264.000; -136.000
219.532;  -20.700; -116.000; -116.000
219.677; -185.400; -564.000; -521.000
219.822;   11.800;   33.000;   89.000
219.966;   17.400;   17.000;  -99.000
220.111;  -75.300; -328.000;  -40.000
220.255; -211.100; -797.000; -750.000
220.400;  -21.700; -180.000; -146.000
220.544; -153.200; -516.000; -450.000
220.689;  -88.100; -422.000; -451.000
220.833;  -53.000; -123.000;  -58.000
220.978;  -96.200; -393.000; -563.000
221.122;   72.600;  319.000;  307.000
221.267; -215.700; -906.000; -837.000
221.411; -161.000; -478.000; -394.000
221.555;    6.400; -104.000;  -23.000
221.700; -129.300; -329.000; -222.000
221.844;   94.200;  255.000;  272.000
221.989;  -92.200; -328.000; -311.000
222.133;  -59.300; -289.000; -307.000
222.277;   -9.100;    5.000;   78.000
222.422;   16.600;  227.000;  113.000
222.566;  -95.700; -381.000; -214.000
222.711; -139.900; -414.000; -479.000
222.855; -171.800; -643.000; -586.000
222.999; -142.600; -642.000; -717.000
223.144;  -34.700; -195.000; -194.000
223.288;  122.800;  423.000;  251.000
223.432;   26.100;  184.000;  230.000
223.576;   42.400;  152.000;  -21.000
223.721;  109.900;  364.000;  273.000
223.865; -112.500; -472.000; -475.000
224.009;  548.100; 1673.000; 1631.000
224.153; -192.300; -660.000; -671.000
224.298; -133.900; -531.000; -489.000
224.442;  -23.000;  -74.000;  -33.000
224.586;  -28.800; -169.000; -106.000
224.730; -198.500; -858.000; -670.000
224.875; -235.400; -739.000; -688.000
225.019;   46.900;  102.000;  188.000
225.163;  130.400;  208.000;  341.000
225.307;   51.900;   97.000;  -91.000
225.451;   87.100;  360.000;  481.000
225.595;   58.100;  264.000;  176.000
225.739;  -52.400; -170.000;  -94.000
225.884;   24.100;   86.000;    5.000
226.028; -212.000; -760.000; -626.000
226.172;  -67.800; -260.000; -273.000
226.316; -284.800; -941.000; -902.000
226.460; -122.300; -645.000; -493.000
226.604; -108.700; -406.000; -400.000
226.748; -207.000; -836.000; -733.000
226.892;  -90.500; -227.000; -181.000
227.036;  -86.900; -537.000; -447.000
227.180; -132.900; -551.000; -375.000
227.324; -122.300; -561.000; -580.000
227.468; -251.200; -819.000; -717.000
227.612;   23.400;  242.000;  -28.000
227.756; -205.900; -845.000; -698.000
227.900;  116.700;  342.000;  441.000
228.044; -155.600; -509.000; -290.000
228.188;  135.200;  448.000;  568.000
228.332; -185.900; -546.000; -472.000
228.476;  -39.800; -223.000; -149.000
228.620;  -54.800; -210.000; -150.000
228.764;  145.600;  431.000;  349.000
228.908;  -49.900; -155.000;   30.000
229.052; -106.700; -615.000; -528.000
229.195;  -33.700; -172.000;   13.000
229.339;  -48.300; -235.000; -305.000
229.483;  -39.100;    5.000; -162.000
229.627;   42.800; -156.000;  139.000
229.771; -114.100; -218.000; -294.000
229.915;    9.300;  230.000;   79.000
230.059; -183.000; -648.000; -663.000
230.202;  -89.300; -370.000; -317.000
230.346;  -43.100; -107.000;  107.000
230.490; -132.900; -489.000; -521.000
230.634; -225.700; -736.000; -553.000
230.777;  147.400;  478.000;  509.000
230.921; -118.200; -450.000; -359.000
231.065;  -87.200; -246.000; -286.000
231.209;   60.000;  261.000;  265.000
231.352;   50.800;   54.000;   40.000
231.496;   43.200;  568.000;  188.000
231.640; -182.900; -693.000; -621.000
231.783;  126.600;  546.000;  525.000
231.927; -101.400; -294.000; -365.000
232.071; -257.900; -962.000; -736.000
232.214; -225.800; -980.000; -764.000
232.358; -232.500; -683.000; -599.000
232.502;   17.700;  -19.000;    7.000
232.645; -300.200;-1090.000; -927.000
232.789;  -43.800; -257.000; -218.000
232.933;  -98.800; -407.000; -224.000
233.076; -269.700;-1038.000; -897.000
233.220; -227.800; -752.000; -777.000
233.363; -151.300; -669.000; -477.000
233.507;  134.600;  371.000;  129.000
233.650; -180.200; -764.000; -834.000
233.794;  105.200;  438.000;  461.000
233.938; -133.000; -530.000; -362.000
234.081;  -61.500;  -93.000;   31.000
234.225; -138.800; -631.000; -539.000
234.368; -242.200; -773.000; -723.000
234.512; -109.300; -385.000; -299.000
234.655; -185.400; -582.000; -555.000
234.798; -138.200; -493.000; -466.000
234.942; -305.800; -884.000;-1002.000
235.085; -155.500; -651.000; -443.000
235.229; -142.000; -405.000; -410.000
235.372; -112.900; -247.000; -191.000
235.516; -135.100; -397.000; -321.000
235.659;   95.500;   92.000;  121.000
235.802;  -36.000;  -38.000;  -22.000
235.946;   97.000;  335.000;  215.000
236.089;   55.700;  126.000;  250.000
236.233;  133.800;  275.000;  298.000
236.376; -132.400; -235.000; -378.000
236.519;  -82.800; -297.000; -319.000
236.663;  -62.700; -215.000; -117.000
236.806; -285.500;-1029.000; -999.000
236.949;  143.500;  543.000;  431.000
237.092;  115.700;  412.000;  391.000
237.236; -186.500; -589.000; -502.000
237.379;  170.700;  352.000;  428.000
237.522; -245.600; -879.000; -768.000
237.666;  -25.300; -271.000;   18.000
237.809; -276.400; -851.000; -823.000
237.952;   78.700;  469.000;  271.000
238.095; -141.900; -447.000; -442.000
238.238;  208.400;  688.000;  700.000
238.382;   44.000;  166.000;  103.000
238.525; -149.600; -598.000; -511.000
238.668; -303.200;-1060.000; -985.000
238.811; -175.200; -638.000; -643.000
238.954; -130.100; -483.000; -334.000
239.097;  239.000;  617.000;  664.000
239.241;   47.800;  394.000;  326.000
239.384;  -66.500; -254.000; -214.000
239.527; -132.600; -424.000; -224.000
239.670; -299.200; -994.000;-1091.000
239.813; -234.300; -696.000; -658.000
239.956;  169.400;  579.000;  473.000
240.099; -252.100; -778.000; -725.000
240.242;  151.500;  428.000;  432.000
240.385;  101.600;  466.000;  450.000
240.528; -141.500; -706.000; -473.000
240.671;   41.700;  189.000;  134.000
240.814;  -74.700; -441.000; -158.000
240.957; -199.900; -767.000; -578.000
241.100; -189.600; -779.000; -755.000
241.243; -314.600;-1234.000; -893.000
241.386; -136.700; -508.000; -379.000
241.529; -157.700; -735.000; -547.000
241.672; -111.200; -566.000; -495.000
241.815; -257.400; -832.000; -808.000
241.958;  -58.900; -125.000; -182.000
242.101; -142.900; -545.000; -390.000
242.244;  -84.700; -270.000; -325.000
242.387; -113.200; -304.000; -246.000
242.530;  119.900;  470.000;  134.000
242.673;  -88.000; -381.000; -309.000
242.815; -249.700; -925.000; -899.000
242.958; -132.400; -482.000; -381.000
243.101;   55.100;  132.000;  187.000
243.244; -161.100; -564.000; -521.000
243.387;  -70.900; -313.000; -316.000
243.530; -232.400; -657.000; -674.000
243.672;    8.300;   43.000;  -92.000
243.815;  -98.200; -355.000; -283.000
243.958;   -7.000;   98.000;  -26.000
244.101;    4.600;   59.000;  -16.000
244.243;  -27.600;  -47.000;  101.000
244.386; -239.500; -761.000; -630.000
244.529;  -65.300; -132.000; -139.000
244.672; -327.100;-1154.000; -951.000
244.814; -240.700; -621.000; -794.000
244.957; -100.900; -380.000; -304.000
245.100; -152.500; -489.000; -489.000
245.242; -120.500; -387.000; -374.000
245.385;  -29.000;  -59.000;  -39.000
245.528; -253.500; -871.000; -705.000
245.670;  184.900;  612.000;  634.000
245.813; -158.900; -599.000; -547.000
245.956;  -61.000; -324.000; -275.000
246.098; -155.300; -508.000; -650.000
246.241;   33.200;  194.000;   48.000
246.383;  -41.000; -119.000;  -73.000
246.526; -146.600; -454.000; -525.000
246.669; -229.900; -889.000; -780.000
246.811;   44.900;  172.000;   -1.000
246.954; -116.900; -512.000; -426.000
247.096;  -38.300;  -84.000;   -6.000
247.239; -137.900; -482.000; -445.000
247.381; -157.700; -647.000; -488.000
247.524;  208.300;  645.000;  679.000
247.666;   11.200;   58.000;   11.000
247.809; -252.700; -887.000; -691.000
247.951;  -15.100;  -75.000;  138.000
248.094;   81.400;  432.000;  308.000
248.236; -328.300;-1262.000;-1238.000
248.378;   -3.200; -356.000;  -81.000
248.521;  -24.800; -334.000; -337.000
248.663;  -87.600; -236.000; -267.000
248.806;  -52.100; -300.000; -266.000
248.948; -206.500; -886.000; -763.000
249.090;  -87.000; -428.000; -398.000
249.233; -126.800; -344.000; -381.000
249.375; -123.400; -474.000; -451.000
249.518;  -59.000;  -83.000; -133.000
249.660;   -3.400; -103.000;    3.000
249.802; -358.300;-1303.000;-1189.000
249.945; -157.200; -612.000; -540.000
250.087; -222.900; -834.000; -768.000
250.229;  -88.100; -362.000; -480.000
250.371; -156.600; -494.000; -439.000
250.514; -108.500; -310.000; -244.000
250.656; -139.400;   69.000;  102.000
250.798; -236.400; -849.000; -800.000
250.940; -100.200; -322.000; -322.000
251.083;  -50.300; -335.000; -111.000
251.225;  124.400;  338.000;  310.000
251.367; -118.300; -274.000; -373.000
251.509;  -76.700; -265.000; -210.000
251.651; -197.900; -731.000; -671.000
251.794;   88.700;  538.000;  632.000
251.936; -197.400; -821.000; -747.000
252.078; -160.300; -540.000; -461.000
252.220; -130.300; -645.000; -477.000
252.362;  135.700;  344.000;  462.000
252.504; -124.400; -677.000; -584.000
252.646; -234.200; -875.000; -722.000
252.788;   22.100;   14.000; -128.000
252.931;  -82.100; -257.000; -253.000
253.073;  -66.300; -376.000; -317.000
253.215;   21.100;  141.000;  122.000
253.357;   -2.300;   82.000; -153.000
253.499;  -98.000; -374.000; -234.000
253.641; -153.700; -749.000; -594.000
253.783; -196.500; -609.000; -527.000
253.925; -170.900; -586.000; -591.000
254.067; -209.900; -744.000; -667.000
254.209;  -62.400; -391.000; -259.000
254.351; -292.000; -865.000; -883.000
254.493;  -96.400; -441.000; -417.000
254.635; -229.400; -936.000; -818.000
254.777; -175.200; -752.000; -687.000
254.918; -159.400; -512.000; -430.000
255.060; -129.600; -551.000; -395.000
255.202; -112.000; -473.000; -261.000
255.344; -149.700; -658.000; -455.000
255.486; -159.700; -471.000; -406.000
255.628; -220.000; -780.000; -781.000
255.770; -156.700; -676.000; -536.000
255.912; -101.700; -559.000; -468.000
256.053; -187.700; -730.000; -508.000
256.195;  334.800; 1008.000;  903.000
256.337; -212.200; -861.000; -595.000
256.479;  150.500;  532.000;  416.000
256.621;  -92.700; -394.000; -212.000
256.762; -202.700; -789.000; -742.000
256.904;  140.600;  485.000;  487.000
257.046;  -67.800; -381.000; -271.000
257.188;  -89.400; -351.000; -264.000
257.329; -107.600; -525.000; -464.000
257.471; -237.900; -939.000; -807.000
257.613;  -95.600; -584.000; -498.000
257.755; -302.600;-1073.000; -982.000
257.896;  101.300;  286.000;  392.000
258.038; -136.400; -403.000; -352.000
258.180;  -91.300; -354.000; -279.000
258.321; -157.800; -581.000; -457.000
258.463;   16.600;  -71.000;  133.000
258.605; -171.900; -562.000; -570.000
258.746; -206.700; -886.000; -772.000
258.888; -331.200;-1026.000;-1020.000
259.029;   39.700;  121.000;   -8.000
259.171; -195.700; -614.000; -550.000
259.313;   24.600;  -49.000;  -47.000
259.454; -144.100; -536.000; -414.000
259.596; -113.900; -483.000; -390.000
259.737; -149.100; -590.000; -474.000
259.879;   75.800;  217.000;  311.000
260.020;  168.900;  901.000;  636.000
260.162;  -28.400; -146.000; -253.000
260.303; -253.700; -768.000; -687.000
260.445; -160.700; -609.000; -613.000
260.586;   78.100;  392.000;  157.000
260.728;  -62.100; -360.000; -248.000
260.869; -115.800; -350.000; -343.000
261.011;  172.900;  706.000;  537.000
261.152; -113.400; -479.000; -319.000
261.293; -165.200; -576.000; -595.000
261.435;  -34.700; -219.000; -184.000
261.576; -104.700; -455.000; -325.000
261.718;  152.800;  420.000;  470.000
261.859; -256.800; -940.000; -949.000
262.000; -264.400; -951.000;-1016.000
262.142;  -24.100;  -52.000;  -60.000
262.283; -217.600; -808.000; -691.000
262.424; -138.700; -666.000; -625.000
262.566; -290.800;-1161.000; -983.000
262.707; -220.300; -840.000; -830.000
262.848; -262.300; -769.000; -726.000
262.990;  -70.400; -362.000; -345.000
263.131;  159.400;  650.000;  681.000
263.272;   -1.200;  -61.000;  -41.000
263.413; -224.900; -589.000; -561.000
263.555; -113.900; -669.000; -143.000
263.696; -144.100; -550.000; -641.000
263.837;  -99.700; -449.000; -551.000
263.978;    5.500;   -5.000;  -77.000
264.119;  -66.100; -283.000; -264.000
264.261; -217.700; -847.000; -630.000
264.402;   10.300;   33.000;   40.000
264.543; -165.000; -509.000; -524.000
264.684;  -13.800;   61.000;  -50.000
264.825; -140.000; -816.000; -538.000
264.966;   17.400;  -84.000;  -67.000
265.107; -228.100; -646.000; -670.000
265.248; -241.800; -825.000; -812.000
265.390;    6.000;  152.000;   -9.000
265.531;  -37.200; -238.000; -107.000
265.672; -209.500; -557.000; -630.000
265.813;  143.000;  563.000;  439.000
265.954; -309.600; -959.000; -940.000
266.095;   -5.900; -372.000; -322.000
266.236; -174.500; -686.000; -548.000
266.377;  -74.800; -243.000; -297.000
266.518; -149.700; -619.000; -547.000
266.659;   82.400;  170.000;  268.000
266.800;   24.700;   83.000;   85.000
266.941; -141.300; -487.000; -478.000
267.082;   63.600;  354.000;   99.000
267.223;  -88.300; -344.000; -273.000
267.364; -216.200; -892.000; -686.000
267.504;   -4.300;    3.000;  135.000
267.645;   14.700;  160.000;   67.000
267.786;  -39.800; -147.000;  -86.000
267.927; -151.700; -473.000; -379.000
268.068;  -48.100; -186.000;  -61.000
268.209; -112.100; -175.000; -413.000
268.350; -108.500; -388.000; -532.000
268.490; -182.000; -648.000; -521.000
268.631;   90.400;  127.000;  225.000
268.772; -241.500; -874.000; -647.000
268.913;  -69.300; -328.000; -476.000
269.054;  -12.000; -117.000;   12.000
269.194;  -90.900; -418.000; -402.000
269.335; -326.100;-1137.000;-1074.000
269.476;    9.900;   33.000;  -35.000
269.617;  -83.600; -347.000; -392.000
269.757; -179.400; -713.000; -646.000
269.898; -213.300; -856.000; -613.000
270.039; -119.100; -415.000; -405.000
270.180; -301.000; -952.000; -816.000
270.320;  -29.300; -190.000; -250.000
270.461;  -63.900; -277.000; -249.000
270.602;  -30.600; -186.000; -156.000
270.742; -289.600; -868.000; -943.000
270.883; -122.300; -442.000; -390.000
271.023; -102.800; -358.000; -357.000
271.164; -120.700; -607.000; -528.000
271.305; -174.900; -666.000; -654.000
271.445; -159.700; -722.000; -683.000
271.586; -160.500; -462.000; -283.000
271.726;  -98.400; -397.000; -322.000
271.867; -150.200; -594.000; -534.000
272.008;  303.600; -473.000; -285.000
272.148;  235.800;  462.000;  468.000
272.289;   15.100; -113.000; -181.000
272.429;   17.400;   19.000;  185.000
272.570; -185.800; -633.000; -737.000
272.710; -206.700; -825.000; -775.000
272.851;  -12.400;  113.000; -130.000
272.991; -357.400;-1173.000;-1077.000
273.131; -137.000; -419.000; -459.000
273.272; -206.200; -683.000; -723.000
273.412;    1.300; -143.000;  -31.000
273.553; -106.200; -488.000; -507.000
273.693;  259.300;  913.000;  858.000
273.834; -221.300; -894.000; -692.000
273.974; -149.700; -664.000; -615.000
274.114; -226.600; -772.000; -560.000
274.255;  167.800;  414.000;  373.000
274.395;   10.400; -180.000; -125.000
274.535;  106.800;  199.000;  350.000
274.676;   42.800;  225.000;   94.000
274.816;   30.600;  110.000;   34.000
274.956; -178.100; -624.000; -690.000
275.097; -166.800;-1014.000; -922.000
275.237; -204.200; -913.000; -803.000
275.377; -192.400; -778.000; -689.000
275.517; -304.400; -878.000; -937.000
275.658; -133.100; -590.000; -555.000
275.798; -123.800; -606.000; -413.000
275.938;   82.900;  215.000;  323.000
276.078; -178.600; -626.000; -395.000
276.218;    0.200;   99.000;  104.000
276.359; -241.600;-1026.000;-1024.000
276.499; -138.600; -605.000; -446.000
276.639;  -50.000; -305.000; -151.000
276.779;  -78.200; -475.000; -357.000
276.919; -210.800; -783.000; -624.000
277.059;  -53.200; -261.000; -212.000
277.199;  -93.300; -357.000; -259.000
277.340;  133.600;  287.000;  175.000
277.480; -224.700; -840.000; -693.000
277.620;   65.900;  192.000;   16.000
277.760; -398.000;-1533.000;-1294.000
277.900;   19.500;  113.000;   33.000
278.040;   41.100;  137.000;  159.000
278.180;   97.300;  270.000;  170.000
278.320;   19.800;   21.000;   56.000
278.460; -106.200; -443.000; -469.000
278.600; -180.200; -708.000; -598.000
278.740;  132.200;  448.000;  224.000
278.880; -169.600; -768.000; -791.000
279.020;   11.200; -194.000; -144.000
279.160; -208.700; -672.000; -595.000
279.300; -202.900; -926.000; -873.000
279.440; -195.700; -709.000; -622.000
279.579;  -78.300;-1014.000; -929.000
279.719; -137.800; -410.000; -394.000
279.859;  112.300;   -4.000;   41.000
279.999;   51.000; -208.000;  101.000
280.139;   -4.700; -435.000; -387.000
280.279; -151.900; -708.000; -745.000
280.419;   18.100; -229.000; -147.000
280.559;  -34.900; -259.000; -180.000
280.698; -153.300; -790.000; -639.000
280.838; -181.200; -778.000; -800.000
280.978; -203.300; -846.000; -790.000
281.118; -214.000; -811.000; -704.000
281.257;   46.200;   24.000;    6.000
281.397; -255.900;-1094.000; -960.000
281.537; -168.800; -599.000; -712.000
281.677;  -31.900; -150.000; -101.000
281.816; -134.300; -700.000; -630.000
281.956;  -83.000; -193.000; -257.000
282.096; -119.100; -539.000; -396.000
282.235; -235.300; -672.000; -638.000
282.375;   -2.200; -243.000;  -98.000
282.515; -183.100; -715.000; -707.000
282.654;   69.100;   29.000;  106.000
282.794;   87.300;  388.000;  244.000
282.934;  -71.700; -530.000; -491.000
283.073; -262.900;-1030.000; -857.000
283.213; -104.400; -460.000; -467.000
283.353;  -81.200; -408.000; -349.000
283.492;  -48.000; -264.000; -296.000
283.632;  -74.400; -254.000; -168.000
283.771; -182.100; -859.000; -730.000
283.911;  -97.900; -369.000; -260.000
284.050; -213.900; -794.000; -748.000
284.190; -332.100;-1229.000;-1096.000
284.329; -282.100;-1055.000; -964.000
284.469; -170.600; -516.000; -591.000
284.608;  -89.500; -559.000; -598.000
284.748; -151.700; -614.000; -570.000
284.887;   -1.300;  -87.000;  -20.000
285.027; -211.200; -844.000; -892.000
285.166;  -50.700; -192.000; -249.000
285.306;   18.200; -116.000;  -33.000
285.445;  -70.100; -229.000; -343.000
285.584; -167.000; -630.000; -494.000
285.724;  -31.700; -282.000; -322.000
285.863; -242.700; -857.000; -507.000
286.002;  -92.100; -366.000; -276.000
286.142; -213.000; -715.000; -622.000
286.281; -131.800; -525.000; -493.000
286.420; -156.100; -554.000; -417.000
286.560;  197.000;  653.000;  623.000
286.699; -273.000; -958.000; -912.000
286.838; -148.600; -590.000; -591.000
286.978; -193.500; -533.000; -537.000
287.117; -276.600;-1085.000; -950.000
287.256;  -89.400; -228.000; -211.000
287.395;  -93.500; -197.000; -378.000
287.535; -113.500; -370.000; -298.000
287.674; -129.900; -509.000; -484.000
287.813;  115.200;  661.000;  533.000
287.952; -247.600;-1010.000; -871.000
288.091; -300.100;-1049.000; -915.000
288.231;   54.300;   13.000;   15.000
288.370; -345.500;-1217.000;-1200.000
288.509; -153.200; -728.000; -645.000
288.648; -158.700; -770.000; -548.000
288.787;  -37.800; -243.000;  -87.000
288.926; -124.400; -454.000; -475.000
289.065;  261.600;  859.000;  672.000
289.204;  -91.500; -377.000; -217.000
289.344; -192.800; -791.000; -690.000
289.483;   31.400;  416.000;  304.000
289.622;  -30.500; -291.000; -149.000
289.761;  -15.400; -309.000; -166.000
289.900; -196.600; -785.000; -626.000
290.039;  -27.700;  -12.000;  -95.000
290.178;  -74.700; -274.000; -180.000
290.317; -158.400; -618.000; -479.000
290.456; -120.500; -463.000; -451.000
290.595; -287.500; -961.000; -833.000
290.734; -264.200; -904.000; -891.000
290.873; -131.700; -456.000; -420.000
291.011; -232.600; -833.000; -843.000
291.150; -207.000; -770.000; -682.000
291.289;  -31.200; -343.000; -110.000
291.428; -181.700; -599.000; -480.000
291.567;  -86.600; -370.000; -442.000
291.706;    2.400;  109.000;  154.000
291.845; -158.400; -597.000; -505.000
291.984; -326.600;-1234.000;-1061.000
292.122;  187.600;  602.000;  582.000
292.261;  103.100;  620.000;  463.000
292.400;  -27.300; -144.000;  211.000
292.539; -249.000; -959.000; -813.000
292.678;  -64.900; -325.000; -300.000
292.816; -296.000;-1136.000; -965.000
292.955; -161.900; -844.000; -684.000
293.094;  -26.200; -173.000; -337.000
293.233; -109.400; -556.000; -400.000
293.371;  -51.600; -225.000;  -84.000
293.510; -229.900; -866.000; -780.000
293.649; -255.200; -959.000; -924.000
293.787; -180.100;-1083.000;-1012.000
293.926;    2.800; -113.000;  -32.000
294.065;  -81.000; -379.000; -290.000
294.203;  146.800;  298.000;  406.000
294.342;   60.600;   74.000;  156.000
294.481;12292.300;51180.000; -836.000
294.619;  -50.500; -425.000; -582.000
294.758; -299.200;-1230.000;-1137.000
294.896;  107.800; -125.000;    5.000
295.035; -279.200;-1040.000;-1006.000
295.174; -267.500;-1082.000; -954.000
295.312;  -75.900; -323.000; -203.000
295.451;  -27.200; -307.000; -428.000
295.589; -104.800; -389.000; -518.000
295.728;   48.700; -292.000; -165.000
295.866;   23.700;  -36.000;  -51.000
296.005; -122.600; -584.000; -341.000
296.143; -149.700; -558.000; -596.000
296.282; -183.300; -957.000; -881.000
296.420; -170.300; -657.000; -557.000
296.559; -169.200; -892.000; -633.000
296.697;  -26.800; -847.000; -665.000
296.835;    2.600;-1141.000;-1002.000
296.974;  114.300;  -23.000;   39.000
297.112;   11.100; -443.000; -504.000
297.251; -139.900; -815.000; -755.000
297.389;  113.300; -576.000; -438.000
297.527;   48.900; -145.000;  -83.000
297.666;  -84.200; -486.000; -438.000
297.804; -110.600; -404.000; -264.000
297.942;   18.000; -136.000; -161.000
298.081;   -1.700; -183.000;   63.000
298.219;  120.400;  -17.000;  -19.000
298.357;   75.100; -144.000;  -71.000
298.495;   17.300; -810.000; -812.000
298.634;   87.500;  245.000;  219.000
298.772;  102.300; -220.000; -338.000
298.910;  -40.300; -309.000; -182.000
299.048;   23.500; -130.000; -153.000
299.187;  -47.000; -350.000; -250.000
299.325;   59.500;   52.000;  122.000
299.463;   48.700; -389.000; -299.000
299.601;  155.200; -327.000; -271.000
299.739; -231.100; -908.000; -883.000
299.877; -134.600; -791.000; -703.000
300.016; -132.900;-1095.000; -935.000
300.154;  255.000;  -19.000; -161.000
300.292;   46.900; -428.000; -348.000
300.430;   12.700; -408.000; -291.000
300.568; -208.400; -940.000; -874.000
300.706;  -53.200; -366.000; -469.000
300.844; -183.900;-1108.000; -979.000
300.982;  240.000;  246.000;  282.000
301.120; -223.300; -965.000; -866.000
301.258; -129.500; -812.000; -705.000
301.396;   68.300;  104.000;  -41.000
301.534;  123.300; -218.000; -293.000
301.672;  -53.700; -664.000; -521.000
301.810;  -53.900; -613.000; -545.000
301.948;  225.000;   53.000;  149.000
302.086;  951.700; -250.000;  -32.000
302.224; 1399.100; -610.000; -585.000
302.362;   72.500; -558.000; -622.000
302.500; -112.800; -923.000; -893.000
302.638;  202.100;  128.000;  245.000
302.776;    3.800; -352.000; -408.000
302.913;  114.000;  447.000;  236.000
303.051;   14.900;  -86.000;  -23.000
303.189;  125.800;   90.000;  118.000
303.327;  -42.100; -341.000; -256.000
303.465; -160.700; -832.000; -588.000
303.603; -173.800; -805.000; -604.000
303.740;  211.800;  417.000;  241.000
303.878;  -28.400; -800.000; -759.000
304.016; -195.500; -915.000; -790.000
304.154; -256.500;-1123.000;-1152.000
304.291;  -76.100; -505.000; -554.000
304.429;   61.300;  102.000;   74.000
304.567; -244.300; -908.000; -893.000
304.705;  -96.600; -408.000; -515.000
304.842;   65.500; -616.000; -540.000
304.980;  148.300;  215.000;   35.000
305.118;   65.700; -367.000; -365.000
305.255; -160.000; -945.000; -927.000
305.393;   95.800;  178.000;  239.000
305.531; -238.700;-1173.000; -956.000
305.668; -119.100; -663.000; -582.000
305.806;  133.700; -358.000; -439.000
305.943;  158.300; -629.000; -637.000
306.081;   83.600; -378.000; -267.000
306.219; -188.300; -863.000; -748.000
306.356;   50.100;  158.000;   27.000
306.494;  300.700;  981.000;  761.000
306.631;   53.200;  -11.000;  -55.000
306.769;    9.600; -613.000; -485.000
306.906;  -13.900; -284.000; -258.000
307.044; -104.000; -473.000; -488.000
307.181;  -96.300; -410.000; -332.000
307.319;   59.200;  112.000;   87.000
307.456; -316.800;-1191.000;-1153.000
307.594; -185.700; -980.000; -727.000
307.731;   -7.500; -371.000; -164.000
307.868;   48.100;  -15.000;   20.000
308.006; -234.400; -961.000; -847.000
308.143;  -90.400; -618.000; -330.000
308.281;  335.900;  -37.000; -254.000
308.418;   16.800; -748.000; -640.000
308.555; -158.800; -400.000; -250.000
308.693; -164.600; -577.000; -573.000
308.830; -197.700; -712.000; -657.000
308.967;    3.100; -215.000;  -95.000
309.105;  -42.700; -507.000; -396.000
309.242;  108.500; -468.000; -367.000
309.379;  668.600; -577.000; -655.000
309.517;  -89.400; -936.000; -948.000
309.654; -213.300; -910.000; -734.000
309.791; -121.400; -662.000; -580.000
309.928; -224.800; -977.000; -914.000
310.065;  366.700;  819.000;  697.000
310.203;  -48.100; -825.000; -850.000
310.340;   11.800; -465.000; -321.000
310.477; -167.200; -412.000; -516.000
310.614; -133.300; -383.000; -473.000
310.751; -140.300; -427.000; -518.000
310.889;    4.600;    1.000;   11.000
311.026; -274.900;-1161.000; -939.000
311.163;  -49.400; -386.000; -380.000
311.300; -126.000; -512.000; -479.000
311.437; -106.500; -658.000; -619.000
311.574; -313.800;-1226.000; -985.000
311.711;  -96.000; -595.000; -433.000
311.848;  -57.500; -380.000; -388.000
311.985;   42.400;  270.000;   93.000
312.122; -228.100; -932.000; -762.000
312.259; -199.700; -941.000; -994.000
312.396; -105.500; -508.000; -551.000
312.533; -160.000; -812.000; -790.000
312.670; -268.400;-1070.000; -898.000
312.807;  -22.900; -352.000; -367.000
312.944; -119.600; -513.000; -611.000
313.081;   -5.300; -150.000; -415.000
313.218; -192.500;-1111.000; -867.000
313.355;    1.700; -531.000; -449.000
313.492;   -4.700; -455.000; -292.000
313.629;  306.300;  815.000;  735.000
313.766; -289.100;-1176.000;-1008.000
313.902;   27.300; -186.000;   21.000
314.039;  -63.000; -372.000; -289.000
314.176;   78.600;  286.000;  192.000
314.313; -127.400; -569.000; -473.000
314.450; -134.500; -788.000; -684.000
314.587; -129.800; -468.000; -480.000
314.723;   24.700;  -78.000;  130.000
314.860;  124.200;  318.000;  332.000
314.997;   68.500;  223.000;  142.000
315.134;  -61.100; -385.000; -368.000
315.270;  -84.300; -480.000; -496.000
315.407; -220.700;-1094.000; -967.000
315.544;  -59.000; -657.000; -538.000
315.681; -137.100; -681.000; -565.000
315.817;   79.100; -133.000; -176.000
315.954;    6.800; -613.000; -392.000
316.091; -223.400;-1045.000;-1023.000
316.227;  -26.000;  -71.000; -179.000
316.364;   47.600;   23.000;    6.000
316.500;  -65.200; -113.000; -300.000
316.637;  -78.500; -181.000; -302.000
316.774; -181.600; -625.000; -358.000
316.910; -165.300; -598.000; -629.000
317.047; -128.100; -487.000; -351.000
317.183;  -80.200; -435.000; -566.000
317.320;   -4.900; -367.000; -321.000
317.456;  -97.400; -733.000; -805.000
317.593; -187.200; -598.000; -641.000
317.729;   50.600;  168.000;  -67.000
317.866; -404.700;-1434.000;-1285.000
318.002; -162.800; -708.000; -948.000
318.139; -210.400; -883.000; -867.000
318.275; -216.600;-1003.000; -738.000
318.412; -121.200; -517.000; -336.000
318.548;  -81.400; -751.000; -720.000
318.685; -212.600; -985.000; -888.000
318.821; -155.700; -762.000; -735.000
318.957;  -14.200;   34.000;  -23.000
319.094;  119.400;  297.000;  154.000
319.230; -184.500; -756.000; -742.000
319.367;  197.700; -471.000; -520.000
319.503;   94.400; -538.000; -436.000
319.639; -180.400; -877.000; -793.000
319.775; -154.600; -750.000; -685.000
319.912;  -89.000; -424.000; -519.000
320.048; -208.800;-1184.000;-1184.000
320.184;  237.900;   59.000;   70.000
320.321; -133.400; -497.000; -467.000
320.457;  191.400;  475.000;  662.000
320.593; -128.000; -375.000; -382.000
320.729; -205.600; -732.000; -734.000
320.866; -161.300; -577.000; -635.000
321.002; -148.500; -759.000; -809.000
321.138;  -14.800; -135.000; -211.000
321.274;  184.800; -148.000; -115.000
321.410;  -43.000; -585.000; -353.000
321.546; -104.900;-1011.000; -911.000
321.683;  124.000;  400.000;  185.000
321.819;   50.800;  -48.000; -117.000
321.955; -223.800; -743.000; -722.000
322.091;  -70.500; -585.000; -540.000
322.227;  -17.800; -382.000; -202.000
322.363;    4.200; -320.000; -215.000
322.499;  -81.400; -343.000; -331.000
322.635;  314.200;  636.000;  443.000
322.771;   55.300; -139.000;   12.000
322.907;  191.300;  129.000;  327.000
323.043;  -50.200; -115.000; -206.000
323.179;  -61.000; -394.000; -363.000
323.315;  -14.000; -401.000; -371.000
323.451;  153.900; -328.000; -236.000
323.587;  116.900;  -60.000;  -77.000
323.723;   15.700; -682.000; -601.000
323.859;  -36.100; -258.000;  -76.000
323.995;  -40.000; -467.000; -409.000
324.131; -228.200; -967.000; -892.000
324.267;  -52.800; -254.000; -276.000
324.402; -272.100; -960.000; -983.000
324.538;   -7.600; -279.000; -104.000
324.674;   77.600;  164.000;   77.000
324.810;  234.900;  226.000;  308.000
324.946;   17.100; -810.000; -658.000
325.082; -146.400; -568.000; -475.000
325.217;   -4.000;  -62.000;   16.000
325.353; -181.100; -764.000; -659.000
325.489; -169.900; -540.000; -506.000
325.625; -123.900; -579.000; -525.000
325.760;  146.700;  517.000;  376.000
325.896;  -28.200; -515.000; -702.000
326.032;  -91.000; -403.000; -352.000
326.168;  -80.000; -462.000; -369.000
326.303; -110.900; -352.000; -461.000
326.439;   -1.400; -336.000; -276.000
326.575;   29.500; -190.000;  -29.000
326.710;   19.000; -156.000;  -30.000
326.846;    5.200;  146.000;  103.000
326.982; -153.200; -530.000; -548.000
327.117; -119.900; -481.000; -442.000
327.253; -171.800; -745.000; -742.000
327.388; -306.700;-1137.000;-1153.000
327.524;  -95.100; -811.000; -578.000
327.659;   -5.800;  -58.000;  -22.000
327.795;    9.700;   69.000;   45.000
327.931; -144.900; -723.000; -499.000
328.066;   -6.900; -417.000; -276.000
328.202;    8.300;   12.000; -129.000
328.337;  251.100;  957.000;  713.000
328.473;  -25.300;  -12.000;  -74.000
328.608;  -36.000; -256.000; -267.000
328.743; -186.000; -799.000; -664.000
328.879;   92.800;  214.000;  114.000
329.014;  -99.500; -102.000; -122.000
329.150; -150.000; -358.000; -483.000
329.285; -110.300; -465.000; -466.000
329.421;  -78.900; -548.000; -246.000
329.556;    7.700;  -36.000;   85.000
329.691; -152.800; -633.000; -615.000
329.827; -144.200; -626.000; -480.000
329.962;  -60.800;  131.000; -301.000
330.097; -151.500; -673.000; -585.000
330.233;  -81.700; -410.000; -223.000
330.368; -246.100; -839.000; -628.000
330.503;   29.100;    3.000;   98.000
330.638;   55.200;  -93.000; -125.000
330.774; -105.700; -609.000; -530.000
330.909;  -75.000; -434.000; -244.000
331.044; -162.000; -714.000; -708.000
331.179; -354.200;-1217.000;-1109.000
331.315;   66.900;   77.000;   20.000
331.450;   67.000;  157.000;  285.000
331.585; -146.600; -805.000; -706.000
331.720; -169.700; -510.000; -460.000
331.855;   10.200;  -35.000; -102.000
331.990;  518.700;   62.000;  138.000
332.126;  332.700; -110.000;   71.000
332.261;   17.300; -379.000; -265.000
332.396;   15.500; -135.000; -242.000
332.531; -176.900;-1074.000;-1031.000
332.666;  109.200; -519.000; -363.000
332.801; -196.500; -726.000; -807.000
332.936;  -12.400; -192.000; -122.000
333.071; -287.900; -870.000; -817.000
333.206;   67.200;  307.000;  379.000
333.341;  128.100;  344.000;  418.000
333.476; -132.900; -627.000; -623.000
333.611;  -64.500; -251.000; -173.000
333.746;  -48.100; -381.000; -464.000
333.881; -217.300; -973.000; -935.000
334.016; -245.900; -936.000; -917.000
334.151; -262.500; -746.000; -702.000
334.286;   98.400;  152.000;  186.000
334.421;  -26.200; -125.000; -178.000
334.556; -152.500; -611.000; -567.000
334.690; -179.800; -631.000; -577.000
334.825;  114.900;  381.000;   83.000
334.960;  -91.900; -285.000; -413.000
335.095;   10.100;  135.000;  -91.000
335.230; -215.100; -722.000; -738.000
335.365; -275.100;-1084.000; -990.000
335.499; -290.400;-1108.000;-1037.000
335.634;   44.600;    9.000;  534.000
335.769; -198.000; -755.000; -720.000
335.904; -100.200; -603.000; -561.000
336.038; -120.900; -735.000; -657.000
336.173; -213.800;-1206.000;-1194.000
336.308;   29.300; -116.000; -189.000
336.443;   18.500; -544.000; -634.000
336.577; -152.900; -936.000; -787.000
336.712;  138.700;   -4.000;  -12.000
336.847; -101.800; -724.000; -607.000
336.981;  102.100; -272.000; -208.000
337.116;  513.600;  615.000;  501.000
337.250;  220.200; -434.000; -421.000
337.385;  578.900; -297.000; -208.000
337.520;  269.500; -632.000; -603.000
337.654;  -56.600; -215.000; -126.000
337.789; -225.000; -989.000; -933.000
337.923;  -13.400; -104.000; -205.000
338.058; -170.200; -673.000; -738.000
338.192;  -56.400; -611.000; -488.000
338.327;   19.900;  -18.000; -155.000
338.461; -149.900; -299.000; -469.000
338.596; -155.400; -780.000; -638.000
338.730; -192.100; -767.000; -803.000
338.865;  259.900;  -46.000; -140.000
338.999;  -87.700; -846.000; -702.000
339.134;  -21.500; -634.000; -536.000
339.268;   46.500; -741.000; -603.000
339.403;  783.900; -740.000; -775.000
339.537;  277.100; -894.000; -820.000
339.671; -185.900; -829.000; -813.000
339.806;  -80.100; -556.000; -512.000
339.940;   73.900; -261.000; -235.000
340.074; -173.700; -685.000; -510.000
340.209;  -46.100; -351.000; -230.000
340.343; -198.800; -517.000; -573.000
340.477;  372.000;  998.000; 1036.000
340.612;  -78.000;-1033.000; -900.000
340.746;  356.000; -199.000; -243.000
340.880; -144.500; -924.000; -785.000
341.014;   11.700;  -45.000; -154.000
341.149; -201.000; -756.000; -718.000
341.283; -191.400; -839.000; -754.000
341.417; -215.500;-1124.000; -938.000
341.551;  178.300; -768.000; -708.000
341.685;  -77.000; -633.000; -611.000
341.820;  -83.300; -562.000; -493.000
341.954;  -97.100; -218.000; -349.000
342.088; -297.700;-1102.000;-1019.000
342.222;   82.400;  565.000;  618.000
342.356;  -65.700; -395.000; -335.000
342.490; -192.200; -880.000; -841.000
342.624;  -43.900; -339.000; -242.000
342.758;   -1.600; -364.000; -312.000
342.892; -134.900; -710.000; -585.000
343.026;  -54.800;  -58.000; -116.000
343.160;  -91.700; -426.000; -376.000
343.294; -154.500; -474.000; -337.000
343.428;  -44.600; -488.000; -448.000
343.562;  -29.900; -172.000;  -23.000
343.696;  -27.900; -385.000; -314.000
343.830;  -23.700; -362.000; -356.000
343.964;   47.600; -231.000; -168.000
344.098; 1319.000;  199.000;   70.000
344.232; 1116.600; -266.000; -127.000
344.366;  169.600; -567.000; -453.000
344.500;   50.600; -665.000; -744.000
344.634;   18.600; -324.000; -164.000
344.768;  -21.500; -531.000; -341.000
344.902;   86.200;  278.000;  256.000
345.035; -103.800; -556.000; -496.000
345.169; -267.900; -933.000; -656.000
345.303;  -68.700; -308.000; -482.000
345.437; -205.500; -826.000; -717.000
345.571; -118.600; -675.000; -594.000
345.704; -101.100; -309.000; -532.000
345.838;   10.600; -331.000; -284.000
345.972;  -81.100; -543.000; -495.000
346.106;  415.200; -179.000; -190.000
346.239;  786.000; -312.000; -243.000
346.373;   26.900; -343.000; -302.000
346.507; -260.000; -950.000; -962.000
346.640;  222.300;  -30.000;   13.000
346.774; -128.900; -650.000; -797.000
346.908;   20.800; -138.000;  -11.000
347.041; -183.500; -646.000; -593.000
347.175;   58.000;  259.000;   27.000
347.309; -147.200; -698.000; -628.000
347.442; -187.500; -883.000; -732.000
347.576;  489.400;  670.000;  668.000
347.709;  319.800; -123.000;  -52.000
347.843; -223.200; -933.000; -825.000
347.976;  142.700;  235.000;  294.000
348.110; -371.000;-1268.000;-1186.000
348.243; -181.800; -679.000; -772.000
348.377;   52.700;  -26.000;   60.000
348.510;  142.000;  403.000;  540.000
348.644;  -36.000;  -37.000; -159.000
348.777;   50.200;  180.000;  191.000
348.911;  -67.700; -142.000; -112.000
349.044;  309.200;  471.000;  448.000
349.178;  137.600;-1069.000;-1006.000
349.311;  250.300;  141.000;  255.000
349.444;   -9.800; -927.000; -813.000
349.578;  -34.800; -347.000; -200.000
349.711; -193.800; -959.000; -862.000
349.845;  -24.900; -661.000; -591.000
349.978; -330.000;-1224.000;-1137.000
350.111; -134.800; -546.000; -612.000
350.244; -158.800; -596.000; -700.000
350.378;   22.900; -392.000; -393.000
350.511;  -83.200; -393.000; -426.000
350.644; -167.700; -808.000; -806.000
350.778;   50.300;  168.000;  104.000
350.911;   89.800;  134.000;  140.000
351.044; -171.600; -685.000; -615.000
351.177;  -21.300; -321.000; -281.000
351.310;  -22.200;    3.000; -131.000
351.444; -152.500; -888.000; -788.000
351.577;  226.000;  140.000;   90.000
351.710;  250.800;  593.000;  417.000
351.843;  -41.300; -165.000;  -77.000
351.976;   61.500;  149.000;  -79.000
352.109; -177.400; -621.000; -612.000
352.242;  -54.300; -464.000; -419.000
352.376; -127.800; -580.000; -636.000
352.509;  230.500; -437.000; -356.000
352.642;  -73.100; -654.000; -604.000
352.775;  125.800; -141.000;  -98.000
352.908; -223.200; -933.000; -904.000
353.041; -193.500; -814.000; -824.000
353.174; -115.300; -551.000; -424.000
353.307; -163.000; -753.000; -764.000
353.440;  188.000;  541.000;  453.000
353.573; -163.000; -957.000;-1008.000
353.706;  -88.000; -384.000; -558.000
353.839;  -30.900; -264.000; -220.000
353.971; -180.300; -657.000; -512.000
354.104; -148.500; -896.000; -835.000
354.237; -102.400; -627.000; -662.000
354.370; -175.400; -846.000; -879.000
354.503; -356.500;-1231.000;-1308.000
354.636;  -49.300; -529.000; -348.000
354.769; -264.800; -937.000; -860.000
354.902;    7.600; -230.000; -139.000
355.034;   23.000; -164.000; -220.000
355.167;   25.100; -262.000; -162.000
355.300; -172.100;-1061.000; -880.000
355.433; 2076.200;  -71.000;  -14.000
355.565; 3226.800; -402.000; -384.000
355.698;  810.500; -356.000; -296.000
355.831;  -30.300; -882.000; -801.000
355.964;  132.900; -285.000; -170.000
356.096; -142.500; -856.000; -843.000
356.229;   14.500; -523.000; -530.000
356.362;  693.900; -373.000; -266.000
356.494; 1311.200; -229.000; -162.000
356.627;  787.800;  269.000;  377.000
356.760; 1392.400;  120.000;   53.000
356.892; 2032.700; -286.000; -601.000
357.025; 1101.800;  403.000;  389.000
357.157;  962.300; -167.000; -179.000
357.290; 1501.000; -856.000; -713.000
357.423;  409.200; -667.000; -556.000
357.555;  214.400; -217.000; -228.000
357.688;  177.600; -483.000; -364.000
357.820;  621.600; -870.000; -877.000
357.953; 5619.300; -563.000; -589.000
358.085; 1132.600; -632.000; -612.000
358.218; 1497.100;-1131.000; -932.000
358.350;  322.100;  -58.000;  312.000
358.483; -283.700;-1300.000;-1187.000
358.615;  -75.900;-1182.000;-1078.000
358.747; -178.700;-1187.000;-1058.000
358.880;  -14.600; -810.000; -744.000
359.012;   -6.800; -376.000; -202.000
359.145;  -45.500; -480.000; -511.000
359.277;   33.000; -962.000; -913.000
359.409; 4590.800;  536.000;  231.000
359.542; 1119.900; -738.000; -688.000
359.674;  125.600;   46.000;   13.000
359.806; -102.100; -565.000; -438.000
359.939;  -46.300; -617.000; -516.000
360.071;   13.300; -583.000; -579.000
360.203;   16.000; -411.000; -364.000
360.335;  123.200;  164.000;  -16.000
360.468;  322.600; -249.000; -307.000
360.600; 3835.400; -547.000; -454.000
360.732; 6057.900; -546.000; -423.000
360.864;  785.700;-1216.000;-1044.000
360.996;  400.900; -516.000; -554.000
361.129;   58.300; -389.000; -598.000
361.261;   83.100;  110.000; -113.000
361.393;  -49.900; -252.000; -214.000
361.525;  106.100;   94.000;  244.000
361.657; -146.600; -821.000; -703.000
361.789;   29.800; -139.000; -155.000
361.921;  336.700; -642.000; -593.000
362.053;  449.700;  524.000;  541.000
362.185;  106.200;  288.000;   72.000
362.318; -147.900; -709.000; -705.000
362.450;  234.200;  294.000;  444.000
362.582;   50.100; -913.000; -870.000
362.714;  -20.500; -353.000; -332.000
362.846; -138.500; -606.000; -490.000
362.978; -277.100; -941.000; -811.000
363.109;   70.600; -161.000; -260.000
363.241;  673.700; -739.000; -749.000
363.373;  957.000; -649.000; -564.000
363.505; 1494.000; -186.000;  -91.000
363.637;  368.400; -787.000; -601.000
363.769; -261.100;-1067.000;-1080.000
363.901; -119.800; -596.000; -654.000
364.033; -217.600;-1103.000;-1062.000
364.165;   21.900; -283.000; -283.000
364.296;  168.600; -316.000; -177.000
364.428;  156.900;-1344.000;-1220.000
364.560; -106.100; -679.000; -661.000
364.692; -114.800; -738.000; -835.000
364.824;  346.400; -588.000; -456.000
364.955;  883.800; -402.000; -564.000
365.087; 2138.600;-1097.000; -852.000
365.219;   89.900; -686.000; -816.000
365.351; -102.900; -526.000; -572.000
365.482;  135.600;  300.000;  240.000
365.614;  -74.800; -402.000; -314.000
365.746; -177.800; -729.000; -752.000
365.877; -170.400; -706.000; -672.000
366.009;  634.400;  -35.000;  -62.000
366.141; -168.600;-1249.000;-1134.000
366.272; -179.400; -803.000; -719.000
366.404; -202.800;-1005.000; -874.000
366.535;   32.200; -139.000;  -12.000
366.667; -180.700; -644.000; -649.000
366.799;  133.500;  353.000;  203.000
366.930; -230.400; -862.000; -996.000
367.062;  307.700; -639.000; -613.000
367.193;  364.800; -872.000; -842.000
367.325; -142.800; -580.000; -684.000
367.456;   48.400; -246.000;   31.000
367.588;  378.900; -371.000; -318.000
367.719;   92.500;  -44.000;  -45.000
367.851;    7.600; -222.000; -241.000
367.982; -154.000; -875.000; -732.000
368.113;  144.200; -475.000; -358.000
368.245; -237.500; -960.000; -841.000
368.376;  -18.900; -254.000; -302.000
368.508;  -54.900; -188.000; -263.000
368.639; -259.600;-1166.000;-1034.000
368.770;  -60.800; -670.000; -589.000
368.902; -151.700; -836.000; -926.000
369.033; -196.200; -906.000; -855.000
369.164;  -53.500; -720.000; -653.000
369.296; -207.000; -452.000; -601.000
369.427;   -3.100; -209.000; -144.000
369.558; -114.300; -593.000; -377.000
369.689; -117.200; -721.000; -569.000
369.821; -210.800; -951.000; -845.000
369.952;   17.300;   42.000; -108.000
370.083;  -71.100; -229.000; -108.000
370.214; -149.900; -735.000; -650.000
370.345;   19.100;   65.000;   81.000
370.477; -163.600; -810.000; -790.000
370.608;  338.100; -328.000; -264.000
370.739; -154.700;-1233.000;-1292.000
370.870; -130.700;-1102.000; -923.000
371.001;  180.000; -378.000; -467.000
371.132; -138.900; -754.000; -735.000
371.263;    7.600;  -42.000; -148.000
371.394; -244.900; -841.000; -748.000
371.525;  117.600;  345.000;  225.000
371.657; -172.500; -808.000; -670.000
371.788;  144.300;  103.000;  199.000
371.919;  219.600; -384.000; -304.000
372.050; 5420.000;  -91.000; -156.000
372.181; 1532.300; -188.000; -294.000
372.311;  569.800;   42.000; -127.000
372.442;    8.200; -457.000; -451.000
372.573;  -31.500; -444.000; -340.000
372.704; -257.300;-1008.000; -980.000
372.835;  117.500; -228.000; -289.000
372.966;  -97.300; -646.000; -554.000
373.097; -121.400; -575.000; -711.000
373.228;  -72.400; -717.000; -542.000
373.359;  131.600; -824.000; -536.000
373.490; 1361.400; -881.000; -727.000
373.620; 1650.100;-1001.000; -803.000
373.751; 2581.700; -332.000; -396.000
373.882; 1018.400; -663.000; -733.000
374.013;  121.400; -449.000; -262.000
374.143;  -91.200; -581.000; -659.000
374.274; -198.300; -987.000; -908.000
374.405;  309.000; -388.000; -276.000
374.536;  612.300; -526.000; -387.000
374.666; 1483.500; -759.000; -807.000
374.797;  276.000; -817.000; -868.000
374.928; 1234.400; -710.000; -560.000
375.058; 1276.200; -535.000; -500.000
375.189;  141.300;  -59.000;  -93.000
375.320; -226.000; -928.000;-1034.000
375.450;  -89.700; -625.000; -616.000
375.581;  -96.700; -526.000; -436.000
375.712;  -49.600; -574.000; -250.000
375.842;  439.600; -438.000; -415.000
375.973;  276.600; -554.000; -513.000
376.103; -116.900; -665.000; -648.000
376.234; -164.600; -531.000; -552.000
376.364;  -97.000; -944.000; -867.000
376.495;  561.800;  925.000;  529.000
376.625;  -21.100; -472.000; -485.000
376.756;   46.900; -709.000; -678.000
376.886; -162.100;-1178.000;-1026.000
377.017;  150.600;-1048.000;-1061.000
377.147;  768.300; -786.000; -782.000
377.278;  158.500;  174.000;  228.000
377.408; -229.100; -801.000; -815.000
377.538; -185.500; -707.000; -693.000
377.669; -131.800; -537.000; -613.000
377.799; -149.000; -645.000; -635.000
377.929; -106.900; -610.000; -428.000
378.060; -236.400; -781.000; -847.000
378.190;  -53.800; -726.000; -531.000
378.320;  -75.400; -401.000; -406.000
378.451;   11.000; -131.000;  -22.000
378.581;   21.700;  -67.000; -110.000
378.711;  328.100; 1035.000;  866.000
378.841;  -43.600; -533.000; -675.000
378.972; -158.700; -871.000; -751.000
379.102;  -16.700; -652.000; -579.000
379.232;  -26.600; -126.000;  -73.000
379.362; -227.200;-1001.000; -885.000
379.492;  -11.700; -373.000; -424.000
379.623;  195.600;    0.000;  111.000
379.753; -196.500;-1107.000; -974.000
379.883;  301.400;   59.000;  156.000
380.013;  -96.000;-1081.000;-1017.000
380.143; -207.900;-1097.000;-1056.000
380.273; -214.700; -985.000; -861.000
380.403;   19.700; -344.000; -257.000
380.533;  -70.500; -651.000; -664.000
380.663;  157.400;  173.000;  128.000
380.793; -216.000;-1027.000;-1074.000
380.923;   -2.700; -103.000;  -34.000
381.053; -186.400; -613.000; -623.000
381.183;  -23.200; -106.000; -248.000
381.313;   60.000; -656.000; -470.000
381.443;   58.400; -692.000; -473.000
381.573;  282.500; -402.000; -409.000
381.703;  313.900;-1249.000;-1095.000
381.833; -282.200;-1454.000;-1336.000
381.963;  217.100; -134.000;  -87.000
382.093; 2015.200; -925.000; -909.000
382.223;  603.000; -713.000; -602.000
382.353;  -74.000; -801.000; -608.000
382.482;  486.700;-1091.000; -964.000
382.612; 1143.900; -872.000; -644.000
382.742;  614.800; -695.000; -622.000
382.872;  363.800; -565.000; -551.000
383.002;  187.100;  347.000; -132.000
383.131;  -15.500; -226.000; -160.000
383.261;  -33.600; -706.000; -768.000
383.391;  570.600; -552.000; -377.000
383.521; 7062.600;  451.000;  263.000
383.650; 1685.900; -947.000; -904.000
383.780;   20.300; -783.000; -656.000
383.910;  270.600;  880.000;  802.000
384.039;   19.900; -794.000; -656.000
384.169;  205.100;-1205.000;-1017.000
384.299;  -34.100; -650.000; -662.000
384.428; -167.100; -764.000; -680.000
384.558;  -54.200; -308.000; -275.000
384.687;  -63.000; -414.000; -334.000
384.817;   84.500;   75.000;   -2.000
384.947;   43.300; -234.000; -141.000
385.076;  589.700;  982.000;  912.000
385.206;  211.300;  369.000;  480.000
385.335;  -59.400; -549.000; -417.000
385.465; -175.300; -655.000; -663.000
385.594;  243.300;  -53.000;  -44.000
385.724;  541.700; -868.000; -838.000
385.853;  175.700; -296.000; -270.000
385.982; 2012.700; -743.000; -787.000
386.112; 2962.500;-1052.000; -871.000
386.241;  192.300; -307.000; -312.000
386.371;   77.600; -174.000;  -87.000
386.500;  -21.300; -825.000; -789.000
386.629;   66.400; -874.000; -817.000
386.759;  152.600;  -43.000;   68.000
386.888;    3.300; -170.000; -250.000
387.017; -123.000; -648.000; -620.000
387.147; -195.400; -771.000; -798.000
387.276;  -21.400; -410.000; -397.000
387.405;   55.200; -398.000; -342.000
387.535;  -83.900; -452.000; -361.000
387.664;  -92.900; -692.000; -620.000
387.793;  100.900; -198.000; -113.000
387.922;  784.200;  255.000;  200.000
388.052;    4.600; -576.000; -423.000
388.181;   21.600; -342.000; -472.000
388.310;  -58.800; -889.000; -710.000
388.439;  -95.700; -749.000; -742.000
388.568;  316.300;  365.000;  244.000
388.697; 1520.900; -756.000; -653.000
388.826;  246.200; -768.000; -666.000
388.956;   55.500; -285.000; -307.000
389.085;  -69.000; -347.000; -287.000
389.214; -173.200; -842.000; -872.000
389.343; -131.600; -645.000; -413.000
389.472;  958.400;  126.000;  149.000
389.601; 1030.600;   91.000;    0.000
389.730;   28.100; -568.000; -687.000
389.859;  157.400;  226.000;   46.000
389.988;  326.100; -423.000; -408.000
390.117;  242.500; -168.000; -146.000
390.246;  -12.700; -331.000; -320.000
390.375;  119.100; -673.000; -626.000
390.504;  -95.200; -703.000; -621.000
390.633; -193.100; -672.000; -726.000
390.761; -126.000; -732.000; -645.000
390.890;   79.300;   -4.000; -130.000
391.019;  -55.600; -421.000; -441.000
391.148; -217.000; -826.000; -855.000
391.277;  -97.400; -576.000; -493.000
391.406; -188.300; -821.000; -805.000
391.534;   71.800;  574.000; -301.000
391.663; -108.900; -583.000; -645.000
391.792; -162.300; -673.000; -701.000
391.921;  152.100;   -3.000;   15.000
392.050;  232.500; -287.000; -228.000
392.178; -148.100;-1206.000;-1061.000
392.307;  197.500; -758.000; -712.000
392.436;   91.600; -427.000; -641.000
392.564;   78.400;  166.000;   -6.000
392.693; -177.400; -860.000; -682.000
392.822;  282.000; -529.000; -534.000
392.950;   72.000; -880.000; -714.000
393.079;  503.800; -188.000; -328.000
393.208;   42.000; -488.000; -511.000
393.336;   31.600; -170.000; -145.000
393.465;  -45.400; -317.000; -199.000
393.593;   94.000;   62.000;   79.000
393.722; -250.700;-1121.000; -916.000
393.850;   -6.800; -188.000;  -61.000
393.979; -270.200; -926.000; -805.000
394.107;  -82.800; -517.000; -537.000
394.236;  -62.500; -570.000; -507.000
394.364;  505.700;  383.000;  206.000
394.493;  694.100; -911.000; -767.000
394.621;   12.900; -955.000; -916.000
394.750; 1678.700; -873.000; -923.000
394.878; 6668.700; -247.000; -149.000
395.007; 8507.400; -721.000; -807.000
395.135;  598.700; -790.000; -721.000
395.263; -165.900;-1038.000;-1040.000
395.392;   61.000;  -25.000; -107.000
395.520; -236.100; -818.000; -679.000
395.648; -185.700; -865.000; -915.000
395.777;  -44.800; -366.000; -405.000
395.905;  -83.500; -449.000; -564.000
396.033;  110.400;  217.000;  172.000
396.162; 1194.900; -399.000; -453.000
396.290;  973.800;  -17.000;   -2.000
396.418;  128.300; -555.000; -514.000
396.546; -179.700; -571.000; -466.000
396.674; -189.500; -850.000; -878.000
396.803;   40.200;  -72.000;  -23.000
396.931;  138.000; -179.000; -199.000
397.059;  -26.500;-1026.000; -989.000
397.187; -215.000;-1026.000; -975.000
397.315; -237.300; -884.000; -649.000
397.443; -142.700; -592.000; -443.000
397.572; -132.400; -578.000; -424.000
397.700;  -22.700; -607.000; -614.000
397.828;   34.900;  120.000;  -90.000
397.956;  -39.100; -508.000; -478.000
398.084;  -88.600; -767.000; -626.000
398.212;   87.900;  137.000;  124.000
398.340;   53.400;  -56.000;  159.000
398.468;   71.100; -390.000; -169.000
398.596; -250.800; -993.000; -953.000
398.724; -202.500; -762.000; -767.000
398.852; -301.500;-1024.000; -976.000
398.980;  -87.600; -560.000; -560.000
399.108;  -84.900; -982.000; -735.000
399.236;  106.600;   13.000;    8.000
399.363;   35.600;  222.000;  196.000
399.491; -104.800; -404.000; -398.000
399.619; -234.700; -829.000; -800.000
399.747; -191.400; -859.000; -771.000
399.875;  169.400;  220.000;  234.000
400.003;  -80.700; -359.000; -284.000
400.130; -128.700; -421.000; -341.000
400.258;   -8.900;  -83.000;   38.000
400.386;  -74.000; -352.000; -168.000
400.514;  -89.900; -526.000; -587.000
400.641; -168.400; -928.000; -802.000
400.769; -248.800; -979.000; -888.000
400.897; -222.300; -838.000; -793.000
401.025;   -0.900; -166.000; -152.000
401.152;   21.500;  220.000;   38.000
401.280; -115.200; -430.000; -429.000
401.408; -189.900; -712.000; -576.000
401.535; -204.800; -735.000; -758.000
401.663; -360.800;-1134.000;-1054.000
401.790; -121.700; -514.000; -525.000
401.918;  175.800;  436.000;  405.000
402.046;   37.400;  134.000;  122.000
402.173;  -41.400;  -18.000;    7.000
402.301; -113.400; -519.000; -397.000
402.428;  148.100;  528.000;  383.000
402.556; -248.300;-1188.000; -913.000
402.683;  -23.000;  -20.000;   -1.000
402.811;    9.700;  -37.000; -206.000
402.938;   20.900;   20.000;   27.000
403.066;  280.400; -574.000; -558.000
403.193;  477.500;  299.000;  239.000
403.321;  409.300; -396.000; -574.000
403.448;  484.100;   83.000;   27.000
403.575;  232.300;  -90.000;  -46.000
403.703; -161.800; -732.000; -557.000
403.830;  -71.600; -531.000; -496.000
403.957; -238.700;-1117.000;-1023.000
404.085;   82.800;  -61.000; -172.000
404.212;  229.600;  -50.000;   63.000
404.339;  663.800; -566.000; -306.000
404.467;13304.400; -612.000; -524.000
404.594; 7573.100; -287.000; -227.000
404.721; 1579.600; -869.000; -764.000
404.848;  181.100; -113.000; -202.000
404.976; -188.100; -856.000; -783.000
405.103;   32.900;  -14.000;  -82.000
405.230;   37.900;  190.000;  226.000
405.357;  106.600;  117.000;   44.000
405.484;  645.400;  -49.000;    5.000
405.612;  125.900; -548.000; -563.000
405.739;  -72.400; -488.000; -243.000
405.866;  216.100;  669.000;  385.000
405.993;  -39.600; -398.000; -102.000
406.120; -241.900; -801.000; -887.000
406.247;  -79.100; -323.000; -342.000
406.374;  755.700;  540.000;  629.000
406.501;  122.500; -632.000; -702.000
406.628; -102.800; -621.000; -589.000
406.755; -182.800; -803.000; -620.000
406.882;  -68.900; -228.000; -277.000
407.009; -173.800; -719.000; -628.000
407.136;  100.000; -480.000; -401.000
407.263;  127.000; -939.000; -829.000
407.390; -108.800; -692.000; -614.000
407.517; -314.000;-1139.000;-1187.000
407.644;  -83.600; -332.000; -256.000
407.771;  -86.600; -249.000; -287.000
407.898;   67.000;  168.000;  328.000
408.025;  -86.600; -421.000; -313.000
408.151;   61.800;   82.000;  153.000
408.278;  -87.300; -267.000; -216.000
408.405; -203.300; -931.000; -899.000
408.532; -104.400; -549.000; -542.000
408.659; -169.400; -677.000; -648.000
408.785; -344.300;-1298.000;-1170.000
408.912;  -74.600; -412.000; -296.000
409.039; -184.800; -610.000; -686.000
409.166; -141.000; -591.000; -555.000
409.292; -166.600; -571.000; -534.000
409.419; -165.600; -665.000; -649.000
409.546; -117.700; -431.000; -192.000
409.672; -159.100; -713.000; -545.000
409.799;   14.800;  -36.000;   34.000
409.926;  -24.700; -180.000; -179.000
410.052; -321.700;-1127.000;-1091.000
410.179;  -91.300; -368.000; -392.000
410.305; -149.600; -375.000; -493.000
410.432;  -58.100; -220.000; -333.000
410.558; -164.600; -305.000; -380.000
410.685; -188.900; -688.000; -431.000
410.812; -157.200; -409.000; -588.000
410.938; -229.900; -964.000; -808.000
411.065; -170.300; -671.000; -645.000
411.191;  -24.800; -189.000; -174.000
411.317; -213.600; -823.000; -742.000
411.444;  -71.400; -317.000; -246.000
411.570;  -96.600; -339.000; -294.000
411.697; -203.900; -758.000; -752.000
411.823; -315.200; -989.000; -999.000
411.949;  -20.600;  -56.000;   17.000
412.076; -189.600; -539.000; -519.000
412.202; -187.300; -758.000; -757.000
412.329; -242.900; -798.000; -752.000
412.455; -197.800; -821.000; -657.000
412.581;    1.200;  -15.000;  172.000
412.707;  -94.300; -540.000; -457.000
412.834;   44.400;  156.000;  219.000
412.960; -117.400; -785.000; -784.000
413.086; -181.700; -743.000; -701.000
413.212;  310.100;  604.000;  578.000
413.339; -146.700; -685.000; -701.000
413.465;   -6.000; -364.000; -310.000
413.591; -179.500; -757.000; -474.000
413.717;  -30.200; -358.000; -366.000
413.843; -245.200; -839.000; -861.000
413.969;  -63.100;  -47.000; -292.000
414.096; -157.900; -679.000; -679.000
414.222;   58.800;  -33.000;   85.000
414.348;  -52.800; -652.000; -385.000
414.474;  185.800;   38.000;  -52.000
414.600;   -4.600; -126.000; -144.000
414.726;   14.500;  -96.000;  -55.000
414.852;  -74.900; -365.000; -342.000
414.978;  163.200;  104.000;  -18.000
415.104;  116.300;   38.000;   80.000
415.230;   72.900; -329.000; -330.000
415.356;   99.700; -409.000; -514.000
415.482;  435.900;   13.000;  -35.000
415.608;  675.800; -247.000; -323.000
415.734; 2141.100;   67.000;   38.000
415.860;44626.200; -875.000; -767.000
415.986;29033.400; -685.000; -607.000
416.111; 2442.700; -798.000; -652.000
416.237;  531.200; -424.000; -571.000
416.363; 2840.400; -765.000; -733.000
416.489; 9186.800; -324.000; -251.000
416.615;  960.600; -707.000; -742.000
416.741;   22.500; -677.000; -784.000
416.866; -162.300; -673.000; -736.000
416.992; -181.300; -801.000; -818.000
417.118;   -6.500;  -41.000;  -80.000
417.244;  -99.400; -798.000; -531.000
417.369; -136.400; -801.000; -612.000
417.495;   23.800; -325.000; -254.000
417.621; -134.100;-1015.000; -803.000
417.746;   83.300; -579.000; -572.000
417.872;  157.200; -254.000; -144.000
417.998;  174.900; -515.000; -530.000
418.123; 2704.500;-1073.000; -845.000
418.249;11872.500; -512.000; -601.000
418.374; 1534.900; -916.000; -824.000
418.500;  300.500; -383.000; -482.000
418.626;  316.300;   70.000;  -59.000
418.751;  296.700; -549.000; -448.000
418.877;  520.800; -637.000; -643.000
419.002; 4455.900; -688.000; -560.000
419.128;28254.800; -930.000; -721.000
419.253; 6179.400; -967.000; -837.000
419.379;  905.000; -391.000; -338.000
419.504;  875.800;  325.000;  415.000
419.629; 1227.900; -393.000; -212.000
419.755; 8957.600; -317.000; -254.000
419.880;46925.800;  -98.000;   67.000
420.006;25888.000; -280.000; -221.000
420.131;60752.700; -662.000; -775.000
420.256; 7878.600; -315.000; -316.000
420.382; 1129.700; -665.000; -687.000
420.507;  182.600; -649.000; -778.000
420.632;  152.800; -337.000; -339.000
420.758;  312.300; -251.000; -425.000
420.883; -140.800; -876.000; -672.000
421.008; -178.000; -775.000; -619.000
421.133; -121.400; -509.000; -467.000
421.259;  -33.500; -325.000; -259.000
421.384; -220.800; -834.000; -693.000
421.509; -110.300;-1052.000; -862.000
421.634; 1486.100; -936.000; -820.000
421.759;  597.500; -359.000; -327.000
421.885; -115.900; -717.000; -656.000
422.010; -114.300; -673.000; -542.000
422.135; -278.900; -695.000; -727.000
422.260;  141.500;  340.000;  280.000
422.385;  -25.700;   12.000;  -98.000
422.510;   70.100;  151.000;  -26.000
422.635;   50.600;  -87.000;  -43.000
422.760;  171.600; -766.000; -791.000
422.885;  126.300;  -57.000;  -80.000
423.010;   21.700; -112.000; -169.000
423.135; -142.500; -481.000; -561.000
423.260;   -7.600; -150.000; -245.000
423.385;  175.600;  476.000;  222.000
423.510;   86.500;   71.000;  -22.000
423.635;  160.600;  133.000;   45.000
423.760;  167.100;  383.000;  328.000
423.885;  157.500;  336.000;  391.000
424.010;   78.400;  -68.000;  -13.000
424.135;    8.800;    5.000;  -33.000
424.259; -136.400; -654.000; -457.000
424.384;  -80.200; -279.000; -272.000
424.509;   -7.400; -260.000; -186.000
424.634; -161.200; -761.000; -623.000
424.759;  -32.900; -688.000; -544.000
424.883;   11.600; -506.000; -527.000
425.008;  433.100; -502.000; -410.000
425.133; 4573.400; -679.000; -653.000
425.258; 1874.700; -517.000; -381.000
425.382; 1706.300; -867.000; -774.000
425.507; 3844.600; -487.000; -543.000
425.632;  743.000; -802.000; -663.000
425.756; 1045.400; -256.000; -146.000
425.881;16512.100; -831.000; -857.000
426.006;39708.000; -604.000; -355.000
426.130; 5551.100; -696.000; -508.000
426.255;  773.100; -611.000; -491.000
426.379;  373.800; -189.000; -577.000
426.504;  893.600;  660.000;  544.000
426.629; 9191.800; -519.000; -466.000
426.753; 5579.300;   64.000;  -46.000
426.878;  726.500; -252.000; -288.000
427.002;  423.800; -651.000; -668.000
427.127; 3817.600;  -35.000; -158.000
427.251;25554.700;  372.000;  401.000
427.375; 6306.600; -191.000; -173.000
427.500; 3645.200; -616.000; -610.000
427.624; 1070.400; -234.000; -400.000
427.749;  211.000; -216.000; -225.000
427.873;  -47.500; -499.000; -412.000
427.997;  -10.400; -222.000; -230.000
428.122;  198.000;  795.000;  703.000
428.246;  194.700;  433.000;  434.000
428.371; -233.300; -869.000; -773.000
428.495; -114.800; -624.000; -646.000
428.619;  -19.300; -186.000; -117.000
428.743;   90.900;   65.000;  132.000
428.868;   22.100; -732.000; -643.000
428.992; 2136.500; -219.000; -326.000
429.116;  759.800; -329.000; -357.000
429.240;  448.600;  419.000;  426.000
429.365;  -37.900; -454.000; -574.000
429.489;  -35.000; -638.000; -647.000
429.613;  100.300; -236.000; -177.000
429.737;  157.100; -563.000; -432.000
429.861;  652.300; -247.000; -133.000
429.985;13131.500; -425.000; -305.000
430.109;12896.800; -770.000; -908.000
430.234; 1476.700;   76.000;  -50.000
430.358;  172.900; -250.000; -160.000
430.482;  -90.300; -672.000; -564.000
430.606;  -80.900; -655.000; -375.000
430.730;   28.500; -437.000; -388.000
430.854;  141.200; -909.000; -835.000
430.978; -129.300; -795.000; -764.000
431.102; -118.700; -499.000; -422.000
431.226; -191.300; -874.000; -815.000
431.350;   81.000;  345.000;  422.000
431.474;  -89.700; -661.000; -373.000
431.597; -293.100;-1060.000; -848.000
431.721;  -81.100; -276.000; -267.000
431.845; -219.900; -704.000; -472.000
431.969; -118.600; -304.000; -349.000
432.093; -139.000; -395.000; -317.000
432.217;   51.300;   32.000;   82.000
432.341; -125.100; -523.000; -518.000
432.464;  103.700;   96.000;   40.000
432.588;  286.500; -401.000; -329.000
432.712;  184.100;  -52.000;  -52.000
432.836;  126.100;  213.000;  263.000
432.959;   57.500; -372.000; -311.000
433.083;  252.600;   11.000;    2.000
433.207;  914.000;  285.000;  930.000
433.330;12111.400; -391.000; -200.000
433.454;13469.300; -654.000; -638.000
433.578; 7837.300;  583.000;  278.000
433.701; 1278.100; -623.000; -675.000
433.825;  270.800; -292.000; -299.000
433.949;  290.200;   28.000;  -72.000
434.072;   29.900; -410.000; -323.000
434.196;   34.100; -309.000; -117.000
434.319; 8056.800;25482.000;25124.000
434.443; 1681.000; -656.000; -603.000
434.566; 5722.800;  281.000;   62.000
434.690;  927.600; -637.000; -383.000
434.813;  158.500; -251.000; -173.000
434.937;  -98.100; -569.000; -696.000
435.060;  -66.300; -423.000; -332.000
435.184;  349.800; -492.000; -217.000
435.307;  221.400;  159.000;  102.000
435.431;    5.900;  -40.000;   24.000
435.554; -112.000; -399.000; -240.000
435.677; -103.900; -350.000; -258.000
435.801;  -25.900;  -25.000;   49.000
435.924;    8.200;    1.000;  -67.000
436.048; -233.700;-1019.000; -732.000
436.171;  -68.800; -240.000;  -66.000
436.294;   21.100; -248.000; -229.000
436.417;  273.400; -963.000; -849.000
436.541; -133.900; -814.000; -840.000
436.664;  -74.400; -242.000; -316.000
436.787;    4.600;   13.000;  113.000
436.910; -198.200; -792.000; -422.000
437.034;   37.800;  142.000;  143.000
437.157;  146.600;  -11.000;    0.000
437.280;  -81.500; -392.000; -292.000
437.403; -199.900; -982.000; -869.000
437.526;  767.300; -903.000; -865.000
437.649; 2746.000; -505.000; -332.000
437.772;  283.700; -692.000; -540.000
437.896;  271.200;  700.000;  544.000
438.019; -178.100; -758.000; -503.000
438.142; -108.900; -596.000; -506.000
438.265;  -62.200; -639.000; -670.000
438.388;  779.200; -520.000; -410.000
438.511;   82.000; -597.000; -394.000
438.634;  -85.700; -247.000; -125.000
438.757; -269.400; -693.000; -619.000
438.880;   20.800;  -34.000;  -57.000
439.003; -136.500; -417.000; -437.000
439.126;  -46.400; -287.000; -167.000
439.248;  -81.700;  -98.000; -139.000
439.371;  -15.200;    9.000;  -53.000
439.494;  119.800;  510.000;  439.000
439.617;  -50.800;   65.000;  -88.000
439.740; -318.400; -968.000; -816.000
439.863; -257.500; -755.000; -595.000
439.986; -173.100; -476.000; -431.000
440.108;  -45.200; -161.000; -112.000
440.231; -285.500; -950.000; -836.000
440.354;  -12.200;  -64.000; -150.000
440.477;   25.600; -566.000; -542.000
440.599;    7.600; -200.000; -225.000
440.722; -217.100; -709.000; -586.000
440.845;  231.500;  751.000;  928.000
440.968; -179.000; -415.000; -311.000
441.090;  -92.000; -199.000;  -33.000
441.213; -306.100;-1021.000; -825.000
441.336;  -43.600; -159.000;   -5.000
441.458; -120.800; -549.000; -396.000
441.581; -176.900; -628.000; -629.000
441.703; -119.000; -152.000;   13.000
441.826; -166.300; -557.000; -400.000
441.948;  -41.500;   56.000;   51.000
442.071;  103.600;  555.000;  424.000
442.193; -196.800; -531.000; -485.000
442.316;  110.600;  152.000;   97.000
442.438;  117.800; -233.000;  -10.000
442.561;  184.000;  272.000;  262.000
442.683;  712.500; -809.000; -522.000
442.806; 1404.500;   -8.000;   74.000
442.928; -102.200; -859.000; -604.000
443.051; -109.400; -577.000; -373.000
443.173; -149.200; -341.000; -339.000
443.295;  -98.200; -263.000; -371.000
443.418; -105.500; -321.000;  -29.000
443.540;   11.000; -106.000;   -4.000
443.662; -221.200; -563.000; -465.000
443.785;   66.800;  335.000;  199.000
443.907; -168.600; -362.000; -208.000
444.029; -192.100; -767.000; -494.000
444.152; -269.000; -644.000; -554.000
444.274;  -35.700;  -18.000;  -24.000
444.396; -172.000; -461.000; -221.000
444.518; -204.000; -691.000; -454.000
444.640; -189.200; -268.000; -111.000
444.763;   28.300;  388.000;  249.000
444.885; -193.300; -432.000; -392.000
445.007;    3.200;   35.000;   86.000
445.129; -197.400; -610.000; -515.000
445.251; -164.300; -372.000; -439.000
445.373; -197.700; -537.000; -386.000
445.495;   62.000;  242.000;  350.000
445.617;  192.400;  853.000;  753.000
445.739;  -77.000; -215.000;  -97.000
445.861;  -42.900; -245.000; -112.000
445.984;  -43.700; -267.000; -101.000
446.105;  282.500; -418.000; -251.000
446.227;  793.500; -176.000;  -19.000
446.349;  -47.600; -358.000; -249.000
446.471; -159.800; -615.000; -448.000
446.593; -109.000; -316.000;   19.000
446.715;   29.200;  -67.000;   41.000
446.837;  170.800;  697.000;  832.000
446.959; -144.800; -457.000; -478.000
447.081; -253.100; -628.000; -518.000
447.203;  185.500;  862.000;  834.000
447.325; -118.300; -270.000;   42.000
447.446;   55.400;  286.000;  530.000
447.568; -299.100; -921.000; -803.000
447.690; -140.700; -236.000; -245.000
447.812; -254.100; -798.000; -519.000
447.933;   19.900;  155.000;  127.000
448.055; -105.300; -306.000; -261.000
448.177;  244.900;   31.000;   79.000
448.299;   29.900; -935.000; -727.000
448.420;  110.800;  -25.000;  159.000
448.542;  -58.100;   -3.000;   33.000
448.664;   10.200;  109.000;  322.000
448.785;  -41.900;  265.000;   83.000
448.907; -133.700; -614.000; -353.000
449.028;  -67.500; -771.000; -471.000
449.150;  167.000;  492.000;  589.000
449.272; -315.900;-1044.000; -913.000
449.393;  126.100;  612.000;  694.000
449.515; -244.800; -634.000; -581.000
449.636;  -66.700; -264.000; -155.000
449.758;  205.100;  763.000;  622.000
449.879; -139.200; -498.000; -396.000
450.001; -129.900; -149.000;  -49.000
450.122;  -12.800;  -95.000;  162.000
450.244;   38.200;   37.000;  364.000
450.365; -121.700; -495.000; -301.000
450.486;   -5.500;   80.000;  268.000
450.608;  108.700;  393.000;  326.000
450.729;  226.400;  578.000;  645.000
450.850;  109.900; -574.000; -466.000
450.972; 1968.600; -552.000; -389.000
451.093;11598.400;  190.000;  588.000
451.214; 4378.200; -516.000; -337.000
451.336;  842.400;  773.000;  579.000
451.457;  177.900;  264.000;  393.000
451.578;   -0.500; -118.000;  -74.000
451.699; -181.900; -546.000; -540.000
451.821;  -70.600; -284.000;  -50.000
451.942;   51.200;  278.000;  285.000
452.063;  187.500;  228.000;  419.000
452.184; 1410.800;  -54.000;  -49.000
452.305; 2433.500;  103.000;  170.000
452.427;  293.000; -549.000; -301.000
452.548;   25.100;   23.000;   79.000
452.669;  -84.200; -257.000;  -89.000
452.790;    5.600;    3.000;  -18.000
452.911;   36.200;  195.000;  259.000
453.032;  -49.100; -289.000;  -60.000
453.153;  -36.100;  -29.000;   81.000
453.274;  207.000;  737.000;  868.000
453.395;  -30.500;  -51.000;  175.000
453.516;  366.100; 1317.000; 1388.000
453.637;  -66.700; -205.000; -150.000
453.758;  -27.900;   15.000;   69.000
453.879; -210.100; -462.000; -250.000
454.000;  249.700; 1086.000;  948.000
454.121; -200.100; -554.000; -326.000
454.242; -185.200; -599.000; -383.000
454.362;  -22.300;  -99.000;  114.000
454.483;  -19.000; -309.000; -229.000
454.604;  129.900;  512.000;  580.000
454.725; -239.700; -627.000; -555.000
454.846; -234.800; -474.000; -406.000
454.967;   50.000;  230.000;  539.000
455.087;  -40.900;  179.000;  153.000
455.208;  116.800;  554.000;  856.000
455.329;  -75.100;  -22.000;   82.000
455.450;  216.300;  473.000;  633.000
455.570; -119.300; -234.000; -211.000
455.691;   10.000;  201.000;  407.000
455.812; -159.700; -270.000;  -92.000
455.932;  -43.500;  107.000;  -97.000
456.053; -125.400;   36.000;   24.000
456.173; -142.100; -433.000; -355.000
456.294; -226.500; -476.000; -303.000
456.415;  -53.100;  -73.000;   70.000
456.535;  -22.000;  297.000;  273.000
456.656;   24.900;  132.000;  240.000
456.776;  -95.000;    3.000;  298.000
456.897;   72.800;  308.000;  513.000
457.017;  -62.200; -153.000;   -3.000
457.138; -176.600; -402.000; -249.000
457.258;    9.900;  263.000;  224.000
457.379;   51.500;  509.000;  521.000
457.499;    6.600;  443.000;  432.000
457.620; -178.000; -407.000; -231.000
457.740; -140.600; -132.000;  -11.000
457.860;  -58.500;   87.000;   44.000
457.981;  -31.500;  132.000;  124.000
458.101;  -95.700;  -89.000;   40.000
458.221;   13.900;  336.000;  402.000
458.342;  -66.200;   -4.000;  -37.000
458.462;  116.000;  617.000;  352.000
458.582;   11.700; -302.000; -294.000
458.703;  103.400;  303.000;  154.000
458.823;    3.300;   22.000;  163.000
458.943;  122.000;  341.000;  467.000
459.063;   26.400; 1124.000;  192.000
459.183;    4.700;  328.000;  313.000
459.304;   98.100;  315.000;  517.000
459.424;  -78.100; -246.000;  -89.000
459.544;  870.700;  388.000;  764.000
459.664; 1920.100;  499.000;  506.000
459.784;  702.500; 1004.000; 1175.000
459.904;  154.100;  867.000;  744.000
460.024;  216.200;  867.000;  684.000
460.144;   83.000;  449.000;  554.000
460.264;   53.800;  515.000;  327.000
460.385; -122.500; -145.000; -119.000
460.505;  150.800;  905.000;  858.000
460.625; -120.900;  -17.000;  -68.000
460.745;   47.600;  396.000;  541.000
460.864;  -21.200;  153.000;  469.000
460.984;  112.400;  499.000;  573.000
461.104;  346.500; 1656.000; 1775.000
461.224;  150.700;  657.000;  650.000
461.344;    7.000;  431.000;  360.000
461.464;   -5.600;  258.000;  513.000
461.584;   19.100;  283.000;  466.000
461.704;  -50.500;   58.000;  108.000
461.824;  -66.200;  238.000;  259.000
461.943;  -39.000;  191.000;  130.000
462.063;  -88.100;    2.000;  324.000
462.183;  126.100;  639.000;  717.000
462.303;  231.600; 1678.000; 1230.000
462.422;  121.900;  781.000;  840.000
462.542;  -14.600;  271.000;  391.000
462.662;  136.200;  353.000;  380.000
462.782;  675.300;  833.000;  572.000
462.901; 1183.800;  545.000;  717.000
463.021;  620.900; 1702.000; 1638.000
463.141;   26.500;  337.000;  770.000
463.260;    6.100;  614.000;  474.000
463.380;   76.200;  902.000;  884.000
463.499;  -18.800;  342.000;  332.000
463.619;  -31.400;  581.000;  559.000
463.738;  307.500; 1644.000;  903.000
463.858;   92.400;  657.000;  811.000
463.978;  -46.000;  542.000;  396.000
464.097;  188.400;  921.000; 1114.000
464.217;  312.400; 1196.000; 1143.000
464.336;  324.200; 1068.000; 1130.000
464.455;  -46.000;  328.000;  659.000
464.575;  102.200;  597.000;  602.000
464.694;  388.600; 1204.000; 1179.000
464.814;  300.200; 1190.000; 1138.000
464.933;  219.800; 1095.000; 1027.000
465.052;  269.900; 1412.000; 1054.000
465.172;  214.700;  922.000;  799.000
465.291;  342.900; 1376.000; 1320.000
465.410;   90.800;  462.000;  735.000
465.530;  211.700; 1355.000; 1310.000
465.649;  231.900; 1209.000; 1273.000
465.768;  358.900; 1673.000; 1508.000
465.888;  175.700;  941.000; 1174.000
466.007;  254.800; 1335.000; 1440.000
466.126;   30.500;  721.000;  641.000
466.245;  166.600; 1176.000; 1187.000
466.364;   87.500;  950.000; 1060.000
466.484;  199.100; 1024.000; 1213.000
466.603;   97.200; 1101.000; 1222.000
466.722;  294.800; 1490.000; 1769.000
466.841;  208.200; 1151.000; 1401.000
466.960;  142.900; 1069.000;  972.000
467.079;  346.400; 1971.000; 1786.000
467.198;  153.300; 1238.000; 1181.000
467.317;  260.400; 1768.000; 1162.000
467.436;  222.100; 1709.000; 1261.000
467.555;  354.200; 1796.000; 1746.000
467.674;  194.400; 1227.000; 1329.000
467.793;  127.300; 1376.000; 1374.000
467.912;  222.400; 1658.000; 1539.000
468.031;  358.700; 2038.000; 1930.000
468.150;  329.100; 1842.000; 1837.000
468.269;  444.000; 2313.000; 2090.000
468.388;  487.600; 2168.000; 2339.000
468.507;  607.600; 2884.000; 2903.000
468.626;  643.000; 2555.000; 2541.000
468.744;  303.200; 2018.000; 2174.000
468.863;  529.600; 2312.000; 2523.000
468.982;  210.100; 1503.000; 1555.000
469.101;  548.100; 2788.000; 2692.000
469.220;  326.400; 2333.000; 2176.000
469.338;  582.400; 2935.000; 3051.000
469.457;  460.900; 2719.000; 2545.000
469.576;  801.000; 3953.000; 3784.000
469.695;  533.800; 2877.000; 3066.000
469.813;  876.400; 4148.000; 4192.000
469.932;  883.700; 4255.000; 4485.000
470.051;  979.400; 4075.000; 4161.000
470.169; 1960.900; 4470.000; 4338.000
470.288; 3291.900; 4700.000; 4809.000
470.406; 1789.400; 5059.000; 5194.000
470.525; 1351.700; 6101.000; 5787.000
470.644; 1354.700; 6847.000; 6794.000
470.762; 1816.500; 8397.000; 7873.000
470.881; 1914.200; 8651.000; 8464.000
470.999; 2191.200; 9685.000; 9151.000
471.118; 2331.900;11174.000;10711.000

