
Integration time [ms]: 200.000
Averaging Nr. [scans]: 10
Smoothing Nr. [pixels]: 0
Data measured with spectrometer [name]: 2101012U2
Wave   ;Sample   ;Dark     ;Reference
[nm]   ;[counts] ;[counts] ;[counts] 

197.733;  136.300;  516.000;  404.000
197.879; -191.600; -610.000; -634.000
198.025; -120.000; -475.000; -420.000
198.171; -157.800; -602.000; -612.000
198.317;  -57.000; -401.000; -316.000
198.463; -128.500; -655.000; -404.000
198.609;   75.900;  181.000; -137.000
198.755; -185.600; -644.000; -410.000
198.901; -131.000; -505.000; -424.000
199.047; -139.800; -615.000; -488.000
199.193;  -85.800; -230.000; -468.000
199.339;  -98.900; -222.000; -369.000
199.485;  125.100;  330.000;  271.000
199.631;   44.700;  227.000;  310.000
199.777;  -75.800; -466.000; -398.000
199.923; -142.600; -610.000; -424.000
200.069;    5.600; -141.000;  -58.000
200.215;  106.700;  128.000;  453.000
200.361;  116.100;  243.000;  477.000
200.507; -149.800; -600.000; -373.000
200.653;  -20.000; -371.000; -194.000
200.798;  -71.900; -215.000; -125.000
200.944;  -22.400; -146.000;  -41.000
201.090;   77.700;   61.000;  222.000
201.236;    6.100; -116.000; -158.000
201.382;  283.900;  874.000;  903.000
201.528;   50.900;  -58.000;  -48.000
201.674;  -98.700; -386.000; -293.000
201.819; -137.200; -540.000; -439.000
201.965; -202.400; -699.000; -447.000
202.111;  -57.400; -273.000; -226.000
202.257;  -98.700; -250.000; -238.000
202.402;   26.300;   13.000;  -36.000
202.548;  -58.500; -169.000; -116.000
202.694;  185.200;  410.000; -183.000
202.840; -150.300; -603.000; -531.000
202.985; -157.400; -681.000; -639.000
203.131; -220.500; -832.000; -666.000
203.277;  -36.000; -199.000; -262.000
203.423; -133.500; -434.000; -520.000
203.568;  -88.600; -462.000; -237.000
203.714; -129.200; -535.000; -542.000
203.860; -162.200; -682.000; -641.000
204.005;   17.400;  112.000;  167.000
204.151;  149.300;  561.000;  556.000
204.296;  -81.300; -354.000; -221.000
204.442; -136.900; -600.000; -547.000
204.588; -169.500; -592.000; -579.000
204.733;   64.500;  178.000;  168.000
204.879; -270.000;-1018.000; -822.000
205.025;   29.000;  -99.000;  126.000
205.170;  -26.300;  -17.000;   94.000
205.316;  185.200;  438.000;  661.000
205.461; -186.900; -698.000; -554.000
205.607;  190.000;  609.000;  665.000
205.752; -161.100; -626.000; -551.000
205.898;  -83.200; -501.000; -391.000
206.043; -127.600; -578.000; -506.000
206.189;  -64.600; -243.000; -285.000
206.334;  155.100;  554.000;  606.000
206.480;  155.200;  409.000;  239.000
206.625; -175.100; -529.000; -552.000
206.771;  -96.800; -451.000; -373.000
206.916;  -56.600; -210.000; -537.000
207.062; -134.400; -545.000; -591.000
207.207; -139.800; -546.000; -443.000
207.353;  118.000;  185.000;  460.000
207.498;   17.500;  196.000;   85.000
207.643; -104.400; -501.000; -370.000
207.789; -260.400;-1069.000; -910.000
207.934; -169.900; -665.000; -713.000
208.080;  -43.500; -154.000;   66.000
208.225;  -13.600;  -22.000;  -57.000
208.370; -187.000; -727.000; -619.000
208.516; -181.100; -741.000; -487.000
208.661;  -66.300; -127.000;  -69.000
208.806;  -44.200; -165.000; -171.000
208.952; -270.700;-1044.000; -731.000
209.097;  153.800;  378.000;  349.000
209.242; -105.200; -307.000; -382.000
209.387;  108.600;  392.000;  350.000
209.533; -125.700; -321.000; -350.000
209.678;  172.300;  472.000;  543.000
209.823;  -95.700; -408.000; -310.000
209.969; -198.200; -860.000; -757.000
210.114; -227.200; -907.000; -719.000
210.259; -225.800; -939.000; -889.000
210.404;    2.600; -171.000;  103.000
210.549;   59.300;  108.000;    3.000
210.695;  -55.300;   -3.000;  -95.000
210.840;  100.700;   94.000;   67.000
210.985; -139.200; -484.000; -303.000
211.130;  141.700;  268.000;  406.000
211.275;   56.700;  207.000;  199.000
211.420;  -81.900; -300.000; -289.000
211.566; -161.900; -536.000; -489.000
211.711;   50.300;  218.000;  157.000
211.856; -135.700; -545.000; -519.000
212.001;   13.900;  151.000;   44.000
212.146;   40.800;  153.000;   49.000
212.291;  -11.200; -210.000; -186.000
212.436;  -49.000; -280.000;   -6.000
212.581; -167.400; -685.000; -653.000
212.726; -127.500; -487.000; -538.000
212.871; -109.400; -552.000; -217.000
213.016; -295.700;-1172.000;-1029.000
213.161;  146.800;  406.000;  291.000
213.306; -156.700; -435.000; -577.000
213.451; -195.000; -778.000; -689.000
213.596; -101.200; -455.000; -347.000
213.741; -113.800; -448.000; -538.000
213.886; -165.300; -498.000; -517.000
214.031;  -34.400; -294.000; -124.000
214.176; -103.500; -408.000; -341.000
214.321;  -12.100; -296.000; -157.000
214.466;  -54.200; -163.000;  -43.000
214.611;    4.600;  -61.000;  -10.000
214.756; -259.400; -948.000; -858.000
214.901;  -25.500; -388.000; -226.000
215.046; -256.800; -797.000; -825.000
215.191;   50.500;  128.000;   35.000
215.336;  -13.500; -157.000;  -19.000
215.480; -148.800; -684.000; -505.000
215.625;  -17.100; -175.000;  -19.000
215.770; -171.300; -757.000; -662.000
215.915;   -7.500;   -5.000;  -97.000
216.060;    7.300; -113.000;  -21.000
216.205; -252.300; -731.000; -779.000
216.349; -145.400; -470.000; -533.000
216.494; -300.900; -939.000; -867.000
216.639; -222.800; -823.000; -888.000
216.784; -152.400; -577.000; -525.000
216.929;   88.800;  392.000;  281.000
217.073;  -17.500; -244.000;  -31.000
217.218;   35.300;   78.000;  -47.000
217.363; -175.100; -656.000; -618.000
217.507; -154.900; -623.000; -588.000
217.652; -235.800; -845.000; -874.000
217.797; -187.200; -708.000; -659.000
217.942; -244.700; -856.000; -720.000
218.086;  177.800;  608.000;  539.000
218.231;  -30.600; -174.000;  -26.000
218.376;  -49.800; -337.000; -229.000
218.520;   -9.200;  -41.000;   96.000
218.665;  -48.300; -338.000; -204.000
218.810;  -69.800; -275.000; -233.000
218.954;   71.900;  201.000;   35.000
219.099; -242.300; -713.000; -963.000
219.243; -123.100; -589.000; -554.000
219.388;  -67.000; -264.000; -136.000
219.532;  -13.800; -116.000; -116.000
219.677; -169.200; -564.000; -521.000
219.822;   59.600;   33.000;   89.000
219.966;   12.200;   17.000;  -99.000
220.111;  -72.600; -328.000;  -40.000
220.255; -211.500; -797.000; -750.000
220.400;  -10.400; -180.000; -146.000
220.544; -134.300; -516.000; -450.000
220.689;  -96.100; -422.000; -451.000
220.833;  -31.700; -123.000;  -58.000
220.978;  -97.400; -393.000; -563.000
221.122;   56.200;  319.000;  307.000
221.267; -246.300; -906.000; -837.000
221.411; -143.000; -478.000; -394.000
221.555;  -15.400; -104.000;  -23.000
221.700; -117.400; -329.000; -222.000
221.844;   72.400;  255.000;  272.000
221.989;  -94.600; -328.000; -311.000
222.133;  -45.400; -289.000; -307.000
222.277;  -44.400;    5.000;   78.000
222.422;   59.800;  227.000;  113.000
222.566;  -14.500; -381.000; -214.000
222.711; -112.600; -414.000; -479.000
222.855; -168.700; -643.000; -586.000
222.999; -147.500; -642.000; -717.000
223.144;  -36.000; -195.000; -194.000
223.288;  131.100;  423.000;  251.000
223.432;   22.300;  184.000;  230.000
223.576;   79.700;  152.000;  -21.000
223.721;  103.500;  364.000;  273.000
223.865;  -98.700; -472.000; -475.000
224.009;  410.500; 1673.000; 1631.000
224.153; -195.800; -660.000; -671.000
224.298; -140.900; -531.000; -489.000
224.442;  -32.100;  -74.000;  -33.000
224.586;  -30.200; -169.000; -106.000
224.730; -212.900; -858.000; -670.000
224.875; -198.300; -739.000; -688.000
225.019;   42.700;  102.000;  188.000
225.163;  142.200;  208.000;  341.000
225.307;   61.100;   97.000;  -91.000
225.451;  114.200;  360.000;  481.000
225.595;   94.700;  264.000;  176.000
225.739;  -32.100; -170.000;  -94.000
225.884;   25.700;   86.000;    5.000
226.028; -199.700; -760.000; -626.000
226.172;  -51.100; -260.000; -273.000
226.316; -243.600; -941.000; -902.000
226.460; -109.300; -645.000; -493.000
226.604;  -90.200; -406.000; -400.000
226.748; -217.400; -836.000; -733.000
226.892;  -60.200; -227.000; -181.000
227.036;  -92.700; -537.000; -447.000
227.180;  -97.600; -551.000; -375.000
227.324; -138.200; -561.000; -580.000
227.468; -221.200; -819.000; -717.000
227.612;   51.700;  242.000;  -28.000
227.756; -148.200; -845.000; -698.000
227.900;  135.300;  342.000;  441.000
228.044; -109.400; -509.000; -290.000
228.188;  152.600;  448.000;  568.000
228.332; -183.700; -546.000; -472.000
228.476;  -31.100; -223.000; -149.000
228.620;  -45.900; -210.000; -150.000
228.764;  158.800;  431.000;  349.000
228.908;  -33.200; -155.000;   30.000
229.052; -112.200; -615.000; -528.000
229.195;  -10.400; -172.000;   13.000
229.339;  -15.500; -235.000; -305.000
229.483;  -19.700;    5.000; -162.000
229.627;   -8.500; -156.000;  139.000
229.771;  -94.700; -218.000; -294.000
229.915;   37.100;  230.000;   79.000
230.059; -184.700; -648.000; -663.000
230.202;  -99.000; -370.000; -317.000
230.346;  -11.000; -107.000;  107.000
230.490; -117.500; -489.000; -521.000
230.634; -231.900; -736.000; -553.000
230.777;  201.800;  478.000;  509.000
230.921; -121.800; -450.000; -359.000
231.065;  -77.400; -246.000; -286.000
231.209;   57.500;  261.000;  265.000
231.352;   93.100;   54.000;   40.000
231.496;   34.200;  568.000;  188.000
231.640; -160.800; -693.000; -621.000
231.783;  137.100;  546.000;  525.000
231.927;  -85.400; -294.000; -365.000
232.071; -249.100; -962.000; -736.000
232.214; -183.200; -980.000; -764.000
232.358; -213.800; -683.000; -599.000
232.502;   15.600;  -19.000;    7.000
232.645; -276.300;-1090.000; -927.000
232.789;  -26.600; -257.000; -218.000
232.933;  -69.800; -407.000; -224.000
233.076; -267.500;-1038.000; -897.000
233.220; -231.200; -752.000; -777.000
233.363; -145.200; -669.000; -477.000
233.507;  125.500;  371.000;  129.000
233.650; -179.900; -764.000; -834.000
233.794;  104.900;  438.000;  461.000
233.938; -113.100; -530.000; -362.000
234.081;  -12.100;  -93.000;   31.000
234.225; -126.000; -631.000; -539.000
234.368; -225.300; -773.000; -723.000
234.512;  -61.200; -385.000; -299.000
234.655; -170.000; -582.000; -555.000
234.798; -124.200; -493.000; -466.000
234.942; -289.800; -884.000;-1002.000
235.085; -131.700; -651.000; -443.000
235.229; -167.500; -405.000; -410.000
235.372; -105.600; -247.000; -191.000
235.516; -111.600; -397.000; -321.000
235.659;   70.400;   92.000;  121.000
235.802;  -18.300;  -38.000;  -22.000
235.946;   67.900;  335.000;  215.000
236.089;   75.200;  126.000;  250.000
236.233;  124.300;  275.000;  298.000
236.376;  -94.200; -235.000; -378.000
236.519;  -90.100; -297.000; -319.000
236.663;  -65.200; -215.000; -117.000
236.806; -262.000;-1029.000; -999.000
236.949;  157.100;  543.000;  431.000
237.092;  174.100;  412.000;  391.000
237.236; -179.800; -589.000; -502.000
237.379;  154.800;  352.000;  428.000
237.522; -241.400; -879.000; -768.000
237.666;  -15.800; -271.000;   18.000
237.809; -244.200; -851.000; -823.000
237.952;   89.800;  469.000;  271.000
238.095; -115.200; -447.000; -442.000
238.238;  206.200;  688.000;  700.000
238.382;   13.900;  166.000;  103.000
238.525; -113.100; -598.000; -511.000
238.668; -304.900;-1060.000; -985.000
238.811; -175.600; -638.000; -643.000
238.954; -128.900; -483.000; -334.000
239.097;  225.000;  617.000;  664.000
239.241;   49.200;  394.000;  326.000
239.384;  -33.500; -254.000; -214.000
239.527; -112.700; -424.000; -224.000
239.670; -307.200; -994.000;-1091.000
239.813; -195.500; -696.000; -658.000
239.956;  179.700;  579.000;  473.000
240.099; -222.800; -778.000; -725.000
240.242;  128.400;  428.000;  432.000
240.385;  112.200;  466.000;  450.000
240.528; -157.800; -706.000; -473.000
240.671;   27.100;  189.000;  134.000
240.814;  -59.500; -441.000; -158.000
240.957; -229.800; -767.000; -578.000
241.100; -171.300; -779.000; -755.000
241.243; -311.800;-1234.000; -893.000
241.386; -134.300; -508.000; -379.000
241.529; -171.300; -735.000; -547.000
241.672; -126.400; -566.000; -495.000
241.815; -226.700; -832.000; -808.000
241.958;  -47.200; -125.000; -182.000
242.101; -169.800; -545.000; -390.000
242.244;  -55.600; -270.000; -325.000
242.387;  -92.000; -304.000; -246.000
242.530;  140.700;  470.000;  134.000
242.673; -100.100; -381.000; -309.000
242.815; -224.300; -925.000; -899.000
242.958; -156.400; -482.000; -381.000
243.101;   61.900;  132.000;  187.000
243.244; -144.000; -564.000; -521.000
243.387;  -41.400; -313.000; -316.000
243.530; -226.900; -657.000; -674.000
243.672;   17.500;   43.000;  -92.000
243.815;  -80.300; -355.000; -283.000
243.958;  -14.600;   98.000;  -26.000
244.101;   34.400;   59.000;  -16.000
244.243;  -23.900;  -47.000;  101.000
244.386; -195.100; -761.000; -630.000
244.529;  -18.800; -132.000; -139.000
244.672; -335.200;-1154.000; -951.000
244.814; -217.100; -621.000; -794.000
244.957;  -94.000; -380.000; -304.000
245.100; -124.200; -489.000; -489.000
245.242; -133.600; -387.000; -374.000
245.385;   29.200;  -59.000;  -39.000
245.528; -262.800; -871.000; -705.000
245.670;  209.600;  612.000;  634.000
245.813; -171.900; -599.000; -547.000
245.956;  -38.800; -324.000; -275.000
246.098; -172.900; -508.000; -650.000
246.241;   32.100;  194.000;   48.000
246.383;  -30.700; -119.000;  -73.000
246.526; -154.300; -454.000; -525.000
246.669; -236.400; -889.000; -780.000
246.811;   59.800;  172.000;   -1.000
246.954; -145.100; -512.000; -426.000
247.096;  -26.200;  -84.000;   -6.000
247.239; -149.300; -482.000; -445.000
247.381; -134.100; -647.000; -488.000
247.524;  190.300;  645.000;  679.000
247.666;    2.500;   58.000;   11.000
247.809; -219.100; -887.000; -691.000
247.951;  -18.900;  -75.000;  138.000
248.094;   50.000;  432.000;  308.000
248.236; -325.300;-1262.000;-1238.000
248.378;    1.100; -356.000;  -81.000
248.521;  -19.100; -334.000; -337.000
248.663;  -54.200; -236.000; -267.000
248.806;   -8.900; -300.000; -266.000
248.948; -214.300; -886.000; -763.000
249.090;  -74.700; -428.000; -398.000
249.233;  -95.900; -344.000; -381.000
249.375; -122.500; -474.000; -451.000
249.518;  -55.500;  -83.000; -133.000
249.660;   11.300; -103.000;    3.000
249.802; -320.300;-1303.000;-1189.000
249.945; -120.600; -612.000; -540.000
250.087; -239.000; -834.000; -768.000
250.229;  -82.300; -362.000; -480.000
250.371; -135.300; -494.000; -439.000
250.514;  -75.300; -310.000; -244.000
250.656;  -11.700;   69.000;  102.000
250.798; -243.100; -849.000; -800.000
250.940; -112.400; -322.000; -322.000
251.083;  -47.300; -335.000; -111.000
251.225;  141.900;  338.000;  310.000
251.367;  -72.700; -274.000; -373.000
251.509;  -64.200; -265.000; -210.000
251.651; -180.200; -731.000; -671.000
251.794;  122.500;  538.000;  632.000
251.936; -210.300; -821.000; -747.000
252.078; -138.000; -540.000; -461.000
252.220; -117.800; -645.000; -477.000
252.362;  159.600;  344.000;  462.000
252.504; -127.300; -677.000; -584.000
252.646; -255.400; -875.000; -722.000
252.788;   23.900;   14.000; -128.000
252.931;  -72.000; -257.000; -253.000
253.073;  -73.800; -376.000; -317.000
253.215;   -5.900;  141.000;  122.000
253.357;   16.700;   82.000; -153.000
253.499;  -91.300; -374.000; -234.000
253.641; -165.800; -749.000; -594.000
253.783; -173.600; -609.000; -527.000
253.925; -160.300; -586.000; -591.000
254.067; -198.300; -744.000; -667.000
254.209;  -34.900; -391.000; -259.000
254.351; -261.800; -865.000; -883.000
254.493; -112.000; -441.000; -417.000
254.635; -238.900; -936.000; -818.000
254.777; -178.800; -752.000; -687.000
254.918; -145.800; -512.000; -430.000
255.060; -108.800; -551.000; -395.000
255.202; -114.800; -473.000; -261.000
255.344; -148.800; -658.000; -455.000
255.486; -144.100; -471.000; -406.000
255.628; -210.400; -780.000; -781.000
255.770; -165.400; -676.000; -536.000
255.912; -101.000; -559.000; -468.000
256.053; -192.500; -730.000; -508.000
256.195;  340.500; 1008.000;  903.000
256.337; -187.600; -861.000; -595.000
256.479;  158.400;  532.000;  416.000
256.621;  -93.300; -394.000; -212.000
256.762; -166.000; -789.000; -742.000
256.904;  127.300;  485.000;  487.000
257.046;  -63.100; -381.000; -271.000
257.188; -105.100; -351.000; -264.000
257.329; -116.200; -525.000; -464.000
257.471; -212.500; -939.000; -807.000
257.613; -113.200; -584.000; -498.000
257.755; -322.200;-1073.000; -982.000
257.896;   93.300;  286.000;  392.000
258.038; -130.200; -403.000; -352.000
258.180;  -77.600; -354.000; -279.000
258.321; -185.200; -581.000; -457.000
258.463;   20.500;  -71.000;  133.000
258.605; -163.300; -562.000; -570.000
258.746; -185.300; -886.000; -772.000
258.888; -302.200;-1026.000;-1020.000
259.029;   63.200;  121.000;   -8.000
259.171; -180.300; -614.000; -550.000
259.313;   16.400;  -49.000;  -47.000
259.454; -142.800; -536.000; -414.000
259.596; -132.200; -483.000; -390.000
259.737; -132.600; -590.000; -474.000
259.879;  116.900;  217.000;  311.000
260.020;  190.900;  901.000;  636.000
260.162;  -42.700; -146.000; -253.000
260.303; -232.100; -768.000; -687.000
260.445; -147.600; -609.000; -613.000
260.586;   77.200;  392.000;  157.000
260.728;  -87.800; -360.000; -248.000
260.869; -106.600; -350.000; -343.000
261.011;  217.300;  706.000;  537.000
261.152; -124.200; -479.000; -319.000
261.293; -141.700; -576.000; -595.000
261.435;  -45.500; -219.000; -184.000
261.576;  -77.800; -455.000; -325.000
261.718;  126.700;  420.000;  470.000
261.859; -256.200; -940.000; -949.000
262.000; -266.500; -951.000;-1016.000
262.142;   11.400;  -52.000;  -60.000
262.283; -232.600; -808.000; -691.000
262.424; -150.500; -666.000; -625.000
262.566; -301.800;-1161.000; -983.000
262.707; -214.400; -840.000; -830.000
262.848; -229.200; -769.000; -726.000
262.990;  -68.200; -362.000; -345.000
263.131;  189.900;  650.000;  681.000
263.272;   -1.600;  -61.000;  -41.000
263.413; -152.000; -589.000; -561.000
263.555; -123.000; -669.000; -143.000
263.696; -171.300; -550.000; -641.000
263.837;  -91.800; -449.000; -551.000
263.978;   10.800;   -5.000;  -77.000
264.119;  -43.800; -283.000; -264.000
264.261; -222.800; -847.000; -630.000
264.402;   21.600;   33.000;   40.000
264.543; -163.200; -509.000; -524.000
264.684;    4.300;   61.000;  -50.000
264.825; -134.200; -816.000; -538.000
264.966;    8.800;  -84.000;  -67.000
265.107; -231.500; -646.000; -670.000
265.248; -242.400; -825.000; -812.000
265.390;    4.400;  152.000;   -9.000
265.531;  -32.300; -238.000; -107.000
265.672; -182.200; -557.000; -630.000
265.813;  149.700;  563.000;  439.000
265.954; -289.100; -959.000; -940.000
266.095;  -11.700; -372.000; -322.000
266.236; -232.100; -686.000; -548.000
266.377;  -62.900; -243.000; -297.000
266.518; -143.000; -619.000; -547.000
266.659;   75.400;  170.000;  268.000
266.800;   21.500;   83.000;   85.000
266.941; -134.700; -487.000; -478.000
267.082;   61.000;  354.000;   99.000
267.223;  -57.000; -344.000; -273.000
267.364; -237.200; -892.000; -686.000
267.504;   -3.700;    3.000;  135.000
267.645;   -1.200;  160.000;   67.000
267.786;  -41.800; -147.000;  -86.000
267.927; -122.600; -473.000; -379.000
268.068;   -2.700; -186.000;  -61.000
268.209;  -80.000; -175.000; -413.000
268.350;  -91.500; -388.000; -532.000
268.490; -175.200; -648.000; -521.000
268.631;   93.700;  127.000;  225.000
268.772; -239.600; -874.000; -647.000
268.913;  -85.800; -328.000; -476.000
269.054;  -13.400; -117.000;   12.000
269.194;  -91.400; -418.000; -402.000
269.335; -331.600;-1137.000;-1074.000
269.476;   -8.700;   33.000;  -35.000
269.617;  -67.300; -347.000; -392.000
269.757; -170.000; -713.000; -646.000
269.898; -206.400; -856.000; -613.000
270.039;  -91.400; -415.000; -405.000
270.180; -281.000; -952.000; -816.000
270.320;   -3.200; -190.000; -250.000
270.461;  -69.500; -277.000; -249.000
270.602;   -3.200; -186.000; -156.000
270.742; -254.800; -868.000; -943.000
270.883;  -59.100; -442.000; -390.000
271.023; -109.900; -358.000; -357.000
271.164; -124.400; -607.000; -528.000
271.305; -186.600; -666.000; -654.000
271.445; -205.400; -722.000; -683.000
271.586; -156.900; -462.000; -283.000
271.726;  -35.200; -397.000; -322.000
271.867; -125.300; -594.000; -534.000
272.008;  337.500; -473.000; -285.000
272.148;  253.100;  462.000;  468.000
272.289;   40.300; -113.000; -181.000
272.429;   61.600;   19.000;  185.000
272.570; -178.200; -633.000; -737.000
272.710; -178.900; -825.000; -775.000
272.851;  -10.900;  113.000; -130.000
272.991; -300.900;-1173.000;-1077.000
273.131; -111.200; -419.000; -459.000
273.272; -184.000; -683.000; -723.000
273.412;    6.900; -143.000;  -31.000
273.553; -112.100; -488.000; -507.000
273.693;  307.700;  913.000;  858.000
273.834; -190.800; -894.000; -692.000
273.974; -119.900; -664.000; -615.000
274.114; -165.900; -772.000; -560.000
274.255;  202.300;  414.000;  373.000
274.395;  -16.500; -180.000; -125.000
274.535;  117.200;  199.000;  350.000
274.676;   67.100;  225.000;   94.000
274.816;   41.700;  110.000;   34.000
274.956; -157.700; -624.000; -690.000
275.097; -127.700;-1014.000; -922.000
275.237; -208.700; -913.000; -803.000
275.377; -178.500; -778.000; -689.000
275.517; -283.700; -878.000; -937.000
275.658;  -85.000; -590.000; -555.000
275.798; -141.400; -606.000; -413.000
275.938;   70.200;  215.000;  323.000
276.078; -153.500; -626.000; -395.000
276.218;   16.800;   99.000;  104.000
276.359; -254.900;-1026.000;-1024.000
276.499; -128.900; -605.000; -446.000
276.639;  -54.300; -305.000; -151.000
276.779;  -62.400; -475.000; -357.000
276.919; -184.700; -783.000; -624.000
277.059;   -9.100; -261.000; -212.000
277.199;  -69.000; -357.000; -259.000
277.340;  165.600;  287.000;  175.000
277.480; -220.600; -840.000; -693.000
277.620;  125.600;  192.000;   16.000
277.760; -385.400;-1533.000;-1294.000
277.900;   46.700;  113.000;   33.000
278.040;   56.700;  137.000;  159.000
278.180;  125.700;  270.000;  170.000
278.320;   26.800;   21.000;   56.000
278.460;  -87.100; -443.000; -469.000
278.600; -153.800; -708.000; -598.000
278.740;  146.400;  448.000;  224.000
278.880;  -98.700; -768.000; -791.000
279.020;   81.400; -194.000; -144.000
279.160; -165.500; -672.000; -595.000
279.300; -231.500; -926.000; -873.000
279.440; -162.300; -709.000; -622.000
279.579;  -48.100;-1014.000; -929.000
279.719;  -83.500; -410.000; -394.000
279.859;  150.400;   -4.000;   41.000
279.999;   61.000; -208.000;  101.000
280.139;  -36.300; -435.000; -387.000
280.279; -143.400; -708.000; -745.000
280.419;   24.600; -229.000; -147.000
280.559;  -38.300; -259.000; -180.000
280.698; -142.500; -790.000; -639.000
280.838; -181.000; -778.000; -800.000
280.978; -188.200; -846.000; -790.000
281.118; -230.500; -811.000; -704.000
281.257;   54.000;   24.000;    6.000
281.397; -208.900;-1094.000; -960.000
281.537; -171.100; -599.000; -712.000
281.677;  -25.100; -150.000; -101.000
281.816; -148.900; -700.000; -630.000
281.956;  -24.600; -193.000; -257.000
282.096;  -95.500; -539.000; -396.000
282.235; -241.900; -672.000; -638.000
282.375;   14.500; -243.000;  -98.000
282.515; -187.300; -715.000; -707.000
282.654;  123.500;   29.000;  106.000
282.794;   98.000;  388.000;  244.000
282.934;  -80.800; -530.000; -491.000
283.073; -232.500;-1030.000; -857.000
283.213; -102.900; -460.000; -467.000
283.353;  -49.800; -408.000; -349.000
283.492;  -13.100; -264.000; -296.000
283.632;  -66.200; -254.000; -168.000
283.771; -131.400; -859.000; -730.000
283.911;  -92.000; -369.000; -260.000
284.050; -180.600; -794.000; -748.000
284.190; -321.800;-1229.000;-1096.000
284.329; -256.900;-1055.000; -964.000
284.469; -110.900; -516.000; -591.000
284.608; -111.500; -559.000; -598.000
284.748; -159.100; -614.000; -570.000
284.887;   38.300;  -87.000;  -20.000
285.027; -234.300; -844.000; -892.000
285.166;  -45.900; -192.000; -249.000
285.306;   64.000; -116.000;  -33.000
285.445;  -59.400; -229.000; -343.000
285.584; -192.600; -630.000; -494.000
285.724;  -66.900; -282.000; -322.000
285.863; -190.500; -857.000; -507.000
286.002;  -81.200; -366.000; -276.000
286.142; -207.800; -715.000; -622.000
286.281; -128.600; -525.000; -493.000
286.420; -160.400; -554.000; -417.000
286.560;  238.900;  653.000;  623.000
286.699; -258.500; -958.000; -912.000
286.838; -137.100; -590.000; -591.000
286.978; -151.700; -533.000; -537.000
287.117; -258.300;-1085.000; -950.000
287.256;  -39.000; -228.000; -211.000
287.395;  -58.600; -197.000; -378.000
287.535;  -89.900; -370.000; -298.000
287.674; -103.400; -509.000; -484.000
287.813;  134.600;  661.000;  533.000
287.952; -219.900;-1010.000; -871.000
288.091; -271.800;-1049.000; -915.000
288.231;   87.500;   13.000;   15.000
288.370; -346.500;-1217.000;-1200.000
288.509; -172.400; -728.000; -645.000
288.648; -167.500; -770.000; -548.000
288.787;  -36.400; -243.000;  -87.000
288.926; -150.700; -454.000; -475.000
289.065;  286.300;  859.000;  672.000
289.204;  -63.100; -377.000; -217.000
289.344; -174.400; -791.000; -690.000
289.483;   77.600;  416.000;  304.000
289.622;   -9.400; -291.000; -149.000
289.761;   -5.700; -309.000; -166.000
289.900; -180.800; -785.000; -626.000
290.039;  -25.800;  -12.000;  -95.000
290.178;  -69.300; -274.000; -180.000
290.317;  -99.100; -618.000; -479.000
290.456; -114.600; -463.000; -451.000
290.595; -284.200; -961.000; -833.000
290.734; -250.300; -904.000; -891.000
290.873; -131.200; -456.000; -420.000
291.011; -215.100; -833.000; -843.000
291.150; -164.200; -770.000; -682.000
291.289;   -3.000; -343.000; -110.000
291.428; -167.600; -599.000; -480.000
291.567;  -99.100; -370.000; -442.000
291.706;   53.600;  109.000;  154.000
291.845; -149.800; -597.000; -505.000
291.984; -338.100;-1234.000;-1061.000
292.122;  213.100;  602.000;  582.000
292.261;   86.700;  620.000;  463.000
292.400;   62.800; -144.000;  211.000
292.539; -226.100; -959.000; -813.000
292.678;   -3.800; -325.000; -300.000
292.816; -287.100;-1136.000; -965.000
292.955; -145.500; -844.000; -684.000
293.094;  -23.200; -173.000; -337.000
293.233;  -62.500; -556.000; -400.000
293.371;  -56.500; -225.000;  -84.000
293.510; -184.900; -866.000; -780.000
293.649; -244.700; -959.000; -924.000
293.787; -138.500;-1083.000;-1012.000
293.926;   11.200; -113.000;  -32.000
294.065;  -71.400; -379.000; -290.000
294.203;  142.500;  298.000;  406.000
294.342;   74.300;   74.000;  156.000
294.481;11484.300;51180.000; -836.000
294.619;  -25.800; -425.000; -582.000
294.758; -276.800;-1230.000;-1137.000
294.896;  196.700; -125.000;    5.000
295.035; -227.800;-1040.000;-1006.000
295.174; -208.200;-1082.000; -954.000
295.312;  -42.700; -323.000; -203.000
295.451;   -2.800; -307.000; -428.000
295.589;  -79.800; -389.000; -518.000
295.728;   69.600; -292.000; -165.000
295.866;   55.100;  -36.000;  -51.000
296.005;  -77.100; -584.000; -341.000
296.143; -113.200; -558.000; -596.000
296.282; -173.100; -957.000; -881.000
296.420; -156.800; -657.000; -557.000
296.559; -128.000; -892.000; -633.000
296.697;   66.800; -847.000; -665.000
296.835;  134.300;-1141.000;-1002.000
296.974;  141.500;  -23.000;   39.000
297.112;   65.400; -443.000; -504.000
297.251; -137.800; -815.000; -755.000
297.389;  187.000; -576.000; -438.000
297.527;   97.300; -145.000;  -83.000
297.666;  -77.200; -486.000; -438.000
297.804;  -61.300; -404.000; -264.000
297.942;   36.300; -136.000; -161.000
298.081;   22.400; -183.000;   63.000
298.219;  175.100;  -17.000;  -19.000
298.357;  135.200; -144.000;  -71.000
298.495;   79.900; -810.000; -812.000
298.634;  164.800;  245.000;  219.000
298.772;  159.800; -220.000; -338.000
298.910;  -66.300; -309.000; -182.000
299.048;   31.400; -130.000; -153.000
299.187;    1.000; -350.000; -250.000
299.325;   85.700;   52.000;  122.000
299.463;  117.300; -389.000; -299.000
299.601;  264.500; -327.000; -271.000
299.739; -174.300; -908.000; -883.000
299.877; -125.800; -791.000; -703.000
300.016; -132.100;-1095.000; -935.000
300.154;  365.700;  -19.000; -161.000
300.292;  122.500; -428.000; -348.000
300.430;   88.600; -408.000; -291.000
300.568; -214.500; -940.000; -874.000
300.706;  -67.900; -366.000; -469.000
300.844; -148.300;-1108.000; -979.000
300.982;  256.500;  246.000;  282.000
301.120; -223.000; -965.000; -866.000
301.258;  -84.500; -812.000; -705.000
301.396;  103.900;  104.000;  -41.000
301.534;  180.000; -218.000; -293.000
301.672;   -3.100; -664.000; -521.000
301.810;  102.500; -613.000; -545.000
301.948;  275.600;   53.000;  149.000
302.086; 1107.300; -250.000;  -32.000
302.224; 1765.200; -610.000; -585.000
302.362;  128.900; -558.000; -622.000
302.500;  -16.700; -923.000; -893.000
302.638;  248.800;  128.000;  245.000
302.776;   15.200; -352.000; -408.000
302.913;  161.800;  447.000;  236.000
303.051;   54.000;  -86.000;  -23.000
303.189;  162.900;   90.000;  118.000
303.327;  -48.500; -341.000; -256.000
303.465; -132.400; -832.000; -588.000
303.603; -176.200; -805.000; -604.000
303.740;  210.900;  417.000;  241.000
303.878;   58.100; -800.000; -759.000
304.016; -153.100; -915.000; -790.000
304.154; -252.500;-1123.000;-1152.000
304.291;  -45.100; -505.000; -554.000
304.429;   21.200;  102.000;   74.000
304.567; -236.700; -908.000; -893.000
304.705;  -77.600; -408.000; -515.000
304.842;  211.100; -616.000; -540.000
304.980;  135.600;  215.000;   35.000
305.118;  136.500; -367.000; -365.000
305.255; -138.300; -945.000; -927.000
305.393;  143.400;  178.000;  239.000
305.531; -159.800;-1173.000; -956.000
305.668; -133.100; -663.000; -582.000
305.806;  232.700; -358.000; -439.000
305.943;  239.200; -629.000; -637.000
306.081;  140.400; -378.000; -267.000
306.219; -170.800; -863.000; -748.000
306.356;   41.100;  158.000;   27.000
306.494;  318.300;  981.000;  761.000
306.631;   29.500;  -11.000;  -55.000
306.769;   52.100; -613.000; -485.000
306.906;   34.100; -284.000; -258.000
307.044;  -87.200; -473.000; -488.000
307.181;  -70.000; -410.000; -332.000
307.319;  161.300;  112.000;   87.000
307.456; -341.300;-1191.000;-1153.000
307.594; -179.900; -980.000; -727.000
307.731;   16.300; -371.000; -164.000
307.868;   27.000;  -15.000;   20.000
308.006; -222.300; -961.000; -847.000
308.143;  -94.200; -618.000; -330.000
308.281;  410.000;  -37.000; -254.000
308.418;   55.700; -748.000; -640.000
308.555;  -80.100; -400.000; -250.000
308.693;  -92.100; -577.000; -573.000
308.830; -151.100; -712.000; -657.000
308.967;   -6.300; -215.000;  -95.000
309.105;  -41.700; -507.000; -396.000
309.242;  151.200; -468.000; -367.000
309.379;  734.900; -577.000; -655.000
309.517;  -43.600; -936.000; -948.000
309.654; -154.500; -910.000; -734.000
309.791;  -75.100; -662.000; -580.000
309.928; -197.200; -977.000; -914.000
310.065;  422.400;  819.000;  697.000
310.203;   23.700; -825.000; -850.000
310.340;   53.300; -465.000; -321.000
310.477;  -89.500; -412.000; -516.000
310.614;  -49.400; -383.000; -473.000
310.751; -110.000; -427.000; -518.000
310.889;   13.200;    1.000;   11.000
311.026; -253.800;-1161.000; -939.000
311.163;  -54.800; -386.000; -380.000
311.300; -110.200; -512.000; -479.000
311.437; -108.500; -658.000; -619.000
311.574; -279.700;-1226.000; -985.000
311.711;  -91.200; -595.000; -433.000
311.848;  -12.800; -380.000; -388.000
311.985;  114.900;  270.000;   93.000
312.122; -198.600; -932.000; -762.000
312.259; -182.400; -941.000; -994.000
312.396;  -73.400; -508.000; -551.000
312.533; -105.800; -812.000; -790.000
312.670; -209.900;-1070.000; -898.000
312.807;   24.300; -352.000; -367.000
312.944;  -92.800; -513.000; -611.000
313.081;  -17.000; -150.000; -415.000
313.218; -181.600;-1111.000; -867.000
313.355;   55.600; -531.000; -449.000
313.492;   56.300; -455.000; -292.000
313.629;  344.000;  815.000;  735.000
313.766; -260.900;-1176.000;-1008.000
313.902;   39.400; -186.000;   21.000
314.039;  -67.800; -372.000; -289.000
314.176;  125.900;  286.000;  192.000
314.313;  -80.400; -569.000; -473.000
314.450;  -91.200; -788.000; -684.000
314.587;  -81.300; -468.000; -480.000
314.723;   77.700;  -78.000;  130.000
314.860;  154.300;  318.000;  332.000
314.997;  141.500;  223.000;  142.000
315.134;  -45.200; -385.000; -368.000
315.270;  -49.500; -480.000; -496.000
315.407; -187.700;-1094.000; -967.000
315.544;  -37.900; -657.000; -538.000
315.681; -108.100; -681.000; -565.000
315.817;   93.400; -133.000; -176.000
315.954;   57.200; -613.000; -392.000
316.091; -197.200;-1045.000;-1023.000
316.227;  -22.900;  -71.000; -179.000
316.364;   72.300;   23.000;    6.000
316.500;  -29.500; -113.000; -300.000
316.637;  -33.100; -181.000; -302.000
316.774; -168.700; -625.000; -358.000
316.910; -102.600; -598.000; -629.000
317.047;  -96.400; -487.000; -351.000
317.183;  -55.300; -435.000; -566.000
317.320;    2.600; -367.000; -321.000
317.456;  -99.700; -733.000; -805.000
317.593; -141.000; -598.000; -641.000
317.729;   55.200;  168.000;  -67.000
317.866; -377.100;-1434.000;-1285.000
318.002; -129.300; -708.000; -948.000
318.139; -150.700; -883.000; -867.000
318.275; -159.700;-1003.000; -738.000
318.412; -105.600; -517.000; -336.000
318.548;  -12.200; -751.000; -720.000
318.685; -154.200; -985.000; -888.000
318.821; -179.400; -762.000; -735.000
318.957;   34.300;   34.000;  -23.000
319.094;  145.200;  297.000;  154.000
319.230;  -97.100; -756.000; -742.000
319.367;  263.200; -471.000; -520.000
319.503;  133.700; -538.000; -436.000
319.639; -144.900; -877.000; -793.000
319.775;  -95.200; -750.000; -685.000
319.912;  -61.000; -424.000; -519.000
320.048; -186.300;-1184.000;-1184.000
320.184;  168.500;   59.000;   70.000
320.321;  -86.400; -497.000; -467.000
320.457;  184.400;  475.000;  662.000
320.593;  -85.100; -375.000; -382.000
320.729; -176.300; -732.000; -734.000
320.866; -106.000; -577.000; -635.000
321.002; -132.600; -759.000; -809.000
321.138;   -3.100; -135.000; -211.000
321.274;  177.300; -148.000; -115.000
321.410;  -30.500; -585.000; -353.000
321.546;  -52.600;-1011.000; -911.000
321.683;  159.700;  400.000;  185.000
321.819;   51.700;  -48.000; -117.000
321.955; -211.700; -743.000; -722.000
322.091;  -15.700; -585.000; -540.000
322.227;    0.300; -382.000; -202.000
322.363;  -19.600; -320.000; -215.000
322.499;  -86.500; -343.000; -331.000
322.635;  399.500;  636.000;  443.000
322.771;   72.600; -139.000;   12.000
322.907;  212.600;  129.000;  327.000
323.043;  -18.000; -115.000; -206.000
323.179;  -31.200; -394.000; -363.000
323.315;   69.200; -401.000; -371.000
323.451;  227.200; -328.000; -236.000
323.587;  168.200;  -60.000;  -77.000
323.723;   71.400; -682.000; -601.000
323.859;   -7.600; -258.000;  -76.000
323.995;  -34.600; -467.000; -409.000
324.131; -220.600; -967.000; -892.000
324.267;  -20.400; -254.000; -276.000
324.402; -221.500; -960.000; -983.000
324.538;   33.400; -279.000; -104.000
324.674;   89.400;  164.000;   77.000
324.810;  383.500;  226.000;  308.000
324.946;   61.900; -810.000; -658.000
325.082; -103.500; -568.000; -475.000
325.217;   25.400;  -62.000;   16.000
325.353; -178.200; -764.000; -659.000
325.489; -158.400; -540.000; -506.000
325.625; -107.700; -579.000; -525.000
325.760;  169.200;  517.000;  376.000
325.896;  -21.600; -515.000; -702.000
326.032;  -91.100; -403.000; -352.000
326.168;  -78.100; -462.000; -369.000
326.303;  -61.800; -352.000; -461.000
326.439;   18.900; -336.000; -276.000
326.575;   43.000; -190.000;  -29.000
326.710;   32.700; -156.000;  -30.000
326.846;   16.200;  146.000;  103.000
326.982; -137.900; -530.000; -548.000
327.117; -114.800; -481.000; -442.000
327.253; -153.100; -745.000; -742.000
327.388; -227.300;-1137.000;-1153.000
327.524;  -14.900; -811.000; -578.000
327.659;   -7.400;  -58.000;  -22.000
327.795;   23.900;   69.000;   45.000
327.931; -137.100; -723.000; -499.000
328.066;   22.200; -417.000; -276.000
328.202;   28.300;   12.000; -129.000
328.337;  292.200;  957.000;  713.000
328.473;    6.900;  -12.000;  -74.000
328.608;    6.000; -256.000; -267.000
328.743; -150.000; -799.000; -664.000
328.879;   91.100;  214.000;  114.000
329.014;  -90.200; -102.000; -122.000
329.150;  -94.600; -358.000; -483.000
329.285; -102.600; -465.000; -466.000
329.421;  -60.100; -548.000; -246.000
329.556;   14.700;  -36.000;   85.000
329.691; -117.200; -633.000; -615.000
329.827; -151.900; -626.000; -480.000
329.962;  -45.200;  131.000; -301.000
330.097; -136.700; -673.000; -585.000
330.233;  -49.800; -410.000; -223.000
330.368; -228.400; -839.000; -628.000
330.503;   33.800;    3.000;   98.000
330.638;   52.900;  -93.000; -125.000
330.774;  -69.900; -609.000; -530.000
330.909;  -19.800; -434.000; -244.000
331.044; -140.300; -714.000; -708.000
331.179; -314.200;-1217.000;-1109.000
331.315;   69.200;   77.000;   20.000
331.450;   51.100;  157.000;  285.000
331.585; -152.600; -805.000; -706.000
331.720; -142.000; -510.000; -460.000
331.855;    6.700;  -35.000; -102.000
331.990;  433.800;   62.000;  138.000
332.126;  282.100; -110.000;   71.000
332.261;  -13.900; -379.000; -265.000
332.396;   59.800; -135.000; -242.000
332.531; -166.100;-1074.000;-1031.000
332.666;   85.700; -519.000; -363.000
332.801; -178.000; -726.000; -807.000
332.936;   32.800; -192.000; -122.000
333.071; -256.500; -870.000; -817.000
333.206;   86.200;  307.000;  379.000
333.341;  132.400;  344.000;  418.000
333.476; -140.600; -627.000; -623.000
333.611;  -22.900; -251.000; -173.000
333.746;  -27.200; -381.000; -464.000
333.881; -225.000; -973.000; -935.000
334.016; -206.700; -936.000; -917.000
334.151; -184.300; -746.000; -702.000
334.286;   86.900;  152.000;  186.000
334.421;   28.600; -125.000; -178.000
334.556; -109.700; -611.000; -567.000
334.690; -140.600; -631.000; -577.000
334.825;  160.100;  381.000;   83.000
334.960;  -85.600; -285.000; -413.000
335.095;   62.000;  135.000;  -91.000
335.230; -186.200; -722.000; -738.000
335.365; -222.500;-1084.000; -990.000
335.499; -237.400;-1108.000;-1037.000
335.634;  111.100;    9.000;  534.000
335.769; -164.000; -755.000; -720.000
335.904;  -67.600; -603.000; -561.000
336.038;  -63.800; -735.000; -657.000
336.173; -162.100;-1206.000;-1194.000
336.308;   36.600; -116.000; -189.000
336.443;   14.400; -544.000; -634.000
336.577; -121.500; -936.000; -787.000
336.712;  185.500;   -4.000;  -12.000
336.847;  -48.800; -724.000; -607.000
336.981;  133.300; -272.000; -208.000
337.116;  593.500;  615.000;  501.000
337.250;  350.200; -434.000; -421.000
337.385;  389.100; -297.000; -208.000
337.520;  125.700; -632.000; -603.000
337.654;  -21.300; -215.000; -126.000
337.789; -188.800; -989.000; -933.000
337.923;  -55.100; -104.000; -205.000
338.058; -123.900; -673.000; -738.000
338.192;   -8.900; -611.000; -488.000
338.327;   49.800;  -18.000; -155.000
338.461; -106.600; -299.000; -469.000
338.596; -136.200; -780.000; -638.000
338.730; -156.700; -767.000; -803.000
338.865;  159.900;  -46.000; -140.000
338.999; -113.300; -846.000; -702.000
339.134;  -21.000; -634.000; -536.000
339.268;   12.200; -741.000; -603.000
339.403;  587.500; -740.000; -775.000
339.537;  167.800; -894.000; -820.000
339.671; -186.000; -829.000; -813.000
339.806;  -75.800; -556.000; -512.000
339.940;   37.700; -261.000; -235.000
340.074; -142.800; -685.000; -510.000
340.209;  -47.500; -351.000; -230.000
340.343; -136.400; -517.000; -573.000
340.477;  348.100;  998.000; 1036.000
340.612; -115.700;-1033.000; -900.000
340.746;  222.800; -199.000; -243.000
340.880;  -88.200; -924.000; -785.000
341.014;   42.900;  -45.000; -154.000
341.149; -221.500; -756.000; -718.000
341.283; -175.200; -839.000; -754.000
341.417; -150.700;-1124.000; -938.000
341.551;  312.600; -768.000; -708.000
341.685;    0.700; -633.000; -611.000
341.820;  -65.400; -562.000; -493.000
341.954;  -54.900; -218.000; -349.000
342.088; -261.200;-1102.000;-1019.000
342.222;  106.700;  565.000;  618.000
342.356;  -53.500; -395.000; -335.000
342.490; -155.200; -880.000; -841.000
342.624;  -55.100; -339.000; -242.000
342.758;   49.700; -364.000; -312.000
342.892;  -79.800; -710.000; -585.000
343.026;  -40.600;  -58.000; -116.000
343.160;  -81.800; -426.000; -376.000
343.294; -120.100; -474.000; -337.000
343.428;   23.000; -488.000; -448.000
343.562;   26.600; -172.000;  -23.000
343.696;   13.100; -385.000; -314.000
343.830;   -6.900; -362.000; -356.000
343.964;   87.700; -231.000; -168.000
344.098; 1728.700;  199.000;   70.000
344.232; 1466.500; -266.000; -127.000
344.366;  165.400; -567.000; -453.000
344.500;  158.000; -665.000; -744.000
344.634;  101.300; -324.000; -164.000
344.768;   12.600; -531.000; -341.000
344.902;   96.700;  278.000;  256.000
345.035; -101.600; -556.000; -496.000
345.169; -261.700; -933.000; -656.000
345.303;    0.700; -308.000; -482.000
345.437; -106.200; -826.000; -717.000
345.571;  -87.300; -675.000; -594.000
345.704;  -97.600; -309.000; -532.000
345.838;   19.900; -331.000; -284.000
345.972;   -3.900; -543.000; -495.000
346.106;  309.600; -179.000; -190.000
346.239;  769.700; -312.000; -243.000
346.373;   46.700; -343.000; -302.000
346.507; -246.000; -950.000; -962.000
346.640;  362.100;  -30.000;   13.000
346.774;  -23.700; -650.000; -797.000
346.908;   16.400; -138.000;  -11.000
347.041; -138.400; -646.000; -593.000
347.175;   56.700;  259.000;   27.000
347.309; -122.900; -698.000; -628.000
347.442; -147.000; -883.000; -732.000
347.576;  603.600;  670.000;  668.000
347.709;  427.300; -123.000;  -52.000
347.843; -139.500; -933.000; -825.000
347.976;  142.200;  235.000;  294.000
348.110; -329.900;-1268.000;-1186.000
348.243; -167.100; -679.000; -772.000
348.377;   60.000;  -26.000;   60.000
348.510;  176.300;  403.000;  540.000
348.644;  -11.500;  -37.000; -159.000
348.777;   31.600;  180.000;  191.000
348.911;  -41.200; -142.000; -112.000
349.044;  379.300;  471.000;  448.000
349.178;  288.000;-1069.000;-1006.000
349.311;  295.100;  141.000;  255.000
349.444;  -19.800; -927.000; -813.000
349.578;   14.500; -347.000; -200.000
349.711; -136.200; -959.000; -862.000
349.845;   22.500; -661.000; -591.000
349.978; -275.300;-1224.000;-1137.000
350.111; -112.100; -546.000; -612.000
350.244; -115.100; -596.000; -700.000
350.378;   58.300; -392.000; -393.000
350.511;  -80.500; -393.000; -426.000
350.644; -158.700; -808.000; -806.000
350.778;   36.900;  168.000;  104.000
350.911;   87.700;  134.000;  140.000
351.044; -126.400; -685.000; -615.000
351.177;   -9.300; -321.000; -281.000
351.310;   27.200;    3.000; -131.000
351.444;  -70.300; -888.000; -788.000
351.577;  289.000;  140.000;   90.000
351.710;  245.500;  593.000;  417.000
351.843;  -21.700; -165.000;  -77.000
351.976;   47.100;  149.000;  -79.000
352.109; -120.800; -621.000; -612.000
352.242;  -18.400; -464.000; -419.000
352.376;  -51.300; -580.000; -636.000
352.509;  370.600; -437.000; -356.000
352.642;   58.100; -654.000; -604.000
352.775;  127.800; -141.000;  -98.000
352.908; -167.800; -933.000; -904.000
353.041; -132.800; -814.000; -824.000
353.174;  -88.400; -551.000; -424.000
353.307; -121.700; -753.000; -764.000
353.440;  187.000;  541.000;  453.000
353.573; -210.100; -957.000;-1008.000
353.706;  -72.000; -384.000; -558.000
353.839;   19.700; -264.000; -220.000
353.971; -143.900; -657.000; -512.000
354.104; -136.700; -896.000; -835.000
354.237;  -62.700; -627.000; -662.000
354.370; -117.400; -846.000; -879.000
354.503; -332.900;-1231.000;-1308.000
354.636;    2.400; -529.000; -348.000
354.769; -190.200; -937.000; -860.000
354.902;   49.600; -230.000; -139.000
355.034;   10.700; -164.000; -220.000
355.167;   41.200; -262.000; -162.000
355.300; -159.000;-1061.000; -880.000
355.433; 1701.100;  -71.000;  -14.000
355.565; 2567.900; -402.000; -384.000
355.698;  660.600; -356.000; -296.000
355.831;   -0.600; -882.000; -801.000
355.964;  215.000; -285.000; -170.000
356.096; -137.000; -856.000; -843.000
356.229;   79.600; -523.000; -530.000
356.362;  522.000; -373.000; -266.000
356.494; 1004.800; -229.000; -162.000
356.627;  969.900;  269.000;  377.000
356.760; 1168.000;  120.000;   53.000
356.892; 1554.200; -286.000; -601.000
357.025; 1272.600;  403.000;  389.000
357.157; 1170.800; -167.000; -179.000
357.290; 1011.800; -856.000; -713.000
357.423;  304.800; -667.000; -556.000
357.555;  247.600; -217.000; -228.000
357.688;  275.000; -483.000; -364.000
357.820;  784.000; -870.000; -877.000
357.953; 6464.500; -563.000; -589.000
358.085; 1432.300; -632.000; -612.000
358.218; 2380.000;-1131.000; -932.000
358.350;  483.100;  -58.000;  312.000
358.483; -195.900;-1300.000;-1187.000
358.615;    5.900;-1182.000;-1078.000
358.747;  -47.500;-1187.000;-1058.000
358.880;  103.800; -810.000; -744.000
359.012;   26.600; -376.000; -202.000
359.145;  -13.900; -480.000; -511.000
359.277;   85.600; -962.000; -913.000
359.409; 5414.700;  536.000;  231.000
359.542; 1349.300; -738.000; -688.000
359.674;  202.500;   46.000;   13.000
359.806;  -68.400; -565.000; -438.000
359.939;  -69.400; -617.000; -516.000
360.071;    3.400; -583.000; -579.000
360.203;   17.700; -411.000; -364.000
360.335;  134.400;  164.000;  -16.000
360.468;  381.900; -249.000; -307.000
360.600; 4324.600; -547.000; -454.000
360.732; 4338.500; -546.000; -423.000
360.864;  562.700;-1216.000;-1044.000
360.996;  612.600; -516.000; -554.000
361.129;   99.800; -389.000; -598.000
361.261;   87.300;  110.000; -113.000
361.393;   21.200; -252.000; -214.000
361.525;  108.600;   94.000;  244.000
361.657;  -57.600; -821.000; -703.000
361.789;  132.400; -139.000; -155.000
361.921;  493.500; -642.000; -593.000
362.053;  590.500;  524.000;  541.000
362.185;  174.800;  288.000;   72.000
362.318;  -97.000; -709.000; -705.000
362.450;  334.600;  294.000;  444.000
362.582;  327.800; -913.000; -870.000
362.714;   -9.300; -353.000; -332.000
362.846; -112.000; -606.000; -490.000
362.978; -237.700; -941.000; -811.000
363.109;  146.000; -161.000; -260.000
363.241;  883.800; -739.000; -749.000
363.373;  708.400; -649.000; -564.000
363.505; 1095.100; -186.000;  -91.000
363.637;  263.600; -787.000; -601.000
363.769; -203.200;-1067.000;-1080.000
363.901;  -95.900; -596.000; -654.000
364.033; -201.100;-1103.000;-1062.000
364.165;   40.500; -283.000; -283.000
364.296;  172.600; -316.000; -177.000
364.428;   89.500;-1344.000;-1220.000
364.560; -132.100; -679.000; -661.000
364.692; -100.100; -738.000; -835.000
364.824;  604.100; -588.000; -456.000
364.955;  769.800; -402.000; -564.000
365.087; 1342.400;-1097.000; -852.000
365.219;   24.800; -686.000; -816.000
365.351;  -94.900; -526.000; -572.000
365.482;  148.300;  300.000;  240.000
365.614;  -65.900; -402.000; -314.000
365.746; -126.500; -729.000; -752.000
365.877; -167.500; -706.000; -672.000
366.009;  459.200;  -35.000;  -62.000
366.141; -192.400;-1249.000;-1134.000
366.272; -167.200; -803.000; -719.000
366.404; -188.500;-1005.000; -874.000
366.535;   61.700; -139.000;  -12.000
366.667; -164.000; -644.000; -649.000
366.799;  119.100;  353.000;  203.000
366.930; -186.900; -862.000; -996.000
367.062;  245.800; -639.000; -613.000
367.193;  216.900; -872.000; -842.000
367.325;  -69.700; -580.000; -684.000
367.456;  177.400; -246.000;   31.000
367.588;  319.800; -371.000; -318.000
367.719;   81.400;  -44.000;  -45.000
367.851;   33.800; -222.000; -241.000
367.982;  -46.500; -875.000; -732.000
368.113;  239.600; -475.000; -358.000
368.245; -224.300; -960.000; -841.000
368.376;   13.800; -254.000; -302.000
368.508;  -11.100; -188.000; -263.000
368.639; -240.500;-1166.000;-1034.000
368.770;   23.000; -670.000; -589.000
368.902;  -85.200; -836.000; -926.000
369.033; -202.100; -906.000; -855.000
369.164;  -30.000; -720.000; -653.000
369.296; -169.500; -452.000; -601.000
369.427;   43.200; -209.000; -144.000
369.558;  -52.600; -593.000; -377.000
369.689; -126.700; -721.000; -569.000
369.821; -229.800; -951.000; -845.000
369.952;   43.700;   42.000; -108.000
370.083;  -10.400; -229.000; -108.000
370.214; -108.900; -735.000; -650.000
370.345;    3.800;   65.000;   81.000
370.477; -123.400; -810.000; -790.000
370.608;  498.900; -328.000; -264.000
370.739;  -60.100;-1233.000;-1292.000
370.870;  -34.700;-1102.000; -923.000
371.001;  251.500; -378.000; -467.000
371.132; -100.500; -754.000; -735.000
371.263;   39.800;  -42.000; -148.000
371.394; -235.900; -841.000; -748.000
371.525;  163.100;  345.000;  225.000
371.657; -140.200; -808.000; -670.000
371.788;  192.600;  103.000;  199.000
371.919;  388.800; -384.000; -304.000
372.050; 6833.300;  -91.000; -156.000
372.181; 1955.500; -188.000; -294.000
372.311;  767.200;   42.000; -127.000
372.442;  126.400; -457.000; -451.000
372.573;   -3.900; -444.000; -340.000
372.704; -188.000;-1008.000; -980.000
372.835;  220.000; -228.000; -289.000
372.966;  -82.900; -646.000; -554.000
373.097;  -86.400; -575.000; -711.000
373.228;  -19.700; -717.000; -542.000
373.359;  351.700; -824.000; -536.000
373.490; 1832.400; -881.000; -727.000
373.620; 2203.200;-1001.000; -803.000
373.751; 3471.900; -332.000; -396.000
373.882; 1521.900; -663.000; -733.000
374.013;  198.200; -449.000; -262.000
374.143;   -5.600; -581.000; -659.000
374.274; -129.400; -987.000; -908.000
374.405;  346.500; -388.000; -276.000
374.536;  917.000; -526.000; -387.000
374.666; 2153.600; -759.000; -807.000
374.797;  474.500; -817.000; -868.000
374.928; 1726.600; -710.000; -560.000
375.058; 1714.300; -535.000; -500.000
375.189;  177.900;  -59.000;  -93.000
375.320; -184.500; -928.000;-1034.000
375.450;  -39.900; -625.000; -616.000
375.581;  -26.000; -526.000; -436.000
375.712;    1.100; -574.000; -250.000
375.842;  662.000; -438.000; -415.000
375.973;  414.700; -554.000; -513.000
376.103;  -22.700; -665.000; -648.000
376.234; -120.500; -531.000; -552.000
376.364;  -95.600; -944.000; -867.000
376.495;  728.200;  925.000;  529.000
376.625;   72.800; -472.000; -485.000
376.756;  158.800; -709.000; -678.000
376.886;  -87.000;-1178.000;-1026.000
377.017;   78.400;-1048.000;-1061.000
377.147;  599.700; -786.000; -782.000
377.278;  153.200;  174.000;  228.000
377.408; -227.200; -801.000; -815.000
377.538; -145.100; -707.000; -693.000
377.669;  -94.400; -537.000; -613.000
377.799; -114.700; -645.000; -635.000
377.929;  -64.500; -610.000; -428.000
378.060; -219.900; -781.000; -847.000
378.190;  -64.700; -726.000; -531.000
378.320;  -20.700; -401.000; -406.000
378.451;   44.300; -131.000;  -22.000
378.581;   43.500;  -67.000; -110.000
378.711;  379.900; 1035.000;  866.000
378.841;    6.000; -533.000; -675.000
378.972; -111.800; -871.000; -751.000
379.102;   39.200; -652.000; -579.000
379.232;   38.700; -126.000;  -73.000
379.362; -154.000;-1001.000; -885.000
379.492;   88.100; -373.000; -424.000
379.623;  274.500;    0.000;  111.000
379.753; -139.800;-1107.000; -974.000
379.883;  460.300;   59.000;  156.000
380.013;   27.500;-1081.000;-1017.000
380.143; -146.700;-1097.000;-1056.000
380.273; -158.400; -985.000; -861.000
380.403;   42.300; -344.000; -257.000
380.533;    6.600; -651.000; -664.000
380.663;  250.000;  173.000;  128.000
380.793; -128.000;-1027.000;-1074.000
380.923;   71.600; -103.000;  -34.000
381.053; -120.000; -613.000; -623.000
381.183;   28.900; -106.000; -248.000
381.313;  132.800; -656.000; -470.000
381.443;  143.700; -692.000; -473.000
381.573;  442.000; -402.000; -409.000
381.703;  621.600;-1249.000;-1095.000
381.833; -204.500;-1454.000;-1336.000
381.963;  294.800; -134.000;  -87.000
382.093; 2691.500; -925.000; -909.000
382.223;  762.300; -713.000; -602.000
382.353;   15.300; -801.000; -608.000
382.482;  809.300;-1091.000; -964.000
382.612; 1485.000; -872.000; -644.000
382.742;  809.300; -695.000; -622.000
382.872;  585.800; -565.000; -551.000
383.002;  239.400;  347.000; -132.000
383.131;   32.100; -226.000; -160.000
383.261;  -42.300; -706.000; -768.000
383.391;  543.300; -552.000; -377.000
383.521; 5092.700;  451.000;  263.000
383.650; 1053.500; -947.000; -904.000
383.780;    2.500; -783.000; -656.000
383.910;  294.600;  880.000;  802.000
384.039;  114.800; -794.000; -656.000
384.169;  446.400;-1205.000;-1017.000
384.299;   28.600; -650.000; -662.000
384.428; -111.100; -764.000; -680.000
384.558;   -8.100; -308.000; -275.000
384.687;  -15.200; -414.000; -334.000
384.817;  136.500;   75.000;   -2.000
384.947;  131.300; -234.000; -141.000
385.076;  640.300;  982.000;  912.000
385.206;  289.300;  369.000;  480.000
385.335;    8.700; -549.000; -417.000
385.465;  -84.700; -655.000; -663.000
385.594;  357.700;  -53.000;  -44.000
385.724;  907.300; -868.000; -838.000
385.853;  320.100; -296.000; -270.000
385.982; 2670.400; -743.000; -787.000
386.112; 3966.000;-1052.000; -871.000
386.241;  322.900; -307.000; -312.000
386.371;  118.300; -174.000;  -87.000
386.500;   60.400; -825.000; -789.000
386.629;  139.900; -874.000; -817.000
386.759;  211.100;  -43.000;   68.000
386.888;  120.400; -170.000; -250.000
387.017;  -61.100; -648.000; -620.000
387.147;  -65.700; -771.000; -798.000
387.276;   92.500; -410.000; -397.000
387.405;  109.200; -398.000; -342.000
387.535;    5.000; -452.000; -361.000
387.664;  -67.900; -692.000; -620.000
387.793;  208.200; -198.000; -113.000
387.922; 1115.400;  255.000;  200.000
388.052;  121.400; -576.000; -423.000
388.181;  149.100; -342.000; -472.000
388.310;  127.000; -889.000; -710.000
388.439;    4.900; -749.000; -742.000
388.568;  443.800;  365.000;  244.000
388.697; 2095.100; -756.000; -653.000
388.826;  436.900; -768.000; -666.000
388.956;  169.600; -285.000; -307.000
389.085;   31.400; -347.000; -287.000
389.214; -129.400; -842.000; -872.000
389.343;  -53.400; -645.000; -413.000
389.472;  750.500;  126.000;  149.000
389.601;  962.000;   91.000;    0.000
389.730;   75.900; -568.000; -687.000
389.859;  201.000;  226.000;   46.000
389.988;  441.500; -423.000; -408.000
390.117;  298.700; -168.000; -146.000
390.246;   82.000; -331.000; -320.000
390.375;  266.500; -673.000; -626.000
390.504;  -42.900; -703.000; -621.000
390.633;  -98.400; -672.000; -726.000
390.761;  -54.100; -732.000; -645.000
390.890;   89.900;   -4.000; -130.000
391.019;    1.000; -421.000; -441.000
391.148; -216.400; -826.000; -855.000
391.277;  -47.000; -576.000; -493.000
391.406;  -61.500; -821.000; -805.000
391.534;  115.800;  574.000; -301.000
391.663;  -59.200; -583.000; -645.000
391.792;  -98.100; -673.000; -701.000
391.921;  276.300;   -3.000;   15.000
392.050;  455.400; -287.000; -228.000
392.178;  -42.000;-1206.000;-1061.000
392.307;  308.800; -758.000; -712.000
392.436;  193.000; -427.000; -641.000
392.564;  103.200;  166.000;   -6.000
392.693; -130.700; -860.000; -682.000
392.822;  460.200; -529.000; -534.000
392.950;  186.600; -880.000; -714.000
393.079;  738.100; -188.000; -328.000
393.208;  102.600; -488.000; -511.000
393.336;   32.900; -170.000; -145.000
393.465;  -11.800; -317.000; -199.000
393.593;  118.500;   62.000;   79.000
393.722; -244.000;-1121.000; -916.000
393.850;   10.300; -188.000;  -61.000
393.979; -239.300; -926.000; -805.000
394.107;  -50.600; -517.000; -537.000
394.236;   19.700; -570.000; -507.000
394.364;  579.700;  383.000;  206.000
394.493;  813.400; -911.000; -767.000
394.621;   45.100; -955.000; -916.000
394.750; 1218.300; -873.000; -923.000
394.878; 5039.300; -247.000; -149.000
395.007; 6440.900; -721.000; -807.000
395.135;  491.200; -790.000; -721.000
395.263; -144.000;-1038.000;-1040.000
395.392;   84.100;  -25.000; -107.000
395.520; -153.300; -818.000; -679.000
395.648; -137.100; -865.000; -915.000
395.777;   32.600; -366.000; -405.000
395.905;  -23.900; -449.000; -564.000
396.033;  124.200;  217.000;  172.000
396.162; 1432.000; -399.000; -453.000
396.290; 1165.500;  -17.000;   -2.000
396.418;  248.800; -555.000; -514.000
396.546; -121.300; -571.000; -466.000
396.674; -142.800; -850.000; -878.000
396.803;   66.800;  -72.000;  -23.000
396.931;  265.500; -179.000; -199.000
397.059;  167.000;-1026.000; -989.000
397.187; -181.100;-1026.000; -975.000
397.315; -209.400; -884.000; -649.000
397.443; -126.300; -592.000; -443.000
397.572; -122.400; -578.000; -424.000
397.700;   31.400; -607.000; -614.000
397.828;   65.000;  120.000;  -90.000
397.956;  -27.400; -508.000; -478.000
398.084; -101.300; -767.000; -626.000
398.212;  151.700;  137.000;  124.000
398.340;   80.100;  -56.000;  159.000
398.468;  141.600; -390.000; -169.000
398.596; -228.500; -993.000; -953.000
398.724; -185.100; -762.000; -767.000
398.852; -290.500;-1024.000; -976.000
398.980;  -54.500; -560.000; -560.000
399.108;  -63.200; -982.000; -735.000
399.236;  134.100;   13.000;    8.000
399.363;   42.300;  222.000;  196.000
399.491;  -60.800; -404.000; -398.000
399.619; -187.200; -829.000; -800.000
399.747; -159.100; -859.000; -771.000
399.875;  233.600;  220.000;  234.000
400.003;  -38.000; -359.000; -284.000
400.130; -118.300; -421.000; -341.000
400.258;    3.800;  -83.000;   38.000
400.386;  -76.100; -352.000; -168.000
400.514;  -17.900; -526.000; -587.000
400.641; -120.100; -928.000; -802.000
400.769; -215.500; -979.000; -888.000
400.897; -121.300; -838.000; -793.000
401.025;   60.400; -166.000; -152.000
401.152;   57.700;  220.000;   38.000
401.280; -106.400; -430.000; -429.000
401.408; -190.400; -712.000; -576.000
401.535; -120.900; -735.000; -758.000
401.663; -321.100;-1134.000;-1054.000
401.790;  -88.900; -514.000; -525.000
401.918;  137.700;  436.000;  405.000
402.046;   48.300;  134.000;  122.000
402.173;   -2.200;  -18.000;    7.000
402.301;  -75.900; -519.000; -397.000
402.428;  159.900;  528.000;  383.000
402.556; -227.500;-1188.000; -913.000
402.683;  -10.800;  -20.000;   -1.000
402.811;   41.700;  -37.000; -206.000
402.938;   42.200;   20.000;   27.000
403.066;  400.700; -574.000; -558.000
403.193;  614.700;  299.000;  239.000
403.321;  520.100; -396.000; -574.000
403.448;  644.300;   83.000;   27.000
403.575;  312.900;  -90.000;  -46.000
403.703; -135.800; -732.000; -557.000
403.830;  -72.800; -531.000; -496.000
403.957; -229.800;-1117.000;-1023.000
404.085;   84.800;  -61.000; -172.000
404.212;  251.400;  -50.000;   63.000
404.339;  499.500; -566.000; -306.000
404.467; 9934.100; -612.000; -524.000
404.594; 6356.400; -287.000; -227.000
404.721; 1527.600; -869.000; -764.000
404.848;  172.100; -113.000; -202.000
404.976; -141.700; -856.000; -783.000
405.103;   62.700;  -14.000;  -82.000
405.230;   99.000;  190.000;  226.000
405.357;  122.600;  117.000;   44.000
405.484;  461.500;  -49.000;    5.000
405.612;   90.900; -548.000; -563.000
405.739;  -52.100; -488.000; -243.000
405.866;  246.000;  669.000;  385.000
405.993;  -21.400; -398.000; -102.000
406.120; -198.200; -801.000; -887.000
406.247;  -73.200; -323.000; -342.000
406.374; 1001.700;  540.000;  629.000
406.501;  259.300; -632.000; -702.000
406.628;  -88.600; -621.000; -589.000
406.755; -136.500; -803.000; -620.000
406.882;  -10.900; -228.000; -277.000
407.009; -103.800; -719.000; -628.000
407.136;  203.800; -480.000; -401.000
407.263;  315.500; -939.000; -829.000
407.390;  -87.900; -692.000; -614.000
407.517; -264.700;-1139.000;-1187.000
407.644;  -28.100; -332.000; -256.000
407.771;  -57.500; -249.000; -287.000
407.898;  121.800;  168.000;  328.000
408.025;  -88.300; -421.000; -313.000
408.151;   48.800;   82.000;  153.000
408.278;  -84.600; -267.000; -216.000
408.405; -192.000; -931.000; -899.000
408.532;  -97.300; -549.000; -542.000
408.659; -146.600; -677.000; -648.000
408.785; -321.300;-1298.000;-1170.000
408.912;  -67.000; -412.000; -296.000
409.039; -155.000; -610.000; -686.000
409.166; -132.600; -591.000; -555.000
409.292; -166.300; -571.000; -534.000
409.419; -178.500; -665.000; -649.000
409.546;  -97.400; -431.000; -192.000
409.672; -164.100; -713.000; -545.000
409.799;  -17.000;  -36.000;   34.000
409.926;   -5.800; -180.000; -179.000
410.052; -319.000;-1127.000;-1091.000
410.179;  -20.200; -368.000; -392.000
410.305; -101.500; -375.000; -493.000
410.432;   -1.300; -220.000; -333.000
410.558;  -92.400; -305.000; -380.000
410.685; -142.000; -688.000; -431.000
410.812; -131.000; -409.000; -588.000
410.938; -199.800; -964.000; -808.000
411.065; -156.600; -671.000; -645.000
411.191;   64.600; -189.000; -174.000
411.317; -161.100; -823.000; -742.000
411.444;  -54.100; -317.000; -246.000
411.570;  -57.900; -339.000; -294.000
411.697; -178.200; -758.000; -752.000
411.823; -286.600; -989.000; -999.000
411.949;   15.800;  -56.000;   17.000
412.076; -149.300; -539.000; -519.000
412.202; -149.600; -758.000; -757.000
412.329; -199.400; -798.000; -752.000
412.455; -155.100; -821.000; -657.000
412.581;    9.100;  -15.000;  172.000
412.707;  -56.700; -540.000; -457.000
412.834;   93.500;  156.000;  219.000
412.960;  -86.700; -785.000; -784.000
413.086; -156.500; -743.000; -701.000
413.212;  395.200;  604.000;  578.000
413.339;  -72.800; -685.000; -701.000
413.465;   80.400; -364.000; -310.000
413.591; -139.300; -757.000; -474.000
413.717;  -44.300; -358.000; -366.000
413.843; -187.000; -839.000; -861.000
413.969;  -44.700;  -47.000; -292.000
414.096; -152.300; -679.000; -679.000
414.222;   74.400;  -33.000;   85.000
414.348;   -4.100; -652.000; -385.000
414.474;  294.000;   38.000;  -52.000
414.600;   28.900; -126.000; -144.000
414.726;   57.200;  -96.000;  -55.000
414.852;  -42.900; -365.000; -342.000
414.978;  125.500;  104.000;  -18.000
415.104;  119.200;   38.000;   80.000
415.230;   82.300; -329.000; -330.000
415.356;  141.300; -409.000; -514.000
415.482;  426.600;   13.000;  -35.000
415.608;  527.000; -247.000; -323.000
415.734; 1850.100;   67.000;   38.000
415.860;35914.600; -875.000; -767.000
415.986;23613.800; -685.000; -607.000
416.111; 1979.700; -798.000; -652.000
416.237;  461.800; -424.000; -571.000
416.363; 2146.300; -765.000; -733.000
416.489; 6867.600; -324.000; -251.000
416.615;  642.600; -707.000; -742.000
416.741;  -20.700; -677.000; -784.000
416.866; -159.800; -673.000; -736.000
416.992; -181.500; -801.000; -818.000
417.118;   -7.400;  -41.000;  -80.000
417.244;  -66.600; -798.000; -531.000
417.369; -103.900; -801.000; -612.000
417.495;   45.800; -325.000; -254.000
417.621; -124.700;-1015.000; -803.000
417.746;   82.900; -579.000; -572.000
417.872;  155.400; -254.000; -144.000
417.998;  109.700; -515.000; -530.000
418.123; 1944.400;-1073.000; -845.000
418.249; 8981.100; -512.000; -601.000
418.374; 1134.500; -916.000; -824.000
418.500;  216.500; -383.000; -482.000
418.626;  266.600;   70.000;  -59.000
418.751;  243.900; -549.000; -448.000
418.877;  352.400; -637.000; -643.000
419.002; 3432.500; -688.000; -560.000
419.128;21228.100; -930.000; -721.000
419.253; 4543.400; -967.000; -837.000
419.379;  633.400; -391.000; -338.000
419.504;  763.700;  325.000;  415.000
419.629;  873.000; -393.000; -212.000
419.755; 6342.200; -317.000; -254.000
419.880;33647.900;  -98.000;   67.000
420.006;19745.700; -280.000; -221.000
420.131;48528.000; -662.000; -775.000
420.256; 6338.100; -315.000; -316.000
420.382;  870.100; -665.000; -687.000
420.507;  118.300; -649.000; -778.000
420.632;  301.600; -337.000; -339.000
420.758;  543.100; -251.000; -425.000
420.883; -117.500; -876.000; -672.000
421.008; -112.400; -775.000; -619.000
421.133; -110.800; -509.000; -467.000
421.259;  -35.800; -325.000; -259.000
421.384; -161.500; -834.000; -693.000
421.509;  -39.500;-1052.000; -862.000
421.634; 2507.100; -936.000; -820.000
421.759;  950.600; -359.000; -327.000
421.885;  -26.400; -717.000; -656.000
422.010;  -91.500; -673.000; -542.000
422.135; -256.500; -695.000; -727.000
422.260;  169.700;  340.000;  280.000
422.385;  -17.800;   12.000;  -98.000
422.510;  101.300;  151.000;  -26.000
422.635;  136.600;  -87.000;  -43.000
422.760;  212.000; -766.000; -791.000
422.885;  150.600;  -57.000;  -80.000
423.010;   13.100; -112.000; -169.000
423.135; -135.000; -481.000; -561.000
423.260;   88.600; -150.000; -245.000
423.385;  192.500;  476.000;  222.000
423.510;  119.100;   71.000;  -22.000
423.635;  177.200;  133.000;   45.000
423.760;  173.900;  383.000;  328.000
423.885;  182.300;  336.000;  391.000
424.010;   65.400;  -68.000;  -13.000
424.135;   10.500;    5.000;  -33.000
424.259;  -98.400; -654.000; -457.000
424.384;  -26.500; -279.000; -272.000
424.509;   23.800; -260.000; -186.000
424.634; -141.100; -761.000; -623.000
424.759;  -38.500; -688.000; -544.000
424.883;   -4.100; -506.000; -527.000
425.008;  370.200; -502.000; -410.000
425.133; 3466.500; -679.000; -653.000
425.258; 1458.100; -517.000; -381.000
425.382; 2013.900; -867.000; -774.000
425.507; 4667.500; -487.000; -543.000
425.632;  671.700; -802.000; -663.000
425.756;  731.600; -256.000; -146.000
425.881;11262.400; -831.000; -857.000
426.006;26678.900; -604.000; -355.000
426.130; 3915.400; -696.000; -508.000
426.255;  533.600; -611.000; -491.000
426.379;  303.800; -189.000; -577.000
426.504;  739.500;  660.000;  544.000
426.629; 7458.600; -519.000; -466.000
426.753; 4551.100;   64.000;  -46.000
426.878;  546.600; -252.000; -288.000
427.002;  370.400; -651.000; -668.000
427.127; 2987.300;  -35.000; -158.000
427.251;19421.800;  372.000;  401.000
427.375; 4925.100; -191.000; -173.000
427.500; 4191.300; -616.000; -610.000
427.624; 1318.900; -234.000; -400.000
427.749;  268.200; -216.000; -225.000
427.873;  -28.000; -499.000; -412.000
427.997;    5.700; -222.000; -230.000
428.122;  239.100;  795.000;  703.000
428.246;  247.900;  433.000;  434.000
428.371; -191.200; -869.000; -773.000
428.495; -131.800; -624.000; -646.000
428.619;   42.700; -186.000; -117.000
428.743;  139.900;   65.000;  132.000
428.868;  115.400; -732.000; -643.000
428.992; 2706.900; -219.000; -326.000
429.116; 1051.100; -329.000; -357.000
429.240;  569.400;  419.000;  426.000
429.365;   33.400; -454.000; -574.000
429.489;  -17.200; -638.000; -647.000
429.613;  139.300; -236.000; -177.000
429.737;  137.700; -563.000; -432.000
429.861;  562.800; -247.000; -133.000
429.985;10030.900; -425.000; -305.000
430.109; 9803.700; -770.000; -908.000
430.234; 1179.500;   76.000;  -50.000
430.358;  195.500; -250.000; -160.000
430.482;  -23.800; -672.000; -564.000
430.606;  -43.100; -655.000; -375.000
430.730;  124.500; -437.000; -388.000
430.854;  355.100; -909.000; -835.000
430.978;   -8.200; -795.000; -764.000
431.102;  -66.900; -499.000; -422.000
431.226; -108.800; -874.000; -815.000
431.350;  183.000;  345.000;  422.000
431.474;  -31.200; -661.000; -373.000
431.597; -233.200;-1060.000; -848.000
431.721;  -86.700; -276.000; -267.000
431.845; -181.400; -704.000; -472.000
431.969; -103.700; -304.000; -349.000
432.093;  -66.700; -395.000; -317.000
432.217;   49.200;   32.000;   82.000
432.341; -104.700; -523.000; -518.000
432.464;  105.600;   96.000;   40.000
432.588;  457.400; -401.000; -329.000
432.712;  251.700;  -52.000;  -52.000
432.836;  125.200;  213.000;  263.000
432.959;    1.800; -372.000; -311.000
433.083;  232.600;   11.000;    2.000
433.207;  722.000;  285.000;  930.000
433.330; 8895.200; -391.000; -200.000
433.454; 9868.300; -654.000; -638.000
433.578; 5970.700;  583.000;  278.000
433.701; 1030.600; -623.000; -675.000
433.825;  299.000; -292.000; -299.000
433.949;  452.400;   28.000;  -72.000
434.072;  166.400; -410.000; -323.000
434.196;   25.800; -309.000; -117.000
434.319; 7962.000;25482.000;25124.000
434.443; 1441.600; -656.000; -603.000
434.566; 4485.400;  281.000;   62.000
434.690;  676.400; -637.000; -383.000
434.813;  153.400; -251.000; -173.000
434.937;  -83.300; -569.000; -696.000
435.060;   12.400; -423.000; -332.000
435.184;  736.600; -492.000; -217.000
435.307;  405.400;  159.000;  102.000
435.431;   52.100;  -40.000;   24.000
435.554;  -88.400; -399.000; -240.000
435.677; -103.900; -350.000; -258.000
435.801;    4.900;  -25.000;   49.000
435.924;   71.100;    1.000;  -67.000
436.048; -173.200;-1019.000; -732.000
436.171;  -56.600; -240.000;  -66.000
436.294;    3.100; -248.000; -229.000
436.417;  201.500; -963.000; -849.000
436.541; -125.500; -814.000; -840.000
436.664;  -16.000; -242.000; -316.000
436.787;   23.400;   13.000;  113.000
436.910; -152.300; -792.000; -422.000
437.034;  105.600;  142.000;  143.000
437.157;  222.100;  -11.000;    0.000
437.280;  -50.200; -392.000; -292.000
437.403;  -90.100; -982.000; -869.000
437.526; 1503.000; -903.000; -865.000
437.649; 4703.400; -505.000; -332.000
437.772;  613.200; -692.000; -540.000
437.896;  348.900;  700.000;  544.000
438.019; -118.300; -758.000; -503.000
438.142;  -81.600; -596.000; -506.000
438.265;   65.000; -639.000; -670.000
438.388; 1231.400; -520.000; -410.000
438.511;  221.000; -597.000; -394.000
438.634;    3.200; -247.000; -125.000
438.757; -187.300; -693.000; -619.000
438.880;   14.400;  -34.000;  -57.000
439.003;  -75.200; -417.000; -437.000
439.126;  -32.600; -287.000; -167.000
439.248;  -27.100;  -98.000; -139.000
439.371;  -12.600;    9.000;  -53.000
439.494;  154.100;  510.000;  439.000
439.617;  -34.900;   65.000;  -88.000
439.740; -303.600; -968.000; -816.000
439.863; -190.200; -755.000; -595.000
439.986; -184.700; -476.000; -431.000
440.108;  -30.400; -161.000; -112.000
440.231; -282.900; -950.000; -836.000
440.354;  -25.300;  -64.000; -150.000
440.477;  113.900; -566.000; -542.000
440.599;  105.400; -200.000; -225.000
440.722; -187.700; -709.000; -586.000
440.845;  227.700;  751.000;  928.000
440.968; -123.900; -415.000; -311.000
441.090;  -51.800; -199.000;  -33.000
441.213; -302.400;-1021.000; -825.000
441.336;  -19.100; -159.000;   -5.000
441.458; -103.100; -549.000; -396.000
441.581; -113.500; -628.000; -629.000
441.703; -105.400; -152.000;   13.000
441.826; -165.400; -557.000; -400.000
441.948;  -25.700;   56.000;   51.000
442.071;  170.300;  555.000;  424.000
442.193; -162.900; -531.000; -485.000
442.316;  104.100;  152.000;   97.000
442.438;  127.200; -233.000;  -10.000
442.561;  222.600;  272.000;  262.000
442.683; 1235.800; -809.000; -522.000
442.806; 2370.700;   -8.000;   74.000
442.928;   58.100; -859.000; -604.000
443.051;  -34.100; -577.000; -373.000
443.173; -131.500; -341.000; -339.000
443.295;  -88.800; -263.000; -371.000
443.418;  -86.800; -321.000;  -29.000
443.540;   76.900; -106.000;   -4.000
443.662; -155.100; -563.000; -465.000
443.785;   42.800;  335.000;  199.000
443.907; -164.500; -362.000; -208.000
444.029; -169.700; -767.000; -494.000
444.152; -225.900; -644.000; -554.000
444.274;   32.000;  -18.000;  -24.000
444.396; -138.300; -461.000; -221.000
444.518; -181.400; -691.000; -454.000
444.640; -139.200; -268.000; -111.000
444.763;   44.400;  388.000;  249.000
444.885; -167.500; -432.000; -392.000
445.007;   15.500;   35.000;   86.000
445.129; -188.700; -610.000; -515.000
445.251; -136.400; -372.000; -439.000
445.373; -194.900; -537.000; -386.000
445.495;   78.400;  242.000;  350.000
445.617;  206.700;  853.000;  753.000
445.739;  -49.800; -215.000;  -97.000
445.861;   35.600; -245.000; -112.000
445.984;  -27.800; -267.000; -101.000
446.105;  514.100; -418.000; -251.000
446.227; 1239.300; -176.000;  -19.000
446.349;   33.700; -358.000; -249.000
446.471; -148.500; -615.000; -448.000
446.593;  -56.800; -316.000;   19.000
446.715;   75.700;  -67.000;   41.000
446.837;  190.300;  697.000;  832.000
446.959; -144.800; -457.000; -478.000
447.081; -188.800; -628.000; -518.000
447.203;  192.600;  862.000;  834.000
447.325; -111.000; -270.000;   42.000
447.446;   99.800;  286.000;  530.000
447.568; -258.300; -921.000; -803.000
447.690; -104.200; -236.000; -245.000
447.812; -224.100; -798.000; -519.000
447.933;   45.800;  155.000;  127.000
448.055;  -64.000; -306.000; -261.000
448.177;  408.800;   31.000;   79.000
448.299;  186.300; -935.000; -727.000
448.420;  128.600;  -25.000;  159.000
448.542;  -36.000;   -3.000;   33.000
448.664;   19.400;  109.000;  322.000
448.785;   25.700;  265.000;   83.000
448.907; -101.200; -614.000; -353.000
449.028;  -29.300; -771.000; -471.000
449.150;  191.300;  492.000;  589.000
449.272; -284.100;-1044.000; -913.000
449.393;  155.700;  612.000;  694.000
449.515; -235.000; -634.000; -581.000
449.636;  -10.300; -264.000; -155.000
449.758;  219.900;  763.000;  622.000
449.879; -139.200; -498.000; -396.000
450.001; -105.200; -149.000;  -49.000
450.122;   23.700;  -95.000;  162.000
450.244;   22.100;   37.000;  364.000
450.365; -117.300; -495.000; -301.000
450.486;   17.100;   80.000;  268.000
450.608;  131.800;  393.000;  326.000
450.729;  211.400;  578.000;  645.000
450.850;   53.800; -574.000; -466.000
450.972; 1300.700; -552.000; -389.000
451.093; 8323.500;  190.000;  588.000
451.214; 3065.600; -516.000; -337.000
451.336;  678.200;  773.000;  579.000
451.457;  150.900;  264.000;  393.000
451.578;   -6.100; -118.000;  -74.000
451.699; -207.100; -546.000; -540.000
451.821;  -54.900; -284.000;  -50.000
451.942;   85.500;  278.000;  285.000
452.063;  125.700;  228.000;  419.000
452.184; 1044.900;  -54.000;  -49.000
452.305; 1859.100;  103.000;  170.000
452.427;  176.600; -549.000; -301.000
452.548;   27.100;   23.000;   79.000
452.669;  -28.700; -257.000;  -89.000
452.790;  -35.300;    3.000;  -18.000
452.911;   52.900;  195.000;  259.000
453.032;  -44.800; -289.000;  -60.000
453.153;  -21.800;  -29.000;   81.000
453.274;  216.200;  737.000;  868.000
453.395;  -39.500;  -51.000;  175.000
453.516;  354.400; 1317.000; 1388.000
453.637;  -64.500; -205.000; -150.000
453.758;  -26.200;   15.000;   69.000
453.879; -189.400; -462.000; -250.000
454.000;  276.000; 1086.000;  948.000
454.121; -164.800; -554.000; -326.000
454.242; -143.800; -599.000; -383.000
454.362;  -36.900;  -99.000;  114.000
454.483;   24.100; -309.000; -229.000
454.604;  189.800;  512.000;  580.000
454.725; -189.500; -627.000; -555.000
454.846; -175.400; -474.000; -406.000
454.967;    3.700;  230.000;  539.000
455.087;  -34.900;  179.000;  153.000
455.208;  140.700;  554.000;  856.000
455.329;  -44.800;  -22.000;   82.000
455.450;  154.800;  473.000;  633.000
455.570;  -99.200; -234.000; -211.000
455.691;  -36.800;  201.000;  407.000
455.812; -147.500; -270.000;  -92.000
455.932;  -51.800;  107.000;  -97.000
456.053;  -82.900;   36.000;   24.000
456.173; -134.900; -433.000; -355.000
456.294; -199.700; -476.000; -303.000
456.415;  -37.600;  -73.000;   70.000
456.535;   11.200;  297.000;  273.000
456.656;   -1.800;  132.000;  240.000
456.776;  -78.600;    3.000;  298.000
456.897;   56.300;  308.000;  513.000
457.017;  -63.100; -153.000;   -3.000
457.138; -136.000; -402.000; -249.000
457.258;   14.000;  263.000;  224.000
457.379;   36.900;  509.000;  521.000
457.499;   29.500;  443.000;  432.000
457.620; -184.400; -407.000; -231.000
457.740; -132.800; -132.000;  -11.000
457.860;  -57.600;   87.000;   44.000
457.981;  -12.500;  132.000;  124.000
458.101;  -93.600;  -89.000;   40.000
458.221;   24.300;  336.000;  402.000
458.342;  -37.700;   -4.000;  -37.000
458.462;   88.500;  617.000;  352.000
458.582;  -21.700; -302.000; -294.000
458.703;   55.300;  303.000;  154.000
458.823;   42.300;   22.000;  163.000
458.943;  135.500;  341.000;  467.000
459.063;   52.600; 1124.000;  192.000
459.183;   37.100;  328.000;  313.000
459.304;   93.600;  315.000;  517.000
459.424;  -70.000; -246.000;  -89.000
459.544;  689.600;  388.000;  764.000
459.664; 1506.900;  499.000;  506.000
459.784;  581.900; 1004.000; 1175.000
459.904;  161.900;  867.000;  744.000
460.024;  213.700;  867.000;  684.000
460.144;   76.900;  449.000;  554.000
460.264;   89.700;  515.000;  327.000
460.385; -117.700; -145.000; -119.000
460.505;  163.600;  905.000;  858.000
460.625; -110.300;  -17.000;  -68.000
460.745;   46.300;  396.000;  541.000
460.864;   15.500;  153.000;  469.000
460.984;  118.500;  499.000;  573.000
461.104;  351.500; 1656.000; 1775.000
461.224;  115.300;  657.000;  650.000
461.344;   29.000;  431.000;  360.000
461.464;   14.300;  258.000;  513.000
461.584;   53.800;  283.000;  466.000
461.704;   39.800;   58.000;  108.000
461.824;  -50.000;  238.000;  259.000
461.943;    1.400;  191.000;  130.000
462.063;  -72.800;    2.000;  324.000
462.183;  148.600;  639.000;  717.000
462.303;  256.300; 1678.000; 1230.000
462.422;  131.200;  781.000;  840.000
462.542;    7.900;  271.000;  391.000
462.662;  135.900;  353.000;  380.000
462.782;  536.600;  833.000;  572.000
462.901;  874.500;  545.000;  717.000
463.021;  580.800; 1702.000; 1638.000
463.141;   41.600;  337.000;  770.000
463.260;   43.400;  614.000;  474.000
463.380;  111.100;  902.000;  884.000
463.499;  -15.300;  342.000;  332.000
463.619;   19.900;  581.000;  559.000
463.738;  285.800; 1644.000;  903.000
463.858;  131.500;  657.000;  811.000
463.978;   21.500;  542.000;  396.000
464.097;  179.300;  921.000; 1114.000
464.217;  304.500; 1196.000; 1143.000
464.336;  309.300; 1068.000; 1130.000
464.455;  -12.100;  328.000;  659.000
464.575;  147.300;  597.000;  602.000
464.694;  429.200; 1204.000; 1179.000
464.814;  328.900; 1190.000; 1138.000
464.933;  244.300; 1095.000; 1027.000
465.052;  284.700; 1412.000; 1054.000
465.172;  224.500;  922.000;  799.000
465.291;  379.700; 1376.000; 1320.000
465.410;  114.600;  462.000;  735.000
465.530;  231.900; 1355.000; 1310.000
465.649;  228.300; 1209.000; 1273.000
465.768;  408.100; 1673.000; 1508.000
465.888;  159.300;  941.000; 1174.000
466.007;  275.000; 1335.000; 1440.000
466.126;   78.300;  721.000;  641.000
466.245;  166.200; 1176.000; 1187.000
466.364;  142.100;  950.000; 1060.000
466.484;  221.100; 1024.000; 1213.000
466.603;  145.000; 1101.000; 1222.000
466.722;  349.000; 1490.000; 1769.000
466.841;  255.600; 1151.000; 1401.000
466.960;  169.100; 1069.000;  972.000
467.079;  337.400; 1971.000; 1786.000
467.198;  181.300; 1238.000; 1181.000
467.317;  272.100; 1768.000; 1162.000
467.436;  258.100; 1709.000; 1261.000
467.555;  325.600; 1796.000; 1746.000
467.674;  207.600; 1227.000; 1329.000
467.793;  192.400; 1376.000; 1374.000
467.912;  254.900; 1658.000; 1539.000
468.031;  363.900; 2038.000; 1930.000
468.150;  426.100; 1842.000; 1837.000
468.269;  480.800; 2313.000; 2090.000
468.388;  501.000; 2168.000; 2339.000
468.507;  596.000; 2884.000; 2903.000
468.626;  665.400; 2555.000; 2541.000
468.744;  357.800; 2018.000; 2174.000
468.863;  493.800; 2312.000; 2523.000
468.982;  235.700; 1503.000; 1555.000
469.101;  576.300; 2788.000; 2692.000
469.220;  385.800; 2333.000; 2176.000
469.338;  598.200; 2935.000; 3051.000
469.457;  490.900; 2719.000; 2545.000
469.576;  778.200; 3953.000; 3784.000
469.695;  560.200; 2877.000; 3066.000
469.813;  916.600; 4148.000; 4192.000
469.932;  878.800; 4255.000; 4485.000
470.051;  943.200; 4075.000; 4161.000
470.169; 1677.100; 4470.000; 4338.000
470.288; 2689.400; 4700.000; 4809.000
470.406; 1650.500; 5059.000; 5194.000
470.525; 1321.000; 6101.000; 5787.000
470.644; 1396.500; 6847.000; 6794.000
470.762; 1797.800; 8397.000; 7873.000
470.881; 1862.100; 8651.000; 8464.000
470.999; 2175.000; 9685.000; 9151.000
471.118; 2275.500;11174.000;10711.000

