
Integration time [ms]: 200.000
Averaging Nr. [scans]: 10
Smoothing Nr. [pixels]: 0
Data measured with spectrometer [name]: 2101012U2
Wave   ;Sample   ;Dark     ;Reference
[nm]   ;[counts] ;[counts] ;[counts] 

197.733;  104.600;  516.000;  404.000
197.879; -168.100; -610.000; -634.000
198.025; -100.500; -475.000; -420.000
198.171; -160.700; -602.000; -612.000
198.317;  -86.200; -401.000; -316.000
198.463; -102.200; -655.000; -404.000
198.609;   49.400;  181.000; -137.000
198.755; -155.600; -644.000; -410.000
198.901; -159.400; -505.000; -424.000
199.047; -142.700; -615.000; -488.000
199.193;  -88.800; -230.000; -468.000
199.339;  -70.000; -222.000; -369.000
199.485;   71.300;  330.000;  271.000
199.631;   33.700;  227.000;  310.000
199.777; -109.900; -466.000; -398.000
199.923; -123.800; -610.000; -424.000
200.069;  -23.900; -141.000;  -58.000
200.215;  128.800;  128.000;  453.000
200.361;   75.300;  243.000;  477.000
200.507; -121.100; -600.000; -373.000
200.653;  -50.400; -371.000; -194.000
200.798;  -82.800; -215.000; -125.000
200.944;   17.500; -146.000;  -41.000
201.090;   76.000;   61.000;  222.000
201.236;   16.900; -116.000; -158.000
201.382;  266.700;  874.000;  903.000
201.528;  -26.600;  -58.000;  -48.000
201.674;  -81.300; -386.000; -293.000
201.819; -133.600; -540.000; -439.000
201.965; -203.200; -699.000; -447.000
202.111;  -36.900; -273.000; -226.000
202.257;  -78.100; -250.000; -238.000
202.402;    6.100;   13.000;  -36.000
202.548;  -45.600; -169.000; -116.000
202.694;  189.500;  410.000; -183.000
202.840; -157.300; -603.000; -531.000
202.985; -164.400; -681.000; -639.000
203.131; -238.500; -832.000; -666.000
203.277;  -43.300; -199.000; -262.000
203.423; -101.300; -434.000; -520.000
203.568; -102.400; -462.000; -237.000
203.714; -135.600; -535.000; -542.000
203.860; -152.500; -682.000; -641.000
204.005;   22.300;  112.000;  167.000
204.151;  163.100;  561.000;  556.000
204.296; -105.600; -354.000; -221.000
204.442; -141.400; -600.000; -547.000
204.588; -179.400; -592.000; -579.000
204.733;    6.300;  178.000;  168.000
204.879; -264.400;-1018.000; -822.000
205.025;   30.600;  -99.000;  126.000
205.170;  -30.600;  -17.000;   94.000
205.316;  188.900;  438.000;  661.000
205.461; -170.300; -698.000; -554.000
205.607;  172.200;  609.000;  665.000
205.752; -148.900; -626.000; -551.000
205.898;  -76.700; -501.000; -391.000
206.043; -116.200; -578.000; -506.000
206.189;  -75.500; -243.000; -285.000
206.334;  146.200;  554.000;  606.000
206.480;  152.100;  409.000;  239.000
206.625; -186.300; -529.000; -552.000
206.771;  -86.200; -451.000; -373.000
206.916;  -41.700; -210.000; -537.000
207.062; -164.100; -545.000; -591.000
207.207; -151.300; -546.000; -443.000
207.353;  121.200;  185.000;  460.000
207.498;   31.100;  196.000;   85.000
207.643;  -85.000; -501.000; -370.000
207.789; -266.900;-1069.000; -910.000
207.934; -201.400; -665.000; -713.000
208.080;  -46.200; -154.000;   66.000
208.225;  -26.700;  -22.000;  -57.000
208.370; -168.300; -727.000; -619.000
208.516; -163.800; -741.000; -487.000
208.661;  -78.300; -127.000;  -69.000
208.806;  -38.100; -165.000; -171.000
208.952; -228.800;-1044.000; -731.000
209.097;  163.300;  378.000;  349.000
209.242;  -96.400; -307.000; -382.000
209.387;  130.900;  392.000;  350.000
209.533; -109.900; -321.000; -350.000
209.678;  159.400;  472.000;  543.000
209.823; -144.800; -408.000; -310.000
209.969; -212.900; -860.000; -757.000
210.114; -238.600; -907.000; -719.000
210.259; -241.500; -939.000; -889.000
210.404;    1.900; -171.000;  103.000
210.549;   30.000;  108.000;    3.000
210.695;  -22.000;   -3.000;  -95.000
210.840;   82.000;   94.000;   67.000
210.985; -103.500; -484.000; -303.000
211.130;  181.600;  268.000;  406.000
211.275;   58.800;  207.000;  199.000
211.420; -115.700; -300.000; -289.000
211.566; -139.700; -536.000; -489.000
211.711;   52.900;  218.000;  157.000
211.856; -128.600; -545.000; -519.000
212.001;   13.300;  151.000;   44.000
212.146;   27.400;  153.000;   49.000
212.291;  -46.500; -210.000; -186.000
212.436;  -82.100; -280.000;   -6.000
212.581; -186.000; -685.000; -653.000
212.726; -155.400; -487.000; -538.000
212.871; -105.300; -552.000; -217.000
213.016; -299.300;-1172.000;-1029.000
213.161;  110.100;  406.000;  291.000
213.306; -161.600; -435.000; -577.000
213.451; -214.000; -778.000; -689.000
213.596;  -68.600; -455.000; -347.000
213.741; -102.500; -448.000; -538.000
213.886; -164.500; -498.000; -517.000
214.031;  -38.400; -294.000; -124.000
214.176; -112.900; -408.000; -341.000
214.321;  -39.500; -296.000; -157.000
214.466;  -66.400; -163.000;  -43.000
214.611;  -13.700;  -61.000;  -10.000
214.756; -245.700; -948.000; -858.000
214.901;  -64.400; -388.000; -226.000
215.046; -270.900; -797.000; -825.000
215.191;   29.900;  128.000;   35.000
215.336;  -31.700; -157.000;  -19.000
215.480; -114.000; -684.000; -505.000
215.625;  -19.800; -175.000;  -19.000
215.770; -158.300; -757.000; -662.000
215.915;    2.500;   -5.000;  -97.000
216.060;    1.700; -113.000;  -21.000
216.205; -240.500; -731.000; -779.000
216.349; -146.000; -470.000; -533.000
216.494; -277.100; -939.000; -867.000
216.639; -237.200; -823.000; -888.000
216.784; -202.100; -577.000; -525.000
216.929;   78.800;  392.000;  281.000
217.073;  -28.500; -244.000;  -31.000
217.218;   33.300;   78.000;  -47.000
217.363; -179.000; -656.000; -618.000
217.507; -151.900; -623.000; -588.000
217.652; -267.600; -845.000; -874.000
217.797; -218.100; -708.000; -659.000
217.942; -213.400; -856.000; -720.000
218.086;  173.100;  608.000;  539.000
218.231;  -22.800; -174.000;  -26.000
218.376;  -68.100; -337.000; -229.000
218.520;   15.100;  -41.000;   96.000
218.665;  -50.600; -338.000; -204.000
218.810; -113.500; -275.000; -233.000
218.954;   55.900;  201.000;   35.000
219.099; -211.300; -713.000; -963.000
219.243; -150.800; -589.000; -554.000
219.388;  -51.200; -264.000; -136.000
219.532;  -21.400; -116.000; -116.000
219.677; -171.000; -564.000; -521.000
219.822;   15.000;   33.000;   89.000
219.966;   26.500;   17.000;  -99.000
220.111;  -57.800; -328.000;  -40.000
220.255; -186.900; -797.000; -750.000
220.400;  -29.900; -180.000; -146.000
220.544; -161.000; -516.000; -450.000
220.689;  -82.100; -422.000; -451.000
220.833;  -64.100; -123.000;  -58.000
220.978;  -48.200; -393.000; -563.000
221.122;   15.100;  319.000;  307.000
221.267; -239.400; -906.000; -837.000
221.411; -133.700; -478.000; -394.000
221.555;  -26.200; -104.000;  -23.000
221.700;  -76.800; -329.000; -222.000
221.844;   70.100;  255.000;  272.000
221.989;  -80.600; -328.000; -311.000
222.133;  -98.100; -289.000; -307.000
222.277;    1.900;    5.000;   78.000
222.422;   48.800;  227.000;  113.000
222.566;  -64.700; -381.000; -214.000
222.711;  -97.800; -414.000; -479.000
222.855; -181.400; -643.000; -586.000
222.999; -175.500; -642.000; -717.000
223.144;  -78.700; -195.000; -194.000
223.288;  116.300;  423.000;  251.000
223.432;   20.700;  184.000;  230.000
223.576;   77.300;  152.000;  -21.000
223.721;   94.000;  364.000;  273.000
223.865; -128.500; -472.000; -475.000
224.009;  525.800; 1673.000; 1631.000
224.153; -183.100; -660.000; -671.000
224.298; -147.200; -531.000; -489.000
224.442;    8.400;  -74.000;  -33.000
224.586;  -41.900; -169.000; -106.000
224.730; -201.600; -858.000; -670.000
224.875; -185.800; -739.000; -688.000
225.019;   20.500;  102.000;  188.000
225.163;  123.400;  208.000;  341.000
225.307;   60.200;   97.000;  -91.000
225.451;  113.800;  360.000;  481.000
225.595;   76.100;  264.000;  176.000
225.739;   -1.800; -170.000;  -94.000
225.884;   29.000;   86.000;    5.000
226.028; -176.200; -760.000; -626.000
226.172;  -84.500; -260.000; -273.000
226.316; -246.100; -941.000; -902.000
226.460; -147.200; -645.000; -493.000
226.604; -105.200; -406.000; -400.000
226.748; -223.700; -836.000; -733.000
226.892;  -84.700; -227.000; -181.000
227.036; -106.500; -537.000; -447.000
227.180; -100.500; -551.000; -375.000
227.324; -150.200; -561.000; -580.000
227.468; -227.500; -819.000; -717.000
227.612;   14.100;  242.000;  -28.000
227.756; -207.800; -845.000; -698.000
227.900;  120.900;  342.000;  441.000
228.044; -114.800; -509.000; -290.000
228.188;  104.900;  448.000;  568.000
228.332; -180.400; -546.000; -472.000
228.476;  -67.100; -223.000; -149.000
228.620;  -61.700; -210.000; -150.000
228.764;  162.600;  431.000;  349.000
228.908;  -21.800; -155.000;   30.000
229.052; -113.500; -615.000; -528.000
229.195;  -20.900; -172.000;   13.000
229.339;  -72.200; -235.000; -305.000
229.483;  -56.500;    5.000; -162.000
229.627;  -13.500; -156.000;  139.000
229.771;  -96.900; -218.000; -294.000
229.915;   36.100;  230.000;   79.000
230.059; -201.700; -648.000; -663.000
230.202;  -40.400; -370.000; -317.000
230.346;  -69.800; -107.000;  107.000
230.490; -122.000; -489.000; -521.000
230.634; -195.600; -736.000; -553.000
230.777;  137.900;  478.000;  509.000
230.921; -126.000; -450.000; -359.000
231.065;  -92.900; -246.000; -286.000
231.209;   67.100;  261.000;  265.000
231.352;   54.800;   54.000;   40.000
231.496;   20.300;  568.000;  188.000
231.640; -152.800; -693.000; -621.000
231.783;  125.800;  546.000;  525.000
231.927;  -71.100; -294.000; -365.000
232.071; -260.500; -962.000; -736.000
232.214; -226.500; -980.000; -764.000
232.358; -199.700; -683.000; -599.000
232.502;   23.500;  -19.000;    7.000
232.645; -263.800;-1090.000; -927.000
232.789;  -34.100; -257.000; -218.000
232.933;  -66.300; -407.000; -224.000
233.076; -250.700;-1038.000; -897.000
233.220; -213.000; -752.000; -777.000
233.363; -145.200; -669.000; -477.000
233.507;  144.300;  371.000;  129.000
233.650; -212.400; -764.000; -834.000
233.794;   98.200;  438.000;  461.000
233.938; -139.600; -530.000; -362.000
234.081;  -24.000;  -93.000;   31.000
234.225; -137.200; -631.000; -539.000
234.368; -234.000; -773.000; -723.000
234.512;  -78.500; -385.000; -299.000
234.655; -165.600; -582.000; -555.000
234.798; -126.600; -493.000; -466.000
234.942; -262.200; -884.000;-1002.000
235.085; -152.700; -651.000; -443.000
235.229; -165.900; -405.000; -410.000
235.372;  -91.200; -247.000; -191.000
235.516; -133.600; -397.000; -321.000
235.659;   81.500;   92.000;  121.000
235.802;  -25.500;  -38.000;  -22.000
235.946;   80.500;  335.000;  215.000
236.089;   59.400;  126.000;  250.000
236.233;   99.400;  275.000;  298.000
236.376; -103.300; -235.000; -378.000
236.519;  -67.600; -297.000; -319.000
236.663;  -54.800; -215.000; -117.000
236.806; -266.100;-1029.000; -999.000
236.949;  140.800;  543.000;  431.000
237.092;  154.000;  412.000;  391.000
237.236; -179.400; -589.000; -502.000
237.379;  158.300;  352.000;  428.000
237.522; -260.000; -879.000; -768.000
237.666;  -45.200; -271.000;   18.000
237.809; -259.600; -851.000; -823.000
237.952;   94.500;  469.000;  271.000
238.095; -105.900; -447.000; -442.000
238.238;  171.400;  688.000;  700.000
238.382;   38.100;  166.000;  103.000
238.525; -114.100; -598.000; -511.000
238.668; -298.100;-1060.000; -985.000
238.811; -149.500; -638.000; -643.000
238.954; -108.100; -483.000; -334.000
239.097;  201.800;  617.000;  664.000
239.241;   82.500;  394.000;  326.000
239.384;  -49.000; -254.000; -214.000
239.527; -105.800; -424.000; -224.000
239.670; -295.100; -994.000;-1091.000
239.813; -221.400; -696.000; -658.000
239.956;  177.300;  579.000;  473.000
240.099; -198.800; -778.000; -725.000
240.242;  134.300;  428.000;  432.000
240.385;  111.300;  466.000;  450.000
240.528; -122.000; -706.000; -473.000
240.671;   36.200;  189.000;  134.000
240.814;  -69.900; -441.000; -158.000
240.957; -212.500; -767.000; -578.000
241.100; -202.000; -779.000; -755.000
241.243; -306.100;-1234.000; -893.000
241.386; -133.500; -508.000; -379.000
241.529; -164.800; -735.000; -547.000
241.672; -127.900; -566.000; -495.000
241.815; -233.900; -832.000; -808.000
241.958;  -28.100; -125.000; -182.000
242.101; -150.200; -545.000; -390.000
242.244;  -86.800; -270.000; -325.000
242.387;  -91.400; -304.000; -246.000
242.530;  138.200;  470.000;  134.000
242.673;  -61.000; -381.000; -309.000
242.815; -235.500; -925.000; -899.000
242.958; -138.800; -482.000; -381.000
243.101;   52.200;  132.000;  187.000
243.244; -133.100; -564.000; -521.000
243.387;  -96.400; -313.000; -316.000
243.530; -168.400; -657.000; -674.000
243.672;   26.300;   43.000;  -92.000
243.815; -120.300; -355.000; -283.000
243.958;   39.300;   98.000;  -26.000
244.101;   -2.900;   59.000;  -16.000
244.243;  -18.700;  -47.000;  101.000
244.386; -202.400; -761.000; -630.000
244.529;  -50.100; -132.000; -139.000
244.672; -293.000;-1154.000; -951.000
244.814; -203.700; -621.000; -794.000
244.957;  -73.000; -380.000; -304.000
245.100; -125.200; -489.000; -489.000
245.242; -113.500; -387.000; -374.000
245.385;   31.800;  -59.000;  -39.000
245.528; -255.500; -871.000; -705.000
245.670;  204.900;  612.000;  634.000
245.813; -180.000; -599.000; -547.000
245.956;  -45.600; -324.000; -275.000
246.098; -130.600; -508.000; -650.000
246.241;   32.700;  194.000;   48.000
246.383;   -7.200; -119.000;  -73.000
246.526; -136.700; -454.000; -525.000
246.669; -241.000; -889.000; -780.000
246.811;   47.100;  172.000;   -1.000
246.954; -110.700; -512.000; -426.000
247.096;  -49.400;  -84.000;   -6.000
247.239; -147.200; -482.000; -445.000
247.381; -151.500; -647.000; -488.000
247.524;  188.500;  645.000;  679.000
247.666;    2.100;   58.000;   11.000
247.809; -229.100; -887.000; -691.000
247.951;  -11.800;  -75.000;  138.000
248.094;   72.100;  432.000;  308.000
248.236; -309.300;-1262.000;-1238.000
248.378;   16.400; -356.000;  -81.000
248.521;  -58.100; -334.000; -337.000
248.663;  -85.300; -236.000; -267.000
248.806;  -68.300; -300.000; -266.000
248.948; -188.800; -886.000; -763.000
249.090; -100.200; -428.000; -398.000
249.233; -100.500; -344.000; -381.000
249.375; -144.400; -474.000; -451.000
249.518;  -50.400;  -83.000; -133.000
249.660;  -18.200; -103.000;    3.000
249.802; -352.700;-1303.000;-1189.000
249.945; -159.400; -612.000; -540.000
250.087; -228.200; -834.000; -768.000
250.229;  -80.900; -362.000; -480.000
250.371; -145.900; -494.000; -439.000
250.514;  -99.300; -310.000; -244.000
250.656; -113.700;   69.000;  102.000
250.798; -229.400; -849.000; -800.000
250.940; -112.400; -322.000; -322.000
251.083;  -30.400; -335.000; -111.000
251.225;   90.000;  338.000;  310.000
251.367;  -71.300; -274.000; -373.000
251.509;  -52.600; -265.000; -210.000
251.651; -185.700; -731.000; -671.000
251.794;  141.600;  538.000;  632.000
251.936; -206.800; -821.000; -747.000
252.078; -170.100; -540.000; -461.000
252.220; -145.400; -645.000; -477.000
252.362;  159.600;  344.000;  462.000
252.504; -116.900; -677.000; -584.000
252.646; -208.400; -875.000; -722.000
252.788;  -26.200;   14.000; -128.000
252.931;  -56.500; -257.000; -253.000
253.073;  -87.700; -376.000; -317.000
253.215;   10.000;  141.000;  122.000
253.357;  -28.700;   82.000; -153.000
253.499;  -94.900; -374.000; -234.000
253.641; -155.400; -749.000; -594.000
253.783; -173.000; -609.000; -527.000
253.925; -180.000; -586.000; -591.000
254.067; -198.500; -744.000; -667.000
254.209;  -26.200; -391.000; -259.000
254.351; -291.200; -865.000; -883.000
254.493; -123.400; -441.000; -417.000
254.635; -227.800; -936.000; -818.000
254.777; -187.400; -752.000; -687.000
254.918; -171.700; -512.000; -430.000
255.060; -103.900; -551.000; -395.000
255.202; -106.600; -473.000; -261.000
255.344; -154.700; -658.000; -455.000
255.486; -140.600; -471.000; -406.000
255.628; -215.500; -780.000; -781.000
255.770; -158.800; -676.000; -536.000
255.912; -120.500; -559.000; -468.000
256.053; -174.200; -730.000; -508.000
256.195;  354.400; 1008.000;  903.000
256.337; -192.600; -861.000; -595.000
256.479;  141.300;  532.000;  416.000
256.621;  -93.600; -394.000; -212.000
256.762; -199.700; -789.000; -742.000
256.904;  144.700;  485.000;  487.000
257.046;  -65.400; -381.000; -271.000
257.188;  -68.300; -351.000; -264.000
257.329; -136.100; -525.000; -464.000
257.471; -218.200; -939.000; -807.000
257.613; -130.200; -584.000; -498.000
257.755; -271.200;-1073.000; -982.000
257.896;   90.100;  286.000;  392.000
258.038; -123.500; -403.000; -352.000
258.180;  -45.400; -354.000; -279.000
258.321; -179.800; -581.000; -457.000
258.463;    0.300;  -71.000;  133.000
258.605; -171.500; -562.000; -570.000
258.746; -206.400; -886.000; -772.000
258.888; -303.700;-1026.000;-1020.000
259.029;   44.600;  121.000;   -8.000
259.171; -186.900; -614.000; -550.000
259.313;    3.900;  -49.000;  -47.000
259.454; -152.100; -536.000; -414.000
259.596;  -94.000; -483.000; -390.000
259.737; -140.200; -590.000; -474.000
259.879;   83.000;  217.000;  311.000
260.020;  215.400;  901.000;  636.000
260.162;  -22.900; -146.000; -253.000
260.303; -243.600; -768.000; -687.000
260.445; -144.700; -609.000; -613.000
260.586;   93.600;  392.000;  157.000
260.728;  -90.400; -360.000; -248.000
260.869; -136.700; -350.000; -343.000
261.011;  189.400;  706.000;  537.000
261.152; -119.700; -479.000; -319.000
261.293; -153.300; -576.000; -595.000
261.435;  -53.100; -219.000; -184.000
261.576;  -97.900; -455.000; -325.000
261.718;  141.700;  420.000;  470.000
261.859; -253.100; -940.000; -949.000
262.000; -267.600; -951.000;-1016.000
262.142;  -21.000;  -52.000;  -60.000
262.283; -235.300; -808.000; -691.000
262.424; -161.900; -666.000; -625.000
262.566; -293.700;-1161.000; -983.000
262.707; -224.800; -840.000; -830.000
262.848; -194.700; -769.000; -726.000
262.990;  -87.000; -362.000; -345.000
263.131;  204.200;  650.000;  681.000
263.272;   20.600;  -61.000;  -41.000
263.413; -135.600; -589.000; -561.000
263.555; -108.600; -669.000; -143.000
263.696; -159.900; -550.000; -641.000
263.837; -105.700; -449.000; -551.000
263.978;   -6.600;   -5.000;  -77.000
264.119;  -99.500; -283.000; -264.000
264.261; -228.900; -847.000; -630.000
264.402;   21.900;   33.000;   40.000
264.543; -163.300; -509.000; -524.000
264.684;   -0.700;   61.000;  -50.000
264.825; -154.400; -816.000; -538.000
264.966;    7.300;  -84.000;  -67.000
265.107; -237.900; -646.000; -670.000
265.248; -253.600; -825.000; -812.000
265.390;  -14.200;  152.000;   -9.000
265.531;  -24.200; -238.000; -107.000
265.672; -161.900; -557.000; -630.000
265.813;  156.000;  563.000;  439.000
265.954; -251.000; -959.000; -940.000
266.095;  -16.800; -372.000; -322.000
266.236; -175.600; -686.000; -548.000
266.377;  -63.800; -243.000; -297.000
266.518; -171.600; -619.000; -547.000
266.659;   84.500;  170.000;  268.000
266.800;   -8.300;   83.000;   85.000
266.941; -142.400; -487.000; -478.000
267.082;   38.400;  354.000;   99.000
267.223;  -74.100; -344.000; -273.000
267.364; -224.600; -892.000; -686.000
267.504;   -6.200;    3.000;  135.000
267.645;   28.600;  160.000;   67.000
267.786;  -42.700; -147.000;  -86.000
267.927; -125.300; -473.000; -379.000
268.068;  -27.900; -186.000;  -61.000
268.209;  -85.400; -175.000; -413.000
268.350; -114.100; -388.000; -532.000
268.490; -172.900; -648.000; -521.000
268.631;   92.400;  127.000;  225.000
268.772; -190.300; -874.000; -647.000
268.913; -113.900; -328.000; -476.000
269.054;   19.200; -117.000;   12.000
269.194;  -54.400; -418.000; -402.000
269.335; -313.000;-1137.000;-1074.000
269.476;  -12.100;   33.000;  -35.000
269.617; -104.200; -347.000; -392.000
269.757; -182.800; -713.000; -646.000
269.898; -194.900; -856.000; -613.000
270.039;  -79.300; -415.000; -405.000
270.180; -259.500; -952.000; -816.000
270.320;  -45.500; -190.000; -250.000
270.461;  -49.600; -277.000; -249.000
270.602;  -48.900; -186.000; -156.000
270.742; -243.300; -868.000; -943.000
270.883;  -78.200; -442.000; -390.000
271.023; -124.300; -358.000; -357.000
271.164; -137.400; -607.000; -528.000
271.305; -174.900; -666.000; -654.000
271.445; -152.900; -722.000; -683.000
271.586; -119.000; -462.000; -283.000
271.726;  -60.300; -397.000; -322.000
271.867; -138.200; -594.000; -534.000
272.008;  276.900; -473.000; -285.000
272.148;  271.600;  462.000;  468.000
272.289;   39.800; -113.000; -181.000
272.429;   47.700;   19.000;  185.000
272.570; -166.600; -633.000; -737.000
272.710; -193.400; -825.000; -775.000
272.851;   -7.100;  113.000; -130.000
272.991; -301.000;-1173.000;-1077.000
273.131; -125.600; -419.000; -459.000
273.272; -183.500; -683.000; -723.000
273.412;   34.100; -143.000;  -31.000
273.553; -107.100; -488.000; -507.000
273.693;  280.700;  913.000;  858.000
273.834; -173.600; -894.000; -692.000
273.974; -147.100; -664.000; -615.000
274.114; -180.000; -772.000; -560.000
274.255;  169.800;  414.000;  373.000
274.395;   25.100; -180.000; -125.000
274.535;  120.500;  199.000;  350.000
274.676;   66.800;  225.000;   94.000
274.816;   16.300;  110.000;   34.000
274.956; -154.300; -624.000; -690.000
275.097; -127.200;-1014.000; -922.000
275.237; -213.700; -913.000; -803.000
275.377; -189.300; -778.000; -689.000
275.517; -268.200; -878.000; -937.000
275.658; -101.500; -590.000; -555.000
275.798; -125.600; -606.000; -413.000
275.938;   89.100;  215.000;  323.000
276.078; -134.200; -626.000; -395.000
276.218;   27.500;   99.000;  104.000
276.359; -241.200;-1026.000;-1024.000
276.499; -127.400; -605.000; -446.000
276.639;  -42.500; -305.000; -151.000
276.779;  -58.300; -475.000; -357.000
276.919; -208.100; -783.000; -624.000
277.059;  -34.700; -261.000; -212.000
277.199;  -67.300; -357.000; -259.000
277.340;  147.300;  287.000;  175.000
277.480; -212.800; -840.000; -693.000
277.620;   76.800;  192.000;   16.000
277.760; -386.400;-1533.000;-1294.000
277.900;   50.300;  113.000;   33.000
278.040;   56.800;  137.000;  159.000
278.180;   87.900;  270.000;  170.000
278.320;   31.600;   21.000;   56.000
278.460; -153.500; -443.000; -469.000
278.600; -126.400; -708.000; -598.000
278.740;  140.500;  448.000;  224.000
278.880; -105.300; -768.000; -791.000
279.020;   46.800; -194.000; -144.000
279.160; -177.100; -672.000; -595.000
279.300; -208.400; -926.000; -873.000
279.440; -179.900; -709.000; -622.000
279.579;  -70.900;-1014.000; -929.000
279.719; -111.800; -410.000; -394.000
279.859;  118.600;   -4.000;   41.000
279.999;   61.900; -208.000;  101.000
280.139;   -7.300; -435.000; -387.000
280.279; -153.200; -708.000; -745.000
280.419;   -9.300; -229.000; -147.000
280.559;  -32.300; -259.000; -180.000
280.698; -160.800; -790.000; -639.000
280.838; -184.500; -778.000; -800.000
280.978; -197.000; -846.000; -790.000
281.118; -232.200; -811.000; -704.000
281.257;   47.800;   24.000;    6.000
281.397; -218.300;-1094.000; -960.000
281.537; -160.800; -599.000; -712.000
281.677;  -40.700; -150.000; -101.000
281.816; -171.400; -700.000; -630.000
281.956;  -45.000; -193.000; -257.000
282.096; -111.700; -539.000; -396.000
282.235; -205.600; -672.000; -638.000
282.375;   -7.200; -243.000;  -98.000
282.515; -184.700; -715.000; -707.000
282.654;   87.500;   29.000;  106.000
282.794;   61.800;  388.000;  244.000
282.934; -112.000; -530.000; -491.000
283.073; -268.800;-1030.000; -857.000
283.213;  -71.600; -460.000; -467.000
283.353;  -37.400; -408.000; -349.000
283.492;  -20.300; -264.000; -296.000
283.632;  -50.800; -254.000; -168.000
283.771; -191.500; -859.000; -730.000
283.911;  -94.600; -369.000; -260.000
284.050; -194.000; -794.000; -748.000
284.190; -301.000;-1229.000;-1096.000
284.329; -250.600;-1055.000; -964.000
284.469; -102.100; -516.000; -591.000
284.608;  -88.900; -559.000; -598.000
284.748; -159.100; -614.000; -570.000
284.887;   -5.000;  -87.000;  -20.000
285.027; -221.200; -844.000; -892.000
285.166;  -41.700; -192.000; -249.000
285.306;   17.200; -116.000;  -33.000
285.445;  -62.700; -229.000; -343.000
285.584; -164.400; -630.000; -494.000
285.724;  -88.400; -282.000; -322.000
285.863; -196.600; -857.000; -507.000
286.002;  -84.600; -366.000; -276.000
286.142; -214.900; -715.000; -622.000
286.281; -124.500; -525.000; -493.000
286.420; -135.400; -554.000; -417.000
286.560;  245.000;  653.000;  623.000
286.699; -248.800; -958.000; -912.000
286.838; -149.400; -590.000; -591.000
286.978; -168.100; -533.000; -537.000
287.117; -263.100;-1085.000; -950.000
287.256;  -48.900; -228.000; -211.000
287.395;  -88.500; -197.000; -378.000
287.535; -105.700; -370.000; -298.000
287.674; -138.800; -509.000; -484.000
287.813;  150.900;  661.000;  533.000
287.952; -237.600;-1010.000; -871.000
288.091; -281.300;-1049.000; -915.000
288.231;   85.300;   13.000;   15.000
288.370; -303.600;-1217.000;-1200.000
288.509; -158.400; -728.000; -645.000
288.648; -161.100; -770.000; -548.000
288.787;  -36.700; -243.000;  -87.000
288.926; -105.700; -454.000; -475.000
289.065;  284.300;  859.000;  672.000
289.204;  -95.100; -377.000; -217.000
289.344; -174.000; -791.000; -690.000
289.483;   84.200;  416.000;  304.000
289.622;  -36.600; -291.000; -149.000
289.761;   10.500; -309.000; -166.000
289.900; -190.100; -785.000; -626.000
290.039;    2.700;  -12.000;  -95.000
290.178;  -58.400; -274.000; -180.000
290.317; -165.700; -618.000; -479.000
290.456;  -95.500; -463.000; -451.000
290.595; -276.200; -961.000; -833.000
290.734; -260.400; -904.000; -891.000
290.873; -122.000; -456.000; -420.000
291.011; -208.400; -833.000; -843.000
291.150; -170.300; -770.000; -682.000
291.289;  -14.300; -343.000; -110.000
291.428; -147.800; -599.000; -480.000
291.567;  -71.200; -370.000; -442.000
291.706;    9.000;  109.000;  154.000
291.845; -130.200; -597.000; -505.000
291.984; -320.900;-1234.000;-1061.000
292.122;  209.700;  602.000;  582.000
292.261;  130.000;  620.000;  463.000
292.400;   26.600; -144.000;  211.000
292.539; -209.900; -959.000; -813.000
292.678;  -27.200; -325.000; -300.000
292.816; -300.700;-1136.000; -965.000
292.955; -155.400; -844.000; -684.000
293.094;  -12.900; -173.000; -337.000
293.233;  -88.000; -556.000; -400.000
293.371;  -52.800; -225.000;  -84.000
293.510; -179.900; -866.000; -780.000
293.649; -249.400; -959.000; -924.000
293.787; -131.000;-1083.000;-1012.000
293.926;   -6.100; -113.000;  -32.000
294.065;  -70.100; -379.000; -290.000
294.203;  113.100;  298.000;  406.000
294.342;   53.000;   74.000;  156.000
294.481;11098.000;51180.000; -836.000
294.619;  -10.800; -425.000; -582.000
294.758; -302.500;-1230.000;-1137.000
294.896;  138.700; -125.000;    5.000
295.035; -230.100;-1040.000;-1006.000
295.174; -206.600;-1082.000; -954.000
295.312;  -37.400; -323.000; -203.000
295.451;    3.600; -307.000; -428.000
295.589; -100.600; -389.000; -518.000
295.728;   69.700; -292.000; -165.000
295.866;   61.500;  -36.000;  -51.000
296.005; -146.200; -584.000; -341.000
296.143; -108.900; -558.000; -596.000
296.282; -190.200; -957.000; -881.000
296.420; -135.000; -657.000; -557.000
296.559; -161.700; -892.000; -633.000
296.697;    2.400; -847.000; -665.000
296.835;  100.700;-1141.000;-1002.000
296.974;  120.000;  -23.000;   39.000
297.112;   45.000; -443.000; -504.000
297.251; -134.900; -815.000; -755.000
297.389;  154.600; -576.000; -438.000
297.527;  136.300; -145.000;  -83.000
297.666;  -85.800; -486.000; -438.000
297.804;  -97.100; -404.000; -264.000
297.942;    1.000; -136.000; -161.000
298.081;   17.500; -183.000;   63.000
298.219;  148.000;  -17.000;  -19.000
298.357;  135.900; -144.000;  -71.000
298.495;   60.200; -810.000; -812.000
298.634;  156.800;  245.000;  219.000
298.772;  117.400; -220.000; -338.000
298.910;  -52.300; -309.000; -182.000
299.048;    3.700; -130.000; -153.000
299.187;  -26.400; -350.000; -250.000
299.325;   42.800;   52.000;  122.000
299.463;   83.000; -389.000; -299.000
299.601;  230.900; -327.000; -271.000
299.739; -217.400; -908.000; -883.000
299.877; -123.600; -791.000; -703.000
300.016; -104.100;-1095.000; -935.000
300.154;  292.500;  -19.000; -161.000
300.292;  103.800; -428.000; -348.000
300.430;   62.700; -408.000; -291.000
300.568; -193.700; -940.000; -874.000
300.706;  -66.200; -366.000; -469.000
300.844; -195.700;-1108.000; -979.000
300.982;  236.200;  246.000;  282.000
301.120; -215.100; -965.000; -866.000
301.258; -134.800; -812.000; -705.000
301.396;   65.500;  104.000;  -41.000
301.534;  135.000; -218.000; -293.000
301.672;   13.000; -664.000; -521.000
301.810;   32.600; -613.000; -545.000
301.948;  262.500;   53.000;  149.000
302.086; 1034.000; -250.000;  -32.000
302.224; 1674.400; -610.000; -585.000
302.362;   97.200; -558.000; -622.000
302.500;  -54.500; -923.000; -893.000
302.638;  215.000;  128.000;  245.000
302.776;    9.800; -352.000; -408.000
302.913;  147.100;  447.000;  236.000
303.051;   -1.600;  -86.000;  -23.000
303.189;  140.200;   90.000;  118.000
303.327;  -59.600; -341.000; -256.000
303.465; -140.500; -832.000; -588.000
303.603; -188.800; -805.000; -604.000
303.740;  229.300;  417.000;  241.000
303.878;   -4.400; -800.000; -759.000
304.016; -189.200; -915.000; -790.000
304.154; -279.300;-1123.000;-1152.000
304.291;  -81.800; -505.000; -554.000
304.429;   47.100;  102.000;   74.000
304.567; -236.200; -908.000; -893.000
304.705; -101.200; -408.000; -515.000
304.842;  160.400; -616.000; -540.000
304.980;  122.500;  215.000;   35.000
305.118;  117.700; -367.000; -365.000
305.255; -142.000; -945.000; -927.000
305.393;  151.200;  178.000;  239.000
305.531; -222.900;-1173.000; -956.000
305.668; -112.900; -663.000; -582.000
305.806;  161.800; -358.000; -439.000
305.943;  171.300; -629.000; -637.000
306.081;  104.600; -378.000; -267.000
306.219; -202.300; -863.000; -748.000
306.356;   53.500;  158.000;   27.000
306.494;  292.200;  981.000;  761.000
306.631;   41.200;  -11.000;  -55.000
306.769;   40.200; -613.000; -485.000
306.906;   14.100; -284.000; -258.000
307.044;  -71.500; -473.000; -488.000
307.181;  -96.800; -410.000; -332.000
307.319;   67.500;  112.000;   87.000
307.456; -304.500;-1191.000;-1153.000
307.594; -190.200; -980.000; -727.000
307.731;  -13.000; -371.000; -164.000
307.868;   77.200;  -15.000;   20.000
308.006; -242.500; -961.000; -847.000
308.143;  -99.600; -618.000; -330.000
308.281;  394.800;  -37.000; -254.000
308.418;   44.600; -748.000; -640.000
308.555; -125.400; -400.000; -250.000
308.693;  -80.800; -577.000; -573.000
308.830; -178.000; -712.000; -657.000
308.967;    2.300; -215.000;  -95.000
309.105;  -44.700; -507.000; -396.000
309.242;  115.000; -468.000; -367.000
309.379;  724.800; -577.000; -655.000
309.517;  -66.100; -936.000; -948.000
309.654; -159.900; -910.000; -734.000
309.791; -113.800; -662.000; -580.000
309.928; -177.500; -977.000; -914.000
310.065;  413.200;  819.000;  697.000
310.203;    5.600; -825.000; -850.000
310.340;   13.700; -465.000; -321.000
310.477; -112.400; -412.000; -516.000
310.614;  -84.100; -383.000; -473.000
310.751; -120.300; -427.000; -518.000
310.889;    2.600;    1.000;   11.000
311.026; -269.100;-1161.000; -939.000
311.163;  -71.900; -386.000; -380.000
311.300; -102.400; -512.000; -479.000
311.437; -111.200; -658.000; -619.000
311.574; -293.200;-1226.000; -985.000
311.711;  -80.500; -595.000; -433.000
311.848;  -13.800; -380.000; -388.000
311.985;   63.800;  270.000;   93.000
312.122; -190.300; -932.000; -762.000
312.259; -191.100; -941.000; -994.000
312.396; -129.500; -508.000; -551.000
312.533; -119.100; -812.000; -790.000
312.670; -256.100;-1070.000; -898.000
312.807;    1.500; -352.000; -367.000
312.944;  -74.000; -513.000; -611.000
313.081;  -35.800; -150.000; -415.000
313.218; -161.200;-1111.000; -867.000
313.355;   56.700; -531.000; -449.000
313.492;   67.800; -455.000; -292.000
313.629;  296.400;  815.000;  735.000
313.766; -293.600;-1176.000;-1008.000
313.902;   37.900; -186.000;   21.000
314.039;  -71.800; -372.000; -289.000
314.176;  102.700;  286.000;  192.000
314.313; -121.800; -569.000; -473.000
314.450; -132.600; -788.000; -684.000
314.587;  -93.100; -468.000; -480.000
314.723;   53.200;  -78.000;  130.000
314.860;  141.200;  318.000;  332.000
314.997;   88.900;  223.000;  142.000
315.134;  -46.400; -385.000; -368.000
315.270;  -54.400; -480.000; -496.000
315.407; -238.300;-1094.000; -967.000
315.544;  -78.300; -657.000; -538.000
315.681;  -83.400; -681.000; -565.000
315.817;   73.900; -133.000; -176.000
315.954;   11.500; -613.000; -392.000
316.091; -213.200;-1045.000;-1023.000
316.227;  -21.500;  -71.000; -179.000
316.364;   52.200;   23.000;    6.000
316.500;  -56.400; -113.000; -300.000
316.637;  -21.100; -181.000; -302.000
316.774; -114.900; -625.000; -358.000
316.910; -158.000; -598.000; -629.000
317.047;  -98.000; -487.000; -351.000
317.183;  -74.200; -435.000; -566.000
317.320;   -2.500; -367.000; -321.000
317.456;  -89.700; -733.000; -805.000
317.593; -160.800; -598.000; -641.000
317.729;   73.500;  168.000;  -67.000
317.866; -409.800;-1434.000;-1285.000
318.002; -157.700; -708.000; -948.000
318.139; -158.400; -883.000; -867.000
318.275; -175.900;-1003.000; -738.000
318.412;  -93.800; -517.000; -336.000
318.548;  -45.400; -751.000; -720.000
318.685; -193.000; -985.000; -888.000
318.821; -141.300; -762.000; -735.000
318.957;   -3.400;   34.000;  -23.000
319.094;  116.300;  297.000;  154.000
319.230; -118.000; -756.000; -742.000
319.367;  245.000; -471.000; -520.000
319.503;  101.400; -538.000; -436.000
319.639; -172.300; -877.000; -793.000
319.775; -108.500; -750.000; -685.000
319.912;  -61.300; -424.000; -519.000
320.048; -155.700;-1184.000;-1184.000
320.184;  194.000;   59.000;   70.000
320.321; -132.300; -497.000; -467.000
320.457;  171.600;  475.000;  662.000
320.593;  -93.200; -375.000; -382.000
320.729; -177.300; -732.000; -734.000
320.866; -128.700; -577.000; -635.000
321.002; -132.000; -759.000; -809.000
321.138;    4.900; -135.000; -211.000
321.274;  156.800; -148.000; -115.000
321.410;  -47.500; -585.000; -353.000
321.546;  -58.500;-1011.000; -911.000
321.683;  101.900;  400.000;  185.000
321.819;   71.200;  -48.000; -117.000
321.955; -208.800; -743.000; -722.000
322.091;  -69.000; -585.000; -540.000
322.227;  -25.700; -382.000; -202.000
322.363;   11.300; -320.000; -215.000
322.499;  -62.100; -343.000; -331.000
322.635;  323.600;  636.000;  443.000
322.771;   64.700; -139.000;   12.000
322.907;  216.400;  129.000;  327.000
323.043;  -26.600; -115.000; -206.000
323.179;  -36.000; -394.000; -363.000
323.315;   57.600; -401.000; -371.000
323.451;  181.200; -328.000; -236.000
323.587;  150.600;  -60.000;  -77.000
323.723;   34.900; -682.000; -601.000
323.859;   -8.100; -258.000;  -76.000
323.995;  -39.300; -467.000; -409.000
324.131; -218.200; -967.000; -892.000
324.267;  -43.000; -254.000; -276.000
324.402; -215.900; -960.000; -983.000
324.538;   -7.300; -279.000; -104.000
324.674;   64.300;  164.000;   77.000
324.810;  305.200;  226.000;  308.000
324.946;   72.500; -810.000; -658.000
325.082;  -86.600; -568.000; -475.000
325.217;   -0.100;  -62.000;   16.000
325.353; -158.600; -764.000; -659.000
325.489; -125.900; -540.000; -506.000
325.625;  -69.400; -579.000; -525.000
325.760;  161.800;  517.000;  376.000
325.896;   -9.800; -515.000; -702.000
326.032;  -55.200; -403.000; -352.000
326.168;  -71.600; -462.000; -369.000
326.303;  -84.600; -352.000; -461.000
326.439;    4.100; -336.000; -276.000
326.575;   44.800; -190.000;  -29.000
326.710;   -7.400; -156.000;  -30.000
326.846;   -8.700;  146.000;  103.000
326.982; -188.800; -530.000; -548.000
327.117; -134.100; -481.000; -442.000
327.253; -133.400; -745.000; -742.000
327.388; -210.200;-1137.000;-1153.000
327.524;  -55.800; -811.000; -578.000
327.659;  -24.500;  -58.000;  -22.000
327.795;   15.800;   69.000;   45.000
327.931; -123.400; -723.000; -499.000
328.066;  -20.200; -417.000; -276.000
328.202;   39.700;   12.000; -129.000
328.337;  243.800;  957.000;  713.000
328.473;   21.700;  -12.000;  -74.000
328.608;  -19.400; -256.000; -267.000
328.743; -174.800; -799.000; -664.000
328.879;   83.600;  214.000;  114.000
329.014;  -80.400; -102.000; -122.000
329.150; -123.500; -358.000; -483.000
329.285; -136.200; -465.000; -466.000
329.421;  -45.800; -548.000; -246.000
329.556;  -16.400;  -36.000;   85.000
329.691; -150.500; -633.000; -615.000
329.827; -138.000; -626.000; -480.000
329.962;  -25.900;  131.000; -301.000
330.097; -126.500; -673.000; -585.000
330.233;  -88.000; -410.000; -223.000
330.368; -218.600; -839.000; -628.000
330.503;   10.600;    3.000;   98.000
330.638;   48.700;  -93.000; -125.000
330.774; -100.100; -609.000; -530.000
330.909;  -41.600; -434.000; -244.000
331.044; -177.800; -714.000; -708.000
331.179; -312.500;-1217.000;-1109.000
331.315;   65.500;   77.000;   20.000
331.450;   68.100;  157.000;  285.000
331.585; -169.000; -805.000; -706.000
331.720; -142.000; -510.000; -460.000
331.855;    6.200;  -35.000; -102.000
331.990;  488.200;   62.000;  138.000
332.126;  290.600; -110.000;   71.000
332.261;   23.000; -379.000; -265.000
332.396;   30.700; -135.000; -242.000
332.531; -187.700;-1074.000;-1031.000
332.666;   92.000; -519.000; -363.000
332.801; -183.600; -726.000; -807.000
332.936;   -7.800; -192.000; -122.000
333.071; -252.000; -870.000; -817.000
333.206;   59.500;  307.000;  379.000
333.341;  113.500;  344.000;  418.000
333.476; -141.400; -627.000; -623.000
333.611;  -51.500; -251.000; -173.000
333.746;  -48.400; -381.000; -464.000
333.881; -200.800; -973.000; -935.000
334.016; -231.400; -936.000; -917.000
334.151; -197.200; -746.000; -702.000
334.286;  117.600;  152.000;  186.000
334.421;   10.500; -125.000; -178.000
334.556; -133.600; -611.000; -567.000
334.690; -131.700; -631.000; -577.000
334.825;  136.400;  381.000;   83.000
334.960;  -79.400; -285.000; -413.000
335.095;   67.300;  135.000;  -91.000
335.230; -168.600; -722.000; -738.000
335.365; -243.600;-1084.000; -990.000
335.499; -240.700;-1108.000;-1037.000
335.634;   70.700;    9.000;  534.000
335.769; -160.700; -755.000; -720.000
335.904; -103.800; -603.000; -561.000
336.038;  -84.800; -735.000; -657.000
336.173; -206.000;-1206.000;-1194.000
336.308;   59.100; -116.000; -189.000
336.443;   79.300; -544.000; -634.000
336.577; -132.400; -936.000; -787.000
336.712;  141.800;   -4.000;  -12.000
336.847;  -94.000; -724.000; -607.000
336.981;  156.400; -272.000; -208.000
337.116;  527.400;  615.000;  501.000
337.250;  292.900; -434.000; -421.000
337.385;  498.300; -297.000; -208.000
337.520;  205.900; -632.000; -603.000
337.654;  -40.900; -215.000; -126.000
337.789; -243.400; -989.000; -933.000
337.923;   -9.200; -104.000; -205.000
338.058; -134.900; -673.000; -738.000
338.192;  -37.000; -611.000; -488.000
338.327;   51.500;  -18.000; -155.000
338.461;  -96.400; -299.000; -469.000
338.596; -137.400; -780.000; -638.000
338.730; -151.500; -767.000; -803.000
338.865;  205.600;  -46.000; -140.000
338.999;  -68.300; -846.000; -702.000
339.134;  -30.800; -634.000; -536.000
339.268;   44.300; -741.000; -603.000
339.403;  669.600; -740.000; -775.000
339.537;  218.800; -894.000; -820.000
339.671; -197.600; -829.000; -813.000
339.806; -114.100; -556.000; -512.000
339.940;   35.900; -261.000; -235.000
340.074; -150.800; -685.000; -510.000
340.209;  -17.400; -351.000; -230.000
340.343; -153.700; -517.000; -573.000
340.477;  408.600;  998.000; 1036.000
340.612; -110.200;-1033.000; -900.000
340.746;  290.800; -199.000; -243.000
340.880; -134.100; -924.000; -785.000
341.014;   25.500;  -45.000; -154.000
341.149; -199.000; -756.000; -718.000
341.283; -191.600; -839.000; -754.000
341.417; -169.900;-1124.000; -938.000
341.551;  248.300; -768.000; -708.000
341.685;  -72.200; -633.000; -611.000
341.820;  -82.700; -562.000; -493.000
341.954;  -71.500; -218.000; -349.000
342.088; -254.800;-1102.000;-1019.000
342.222;  124.100;  565.000;  618.000
342.356;  -85.800; -395.000; -335.000
342.490; -139.000; -880.000; -841.000
342.624;  -48.000; -339.000; -242.000
342.758;   25.300; -364.000; -312.000
342.892; -110.600; -710.000; -585.000
343.026;  -48.000;  -58.000; -116.000
343.160;  -75.800; -426.000; -376.000
343.294; -135.000; -474.000; -337.000
343.428;  -16.300; -488.000; -448.000
343.562;   -1.600; -172.000;  -23.000
343.696;  -23.200; -385.000; -314.000
343.830;  -24.700; -362.000; -356.000
343.964;  121.600; -231.000; -168.000
344.098; 1533.000;  199.000;   70.000
344.232; 1337.200; -266.000; -127.000
344.366;  155.600; -567.000; -453.000
344.500;  106.600; -665.000; -744.000
344.634;  113.200; -324.000; -164.000
344.768;   27.900; -531.000; -341.000
344.902;   93.400;  278.000;  256.000
345.035; -107.900; -556.000; -496.000
345.169; -229.400; -933.000; -656.000
345.303;  -15.200; -308.000; -482.000
345.437; -100.000; -826.000; -717.000
345.571;  -98.000; -675.000; -594.000
345.704;  -93.900; -309.000; -532.000
345.838;   30.900; -331.000; -284.000
345.972;  -32.200; -543.000; -495.000
346.106;  367.600; -179.000; -190.000
346.239;  786.400; -312.000; -243.000
346.373;   25.400; -343.000; -302.000
346.507; -245.600; -950.000; -962.000
346.640;  291.500;  -30.000;   13.000
346.774;  -76.400; -650.000; -797.000
346.908;   21.300; -138.000;  -11.000
347.041; -168.400; -646.000; -593.000
347.175;   43.600;  259.000;   27.000
347.309; -144.200; -698.000; -628.000
347.442; -163.900; -883.000; -732.000
347.576;  519.000;  670.000;  668.000
347.709;  376.200; -123.000;  -52.000
347.843; -133.200; -933.000; -825.000
347.976;  144.600;  235.000;  294.000
348.110; -361.700;-1268.000;-1186.000
348.243; -169.500; -679.000; -772.000
348.377;   30.100;  -26.000;   60.000
348.510;  175.700;  403.000;  540.000
348.644;  -47.500;  -37.000; -159.000
348.777;   38.400;  180.000;  191.000
348.911;  -31.200; -142.000; -112.000
349.044;  363.800;  471.000;  448.000
349.178;  253.900;-1069.000;-1006.000
349.311;  252.500;  141.000;  255.000
349.444;   -7.800; -927.000; -813.000
349.578;   -4.000; -347.000; -200.000
349.711; -164.800; -959.000; -862.000
349.845;    0.600; -661.000; -591.000
349.978; -266.900;-1224.000;-1137.000
350.111; -141.900; -546.000; -612.000
350.244; -113.700; -596.000; -700.000
350.378;   52.400; -392.000; -393.000
350.511; -101.600; -393.000; -426.000
350.644; -173.700; -808.000; -806.000
350.778;   49.700;  168.000;  104.000
350.911;   45.100;  134.000;  140.000
351.044; -144.100; -685.000; -615.000
351.177;  -15.200; -321.000; -281.000
351.310;    1.900;    3.000; -131.000
351.444; -131.700; -888.000; -788.000
351.577;  261.200;  140.000;   90.000
351.710;  256.400;  593.000;  417.000
351.843;   -4.700; -165.000;  -77.000
351.976;   37.800;  149.000;  -79.000
352.109; -137.900; -621.000; -612.000
352.242;   -6.200; -464.000; -419.000
352.376; -117.400; -580.000; -636.000
352.509;  343.400; -437.000; -356.000
352.642;  -17.100; -654.000; -604.000
352.775;  132.100; -141.000;  -98.000
352.908; -221.100; -933.000; -904.000
353.041; -182.200; -814.000; -824.000
353.174;  -59.700; -551.000; -424.000
353.307; -139.000; -753.000; -764.000
353.440;  181.500;  541.000;  453.000
353.573; -192.900; -957.000;-1008.000
353.706;  -23.500; -384.000; -558.000
353.839;   33.000; -264.000; -220.000
353.971; -162.800; -657.000; -512.000
354.104; -150.600; -896.000; -835.000
354.237;  -58.000; -627.000; -662.000
354.370; -117.900; -846.000; -879.000
354.503; -341.800;-1231.000;-1308.000
354.636;  -12.000; -529.000; -348.000
354.769; -237.600; -937.000; -860.000
354.902;    4.900; -230.000; -139.000
355.034;  -29.500; -164.000; -220.000
355.167;    2.400; -262.000; -162.000
355.300; -181.800;-1061.000; -880.000
355.433; 1963.200;  -71.000;  -14.000
355.565; 2901.900; -402.000; -384.000
355.698;  702.800; -356.000; -296.000
355.831;  -37.100; -882.000; -801.000
355.964;  199.800; -285.000; -170.000
356.096; -137.400; -856.000; -843.000
356.229;   41.200; -523.000; -530.000
356.362;  665.700; -373.000; -266.000
356.494; 1208.500; -229.000; -162.000
356.627;  902.500;  269.000;  377.000
356.760; 1241.000;  120.000;   53.000
356.892; 1838.700; -286.000; -601.000
357.025; 1218.600;  403.000;  389.000
357.157; 1089.400; -167.000; -179.000
357.290; 1248.200; -856.000; -713.000
357.423;  388.200; -667.000; -556.000
357.555;  237.900; -217.000; -228.000
357.688;  206.100; -483.000; -364.000
357.820;  741.400; -870.000; -877.000
357.953; 6203.900; -563.000; -589.000
358.085; 1345.700; -632.000; -612.000
358.218; 2005.300;-1131.000; -932.000
358.350;  399.200;  -58.000;  312.000
358.483; -248.100;-1300.000;-1187.000
358.615;  -57.300;-1182.000;-1078.000
358.747;  -88.300;-1187.000;-1058.000
358.880;   47.400; -810.000; -744.000
359.012;   11.200; -376.000; -202.000
359.145;  -42.200; -480.000; -511.000
359.277;   69.100; -962.000; -913.000
359.409; 5213.800;  536.000;  231.000
359.542; 1293.700; -738.000; -688.000
359.674;  165.400;   46.000;   13.000
359.806;  -85.600; -565.000; -438.000
359.939;  -58.400; -617.000; -516.000
360.071;   -6.200; -583.000; -579.000
360.203;    6.800; -411.000; -364.000
360.335;  172.200;  164.000;  -16.000
360.468;  332.200; -249.000; -307.000
360.600; 4153.700; -547.000; -454.000
360.732; 5299.300; -546.000; -423.000
360.864;  706.600;-1216.000;-1044.000
360.996;  545.300; -516.000; -554.000
361.129;   85.300; -389.000; -598.000
361.261;   67.200;  110.000; -113.000
361.393;  -11.200; -252.000; -214.000
361.525;   88.700;   94.000;  244.000
361.657;  -61.100; -821.000; -703.000
361.789;   42.000; -139.000; -155.000
361.921;  428.500; -642.000; -593.000
362.053;  559.400;  524.000;  541.000
362.185;  137.100;  288.000;   72.000
362.318; -141.500; -709.000; -705.000
362.450;  302.700;  294.000;  444.000
362.582;  165.200; -913.000; -870.000
362.714;  -52.800; -353.000; -332.000
362.846; -135.600; -606.000; -490.000
362.978; -251.000; -941.000; -811.000
363.109;  139.300; -161.000; -260.000
363.241;  834.200; -739.000; -749.000
363.373;  831.900; -649.000; -564.000
363.505; 1326.500; -186.000;  -91.000
363.637;  279.800; -787.000; -601.000
363.769; -223.000;-1067.000;-1080.000
363.901;  -98.900; -596.000; -654.000
364.033; -206.600;-1103.000;-1062.000
364.165;   59.500; -283.000; -283.000
364.296;  190.300; -316.000; -177.000
364.428;  159.300;-1344.000;-1220.000
364.560; -102.500; -679.000; -661.000
364.692;  -82.500; -738.000; -835.000
364.824;  509.000; -588.000; -456.000
364.955;  817.200; -402.000; -564.000
365.087; 1723.700;-1097.000; -852.000
365.219;   50.900; -686.000; -816.000
365.351; -110.300; -526.000; -572.000
365.482;  132.000;  300.000;  240.000
365.614;  -46.900; -402.000; -314.000
365.746; -158.400; -729.000; -752.000
365.877; -156.000; -706.000; -672.000
366.009;  543.800;  -35.000;  -62.000
366.141; -152.400;-1249.000;-1134.000
366.272; -182.000; -803.000; -719.000
366.404; -190.000;-1005.000; -874.000
366.535;   41.500; -139.000;  -12.000
366.667; -176.700; -644.000; -649.000
366.799;  138.300;  353.000;  203.000
366.930; -231.400; -862.000; -996.000
367.062;  297.600; -639.000; -613.000
367.193;  310.600; -872.000; -842.000
367.325;  -85.400; -580.000; -684.000
367.456;  133.800; -246.000;   31.000
367.588;  335.100; -371.000; -318.000
367.719;  104.100;  -44.000;  -45.000
367.851;    8.400; -222.000; -241.000
367.982;  -87.200; -875.000; -732.000
368.113;  194.200; -475.000; -358.000
368.245; -180.500; -960.000; -841.000
368.376;  -17.000; -254.000; -302.000
368.508;   -4.000; -188.000; -263.000
368.639; -239.400;-1166.000;-1034.000
368.770;   -8.600; -670.000; -589.000
368.902;  -68.600; -836.000; -926.000
369.033; -179.000; -906.000; -855.000
369.164;  -51.900; -720.000; -653.000
369.296; -183.000; -452.000; -601.000
369.427;   38.200; -209.000; -144.000
369.558;  -79.700; -593.000; -377.000
369.689; -121.000; -721.000; -569.000
369.821; -222.300; -951.000; -845.000
369.952;   25.800;   42.000; -108.000
370.083;  -39.700; -229.000; -108.000
370.214; -124.100; -735.000; -650.000
370.345;   56.800;   65.000;   81.000
370.477; -143.400; -810.000; -790.000
370.608;  404.700; -328.000; -264.000
370.739;  -79.100;-1233.000;-1292.000
370.870;  -65.300;-1102.000; -923.000
371.001;  201.800; -378.000; -467.000
371.132; -119.900; -754.000; -735.000
371.263;   -0.900;  -42.000; -148.000
371.394; -236.000; -841.000; -748.000
371.525;  116.200;  345.000;  225.000
371.657; -152.800; -808.000; -670.000
371.788;  217.700;  103.000;  199.000
371.919;  329.200; -384.000; -304.000
372.050; 6184.600;  -91.000; -156.000
372.181; 1738.600; -188.000; -294.000
372.311;  634.300;   42.000; -127.000
372.442;   68.600; -457.000; -451.000
372.573;    7.900; -444.000; -340.000
372.704; -193.500;-1008.000; -980.000
372.835;  182.200; -228.000; -289.000
372.966;  -73.100; -646.000; -554.000
373.097; -101.100; -575.000; -711.000
373.228;  -38.800; -717.000; -542.000
373.359;  245.800; -824.000; -536.000
373.490; 1640.400; -881.000; -727.000
373.620; 1981.400;-1001.000; -803.000
373.751; 3044.100; -332.000; -396.000
373.882; 1347.000; -663.000; -733.000
374.013;  150.600; -449.000; -262.000
374.143;  -51.700; -581.000; -659.000
374.274; -160.400; -987.000; -908.000
374.405;  338.000; -388.000; -276.000
374.536;  809.500; -526.000; -387.000
374.666; 1929.600; -759.000; -807.000
374.797;  369.000; -817.000; -868.000
374.928; 1488.700; -710.000; -560.000
375.058; 1522.900; -535.000; -500.000
375.189;  186.000;  -59.000;  -93.000
375.320; -197.600; -928.000;-1034.000
375.450;  -47.400; -625.000; -616.000
375.581;  -51.800; -526.000; -436.000
375.712;  -12.700; -574.000; -250.000
375.842;  580.000; -438.000; -415.000
375.973;  402.900; -554.000; -513.000
376.103;  -68.800; -665.000; -648.000
376.234; -111.000; -531.000; -552.000
376.364;  -86.300; -944.000; -867.000
376.495;  622.100;  925.000;  529.000
376.625;   42.300; -472.000; -485.000
376.756;  146.900; -709.000; -678.000
376.886; -132.200;-1178.000;-1026.000
377.017;  142.100;-1048.000;-1061.000
377.147;  657.800; -786.000; -782.000
377.278;  188.300;  174.000;  228.000
377.408; -222.200; -801.000; -815.000
377.538; -196.700; -707.000; -693.000
377.669; -121.400; -537.000; -613.000
377.799; -124.700; -645.000; -635.000
377.929;  -76.300; -610.000; -428.000
378.060; -194.500; -781.000; -847.000
378.190;  -71.700; -726.000; -531.000
378.320;  -31.600; -401.000; -406.000
378.451;   33.400; -131.000;  -22.000
378.581;   19.400;  -67.000; -110.000
378.711;  315.000; 1035.000;  866.000
378.841;  -17.200; -533.000; -675.000
378.972; -145.500; -871.000; -751.000
379.102;  -32.300; -652.000; -579.000
379.232;  -14.400; -126.000;  -73.000
379.362; -191.000;-1001.000; -885.000
379.492;    2.300; -373.000; -424.000
379.623;  243.300;    0.000;  111.000
379.753; -207.500;-1107.000; -974.000
379.883;  441.900;   59.000;  156.000
380.013;    1.100;-1081.000;-1017.000
380.143; -165.200;-1097.000;-1056.000
380.273; -163.700; -985.000; -861.000
380.403;   40.200; -344.000; -257.000
380.533;  -64.900; -651.000; -664.000
380.663;  184.800;  173.000;  128.000
380.793; -191.200;-1027.000;-1074.000
380.923;   15.600; -103.000;  -34.000
381.053; -132.600; -613.000; -623.000
381.183;    8.800; -106.000; -248.000
381.313;   91.300; -656.000; -470.000
381.443;   99.800; -692.000; -473.000
381.573;  370.400; -402.000; -409.000
381.703;  496.500;-1249.000;-1095.000
381.833; -230.300;-1454.000;-1336.000
381.963;  273.200; -134.000;  -87.000
382.093; 2415.200; -925.000; -909.000
382.223;  727.000; -713.000; -602.000
382.353;  -31.000; -801.000; -608.000
382.482;  611.600;-1091.000; -964.000
382.612; 1305.700; -872.000; -644.000
382.742;  723.100; -695.000; -622.000
382.872;  456.600; -565.000; -551.000
383.002;  185.800;  347.000; -132.000
383.131;   25.200; -226.000; -160.000
383.261;  -36.000; -706.000; -768.000
383.391;  562.100; -552.000; -377.000
383.521; 6202.800;  451.000;  263.000
383.650; 1390.600; -947.000; -904.000
383.780;   -2.800; -783.000; -656.000
383.910;  261.600;  880.000;  802.000
384.039;   59.500; -794.000; -656.000
384.169;  385.300;-1205.000;-1017.000
384.299;  -30.500; -650.000; -662.000
384.428; -139.800; -764.000; -680.000
384.558;  -22.100; -308.000; -275.000
384.687;  -53.700; -414.000; -334.000
384.817;   66.300;   75.000;   -2.000
384.947;   68.100; -234.000; -141.000
385.076;  619.400;  982.000;  912.000
385.206;  279.400;  369.000;  480.000
385.335;    3.300; -549.000; -417.000
385.465; -109.900; -655.000; -663.000
385.594;  321.200;  -53.000;  -44.000
385.724;  695.400; -868.000; -838.000
385.853;  218.800; -296.000; -270.000
385.982; 2362.100; -743.000; -787.000
386.112; 3552.500;-1052.000; -871.000
386.241;  264.900; -307.000; -312.000
386.371;  105.500; -174.000;  -87.000
386.500;   61.200; -825.000; -789.000
386.629;   91.800; -874.000; -817.000
386.759;  195.800;  -43.000;   68.000
386.888;   68.800; -170.000; -250.000
387.017;  -77.900; -648.000; -620.000
387.147; -130.000; -771.000; -798.000
387.276;   50.700; -410.000; -397.000
387.405;   71.700; -398.000; -342.000
387.535;  -46.200; -452.000; -361.000
387.664;  -61.400; -692.000; -620.000
387.793;  148.200; -198.000; -113.000
387.922; 1005.000;  255.000;  200.000
388.052;   40.700; -576.000; -423.000
388.181;   68.700; -342.000; -472.000
388.310;   48.700; -889.000; -710.000
388.439;  -51.900; -749.000; -742.000
388.568;  389.700;  365.000;  244.000
388.697; 1852.400; -756.000; -653.000
388.826;  332.900; -768.000; -666.000
388.956;  160.400; -285.000; -307.000
389.085;   -7.700; -347.000; -287.000
389.214; -187.100; -842.000; -872.000
389.343;  -86.500; -645.000; -413.000
389.472;  812.400;  126.000;  149.000
389.601; 1007.900;   91.000;    0.000
389.730;   59.700; -568.000; -687.000
389.859;  223.100;  226.000;   46.000
389.988;  363.700; -423.000; -408.000
390.117;  290.100; -168.000; -146.000
390.246;   24.900; -331.000; -320.000
390.375;  229.200; -673.000; -626.000
390.504;  -55.400; -703.000; -621.000
390.633; -158.700; -672.000; -726.000
390.761;  -96.900; -732.000; -645.000
390.890;   94.100;   -4.000; -130.000
391.019;  -41.200; -421.000; -441.000
391.148; -159.700; -826.000; -855.000
391.277;  -67.900; -576.000; -493.000
391.406; -121.800; -821.000; -805.000
391.534;  107.800;  574.000; -301.000
391.663;  -78.400; -583.000; -645.000
391.792; -110.200; -673.000; -701.000
391.921;  250.900;   -3.000;   15.000
392.050;  416.300; -287.000; -228.000
392.178;  -95.100;-1206.000;-1061.000
392.307;  240.000; -758.000; -712.000
392.436;  113.600; -427.000; -641.000
392.564;   99.900;  166.000;   -6.000
392.693; -169.100; -860.000; -682.000
392.822;  366.900; -529.000; -534.000
392.950;  153.000; -880.000; -714.000
393.079;  598.300; -188.000; -328.000
393.208;   36.100; -488.000; -511.000
393.336;   25.000; -170.000; -145.000
393.465;  -62.000; -317.000; -199.000
393.593;   63.200;   62.000;   79.000
393.722; -230.500;-1121.000; -916.000
393.850;   -4.600; -188.000;  -61.000
393.979; -236.000; -926.000; -805.000
394.107;  -75.900; -517.000; -537.000
394.236;  -12.600; -570.000; -507.000
394.364;  527.800;  383.000;  206.000
394.493;  813.100; -911.000; -767.000
394.621;   21.900; -955.000; -916.000
394.750; 1409.300; -873.000; -923.000
394.878; 5904.000; -247.000; -149.000
395.007; 7651.500; -721.000; -807.000
395.135;  546.600; -790.000; -721.000
395.263; -121.500;-1038.000;-1040.000
395.392;   84.900;  -25.000; -107.000
395.520; -135.300; -818.000; -679.000
395.648; -163.800; -865.000; -915.000
395.777;  -31.100; -366.000; -405.000
395.905;  -44.700; -449.000; -564.000
396.033;   65.000;  217.000;  172.000
396.162; 1357.500; -399.000; -453.000
396.290; 1169.100;  -17.000;   -2.000
396.418;  225.400; -555.000; -514.000
396.546; -111.700; -571.000; -466.000
396.674; -154.100; -850.000; -878.000
396.803;   68.600;  -72.000;  -23.000
396.931;  213.700; -179.000; -199.000
397.059;   59.600;-1026.000; -989.000
397.187; -194.100;-1026.000; -975.000
397.315; -258.400; -884.000; -649.000
397.443; -117.800; -592.000; -443.000
397.572; -133.700; -578.000; -424.000
397.700;   39.400; -607.000; -614.000
397.828;   79.800;  120.000;  -90.000
397.956;  -56.000; -508.000; -478.000
398.084;  -92.900; -767.000; -626.000
398.212;  142.100;  137.000;  124.000
398.340;   67.700;  -56.000;  159.000
398.468;   91.200; -390.000; -169.000
398.596; -222.400; -993.000; -953.000
398.724; -201.100; -762.000; -767.000
398.852; -295.400;-1024.000; -976.000
398.980; -100.100; -560.000; -560.000
399.108;  -83.600; -982.000; -735.000
399.236;  104.100;   13.000;    8.000
399.363;   92.600;  222.000;  196.000
399.491;  -88.700; -404.000; -398.000
399.619; -204.200; -829.000; -800.000
399.747; -151.100; -859.000; -771.000
399.875;  208.900;  220.000;  234.000
400.003;  -30.400; -359.000; -284.000
400.130; -105.300; -421.000; -341.000
400.258;    5.100;  -83.000;   38.000
400.386;  -89.000; -352.000; -168.000
400.514;  -62.500; -526.000; -587.000
400.641; -149.400; -928.000; -802.000
400.769; -234.000; -979.000; -888.000
400.897; -133.300; -838.000; -793.000
401.025;   52.200; -166.000; -152.000
401.152;   45.500;  220.000;   38.000
401.280; -124.000; -430.000; -429.000
401.408; -196.500; -712.000; -576.000
401.535; -138.100; -735.000; -758.000
401.663; -327.800;-1134.000;-1054.000
401.790; -120.400; -514.000; -525.000
401.918;  157.500;  436.000;  405.000
402.046;   13.200;  134.000;  122.000
402.173;    1.100;  -18.000;    7.000
402.301;  -79.400; -519.000; -397.000
402.428;  145.700;  528.000;  383.000
402.556; -234.000;-1188.000; -913.000
402.683;  -21.800;  -20.000;   -1.000
402.811;   17.500;  -37.000; -206.000
402.938;   21.400;   20.000;   27.000
403.066;  326.500; -574.000; -558.000
403.193;  545.800;  299.000;  239.000
403.321;  447.300; -396.000; -574.000
403.448;  556.300;   83.000;   27.000
403.575;  328.700;  -90.000;  -46.000
403.703; -146.800; -732.000; -557.000
403.830;  -79.300; -531.000; -496.000
403.957; -227.500;-1117.000;-1023.000
404.085;   98.400;  -61.000; -172.000
404.212;  292.700;  -50.000;   63.000
404.339;  521.300; -566.000; -306.000
404.467;11581.600; -612.000; -524.000
404.594; 7095.000; -287.000; -227.000
404.721; 1617.800; -869.000; -764.000
404.848;  199.100; -113.000; -202.000
404.976; -173.900; -856.000; -783.000
405.103;   45.000;  -14.000;  -82.000
405.230;   63.700;  190.000;  226.000
405.357;  129.200;  117.000;   44.000
405.484;  599.600;  -49.000;    5.000
405.612;  147.900; -548.000; -563.000
405.739; -106.800; -488.000; -243.000
405.866;  239.000;  669.000;  385.000
405.993;  -40.300; -398.000; -102.000
406.120; -211.600; -801.000; -887.000
406.247;  -37.600; -323.000; -342.000
406.374;  879.000;  540.000;  629.000
406.501;  195.900; -632.000; -702.000
406.628; -107.500; -621.000; -589.000
406.755; -138.400; -803.000; -620.000
406.882;  -29.100; -228.000; -277.000
407.009; -140.400; -719.000; -628.000
407.136;  126.700; -480.000; -401.000
407.263;  253.200; -939.000; -829.000
407.390;  -96.000; -692.000; -614.000
407.517; -292.300;-1139.000;-1187.000
407.644;  -47.800; -332.000; -256.000
407.771;  -47.700; -249.000; -287.000
407.898;   78.500;  168.000;  328.000
408.025;  -87.200; -421.000; -313.000
408.151;   17.400;   82.000;  153.000
408.278;  -96.400; -267.000; -216.000
408.405; -174.900; -931.000; -899.000
408.532; -106.800; -549.000; -542.000
408.659; -195.300; -677.000; -648.000
408.785; -357.600;-1298.000;-1170.000
408.912;  -72.300; -412.000; -296.000
409.039; -180.000; -610.000; -686.000
409.166; -154.400; -591.000; -555.000
409.292; -170.300; -571.000; -534.000
409.419; -191.800; -665.000; -649.000
409.546; -123.000; -431.000; -192.000
409.672; -156.500; -713.000; -545.000
409.799;   36.500;  -36.000;   34.000
409.926;  -38.200; -180.000; -179.000
410.052; -309.100;-1127.000;-1091.000
410.179;  -87.300; -368.000; -392.000
410.305; -129.200; -375.000; -493.000
410.432;  -16.900; -220.000; -333.000
410.558; -129.900; -305.000; -380.000
410.685; -164.900; -688.000; -431.000
410.812; -134.600; -409.000; -588.000
410.938; -202.600; -964.000; -808.000
411.065; -163.500; -671.000; -645.000
411.191;  -10.000; -189.000; -174.000
411.317; -202.800; -823.000; -742.000
411.444; -109.200; -317.000; -246.000
411.570;  -88.900; -339.000; -294.000
411.697; -188.600; -758.000; -752.000
411.823; -280.700; -989.000; -999.000
411.949;    2.100;  -56.000;   17.000
412.076; -177.400; -539.000; -519.000
412.202; -201.500; -758.000; -757.000
412.329; -202.400; -798.000; -752.000
412.455; -205.500; -821.000; -657.000
412.581;    9.300;  -15.000;  172.000
412.707;  -95.900; -540.000; -457.000
412.834;   63.000;  156.000;  219.000
412.960; -124.900; -785.000; -784.000
413.086; -182.800; -743.000; -701.000
413.212;  338.500;  604.000;  578.000
413.339; -109.000; -685.000; -701.000
413.465;   38.200; -364.000; -310.000
413.591; -131.100; -757.000; -474.000
413.717;  -62.000; -358.000; -366.000
413.843; -195.000; -839.000; -861.000
413.969;  -54.900;  -47.000; -292.000
414.096; -146.800; -679.000; -679.000
414.222;   46.200;  -33.000;   85.000
414.348;   -0.700; -652.000; -385.000
414.474;  235.100;   38.000;  -52.000
414.600;   38.900; -126.000; -144.000
414.726;   27.100;  -96.000;  -55.000
414.852;  -78.600; -365.000; -342.000
414.978;  136.900;  104.000;  -18.000
415.104;  146.500;   38.000;   80.000
415.230;   81.000; -329.000; -330.000
415.356;  127.400; -409.000; -514.000
415.482;  440.200;   13.000;  -35.000
415.608;  578.900; -247.000; -323.000
415.734; 1983.300;   67.000;   38.000
415.860;40582.900; -875.000; -767.000
415.986;26510.200; -685.000; -607.000
416.111; 2209.900; -798.000; -652.000
416.237;  505.100; -424.000; -571.000
416.363; 2373.000; -765.000; -733.000
416.489; 8084.100; -324.000; -251.000
416.615;  826.600; -707.000; -742.000
416.741;   23.700; -677.000; -784.000
416.866; -100.600; -673.000; -736.000
416.992; -180.100; -801.000; -818.000
417.118;   -5.400;  -41.000;  -80.000
417.244;  -87.400; -798.000; -531.000
417.369; -118.700; -801.000; -612.000
417.495;   20.500; -325.000; -254.000
417.621; -100.700;-1015.000; -803.000
417.746;   84.300; -579.000; -572.000
417.872;  174.400; -254.000; -144.000
417.998;  163.100; -515.000; -530.000
418.123; 2309.100;-1073.000; -845.000
418.249;10497.000; -512.000; -601.000
418.374; 1389.100; -916.000; -824.000
418.500;  289.600; -383.000; -482.000
418.626;  286.700;   70.000;  -59.000
418.751;  277.400; -549.000; -448.000
418.877;  408.800; -637.000; -643.000
419.002; 3990.900; -688.000; -560.000
419.128;24578.800; -930.000; -721.000
419.253; 5357.100; -967.000; -837.000
419.379;  784.700; -391.000; -338.000
419.504;  797.800;  325.000;  415.000
419.629; 1093.700; -393.000; -212.000
419.755; 7542.400; -317.000; -254.000
419.880;40774.300;  -98.000;   67.000
420.006;22860.100; -280.000; -221.000
420.131;55260.000; -662.000; -775.000
420.256; 7203.000; -315.000; -316.000
420.382; 1050.500; -665.000; -687.000
420.507;  170.300; -649.000; -778.000
420.632;  344.300; -337.000; -339.000
420.758;  475.700; -251.000; -425.000
420.883; -130.200; -876.000; -672.000
421.008; -145.100; -775.000; -619.000
421.133; -101.600; -509.000; -467.000
421.259;  -43.000; -325.000; -259.000
421.384; -184.700; -834.000; -693.000
421.509;  -50.600;-1052.000; -862.000
421.634; 2011.000; -936.000; -820.000
421.759;  812.100; -359.000; -327.000
421.885;  -93.000; -717.000; -656.000
422.010; -117.000; -673.000; -542.000
422.135; -263.600; -695.000; -727.000
422.260;  153.500;  340.000;  280.000
422.385;    2.800;   12.000;  -98.000
422.510;   90.600;  151.000;  -26.000
422.635;  132.900;  -87.000;  -43.000
422.760;  220.900; -766.000; -791.000
422.885;  141.200;  -57.000;  -80.000
423.010;   -2.000; -112.000; -169.000
423.135; -157.000; -481.000; -561.000
423.260;   25.000; -150.000; -245.000
423.385;  199.500;  476.000;  222.000
423.510;  100.500;   71.000;  -22.000
423.635;  217.100;  133.000;   45.000
423.760;  217.300;  383.000;  328.000
423.885;  140.700;  336.000;  391.000
424.010;   75.100;  -68.000;  -13.000
424.135;   31.600;    5.000;  -33.000
424.259; -107.700; -654.000; -457.000
424.384;  -79.200; -279.000; -272.000
424.509;   25.500; -260.000; -186.000
424.634; -161.200; -761.000; -623.000
424.759;  -12.900; -688.000; -544.000
424.883;   43.100; -506.000; -527.000
425.008;  382.400; -502.000; -410.000
425.133; 4059.200; -679.000; -653.000
425.258; 1678.300; -517.000; -381.000
425.382; 1872.800; -867.000; -774.000
425.507; 4350.400; -487.000; -543.000
425.632;  792.200; -802.000; -663.000
425.756;  911.600; -256.000; -146.000
425.881;13801.900; -831.000; -857.000
426.006;33461.700; -604.000; -355.000
426.130; 4814.300; -696.000; -508.000
426.255;  689.000; -611.000; -491.000
426.379;  338.100; -189.000; -577.000
426.504;  843.900;  660.000;  544.000
426.629; 8374.200; -519.000; -466.000
426.753; 5209.500;   64.000;  -46.000
426.878;  647.300; -252.000; -288.000
427.002;  413.700; -651.000; -668.000
427.127; 3476.500;  -35.000; -158.000
427.251;22591.800;  372.000;  401.000
427.375; 5635.900; -191.000; -173.000
427.500; 3947.000; -616.000; -610.000
427.624; 1178.800; -234.000; -400.000
427.749;  244.500; -216.000; -225.000
427.873;  -35.300; -499.000; -412.000
427.997;   -5.900; -222.000; -230.000
428.122;  228.400;  795.000;  703.000
428.246;  181.300;  433.000;  434.000
428.371; -233.300; -869.000; -773.000
428.495; -124.900; -624.000; -646.000
428.619;  -18.900; -186.000; -117.000
428.743;   93.400;   65.000;  132.000
428.868;   84.700; -732.000; -643.000
428.992; 2501.400; -219.000; -326.000
429.116;  925.600; -329.000; -357.000
429.240;  536.900;  419.000;  426.000
429.365;    7.600; -454.000; -574.000
429.489;  -25.300; -638.000; -647.000
429.613;   89.400; -236.000; -177.000
429.737;  128.800; -563.000; -432.000
429.861;  600.800; -247.000; -133.000
429.985;11489.000; -425.000; -305.000
430.109;11347.600; -770.000; -908.000
430.234; 1323.000;   76.000;  -50.000
430.358;  186.200; -250.000; -160.000
430.482;  -82.500; -672.000; -564.000
430.606;  -67.900; -655.000; -375.000
430.730;  122.200; -437.000; -388.000
430.854;  265.500; -909.000; -835.000
430.978;  -83.300; -795.000; -764.000
431.102;  -84.000; -499.000; -422.000
431.226; -143.600; -874.000; -815.000
431.350;  144.600;  345.000;  422.000
431.474;  -91.600; -661.000; -373.000
431.597; -272.400;-1060.000; -848.000
431.721;  -89.600; -276.000; -267.000
431.845; -194.000; -704.000; -472.000
431.969; -116.300; -304.000; -349.000
432.093; -134.400; -395.000; -317.000
432.217;   38.400;   32.000;   82.000
432.341;  -98.100; -523.000; -518.000
432.464;   92.100;   96.000;   40.000
432.588;  422.700; -401.000; -329.000
432.712;  229.300;  -52.000;  -52.000
432.836;  145.600;  213.000;  263.000
432.959;   29.700; -372.000; -311.000
433.083;  229.000;   11.000;    2.000
433.207;  800.200;  285.000;  930.000
433.330;10630.700; -391.000; -200.000
433.454;11839.500; -654.000; -638.000
433.578; 6919.200;  583.000;  278.000
433.701; 1176.500; -623.000; -675.000
433.825;  307.400; -292.000; -299.000
433.949;  402.000;   28.000;  -72.000
434.072;  101.900; -410.000; -323.000
434.196;    9.700; -309.000; -117.000
434.319; 7870.200;25482.000;25124.000
434.443; 1564.500; -656.000; -603.000
434.566; 5245.000;  281.000;   62.000
434.690;  838.000; -637.000; -383.000
434.813;  136.600; -251.000; -173.000
434.937;  -90.900; -569.000; -696.000
435.060;  -37.200; -423.000; -332.000
435.184;  581.200; -492.000; -217.000
435.307;  342.500;  159.000;  102.000
435.431;   52.500;  -40.000;   24.000
435.554; -106.500; -399.000; -240.000
435.677;  -90.300; -350.000; -258.000
435.801;   -9.100;  -25.000;   49.000
435.924;   26.500;    1.000;  -67.000
436.048; -227.400;-1019.000; -732.000
436.171;  -75.400; -240.000;  -66.000
436.294;   19.400; -248.000; -229.000
436.417;  252.100; -963.000; -849.000
436.541; -104.100; -814.000; -840.000
436.664;  -55.900; -242.000; -316.000
436.787;    7.400;   13.000;  113.000
436.910; -166.200; -792.000; -422.000
437.034;   77.600;  142.000;  143.000
437.157;  137.700;  -11.000;    0.000
437.280;  -46.500; -392.000; -292.000
437.403; -142.700; -982.000; -869.000
437.526; 1146.300; -903.000; -865.000
437.649; 3740.800; -505.000; -332.000
437.772;  489.200; -692.000; -540.000
437.896;  286.100;  700.000;  544.000
438.019; -155.800; -758.000; -503.000
438.142; -115.600; -596.000; -506.000
438.265;   51.900; -639.000; -670.000
438.388; 1037.500; -520.000; -410.000
438.511;  162.200; -597.000; -394.000
438.634;  -35.700; -247.000; -125.000
438.757; -221.700; -693.000; -619.000
438.880;  -10.600;  -34.000;  -57.000
439.003; -102.700; -417.000; -437.000
439.126;  -29.400; -287.000; -167.000
439.248;  -49.300;  -98.000; -139.000
439.371;  -16.000;    9.000;  -53.000
439.494;  102.100;  510.000;  439.000
439.617;  -24.800;   65.000;  -88.000
439.740; -290.900; -968.000; -816.000
439.863; -234.400; -755.000; -595.000
439.986; -173.700; -476.000; -431.000
440.108;   -8.400; -161.000; -112.000
440.231; -270.800; -950.000; -836.000
440.354;  -29.200;  -64.000; -150.000
440.477;  103.300; -566.000; -542.000
440.599;   44.700; -200.000; -225.000
440.722; -177.800; -709.000; -586.000
440.845;  220.100;  751.000;  928.000
440.968; -156.200; -415.000; -311.000
441.090;  -77.800; -199.000;  -33.000
441.213; -276.400;-1021.000; -825.000
441.336;  -45.300; -159.000;   -5.000
441.458;  -89.000; -549.000; -396.000
441.581; -169.100; -628.000; -629.000
441.703;  -85.600; -152.000;   13.000
441.826; -176.000; -557.000; -400.000
441.948;  -31.100;   56.000;   51.000
442.071;  127.800;  555.000;  424.000
442.193; -162.500; -531.000; -485.000
442.316;  105.800;  152.000;   97.000
442.438;  110.300; -233.000;  -10.000
442.561;  170.800;  272.000;  262.000
442.683;  954.500; -809.000; -522.000
442.806; 1900.800;   -8.000;   74.000
442.928;  -14.200; -859.000; -604.000
443.051;  -92.200; -577.000; -373.000
443.173; -124.300; -341.000; -339.000
443.295; -136.800; -263.000; -371.000
443.418;  -78.200; -321.000;  -29.000
443.540;   47.100; -106.000;   -4.000
443.662; -180.900; -563.000; -465.000
443.785;   67.100;  335.000;  199.000
443.907; -183.300; -362.000; -208.000
444.029; -201.600; -767.000; -494.000
444.152; -231.800; -644.000; -554.000
444.274;   -5.600;  -18.000;  -24.000
444.396; -167.700; -461.000; -221.000
444.518; -222.500; -691.000; -454.000
444.640; -140.000; -268.000; -111.000
444.763;    6.300;  388.000;  249.000
444.885; -206.700; -432.000; -392.000
445.007;   13.200;   35.000;   86.000
445.129; -170.700; -610.000; -515.000
445.251; -151.200; -372.000; -439.000
445.373; -199.500; -537.000; -386.000
445.495;   75.800;  242.000;  350.000
445.617;  161.200;  853.000;  753.000
445.739;  -73.200; -215.000;  -97.000
445.861;   -9.300; -245.000; -112.000
445.984;  -18.300; -267.000; -101.000
446.105;  352.000; -418.000; -251.000
446.227; 1020.700; -176.000;  -19.000
446.349;   35.100; -358.000; -249.000
446.471; -165.400; -615.000; -448.000
446.593;  -67.800; -316.000;   19.000
446.715;   50.600;  -67.000;   41.000
446.837;  188.300;  697.000;  832.000
446.959; -152.600; -457.000; -478.000
447.081; -174.500; -628.000; -518.000
447.203;  183.600;  862.000;  834.000
447.325;  -99.200; -270.000;   42.000
447.446;   42.100;  286.000;  530.000
447.568; -259.600; -921.000; -803.000
447.690;  -68.300; -236.000; -245.000
447.812; -266.200; -798.000; -519.000
447.933;   10.600;  155.000;  127.000
448.055;  -78.100; -306.000; -261.000
448.177;  306.400;   31.000;   79.000
448.299;   94.400; -935.000; -727.000
448.420;   91.200;  -25.000;  159.000
448.542;  -44.300;   -3.000;   33.000
448.664;   54.200;  109.000;  322.000
448.785;    1.600;  265.000;   83.000
448.907; -127.500; -614.000; -353.000
449.028;  -23.600; -771.000; -471.000
449.150;  185.300;  492.000;  589.000
449.272; -302.700;-1044.000; -913.000
449.393;  170.400;  612.000;  694.000
449.515; -209.700; -634.000; -581.000
449.636;  -46.900; -264.000; -155.000
449.758;  232.700;  763.000;  622.000
449.879; -112.200; -498.000; -396.000
450.001;  -89.400; -149.000;  -49.000
450.122;   11.700;  -95.000;  162.000
450.244;   19.600;   37.000;  364.000
450.365;  -99.200; -495.000; -301.000
450.486;   17.100;   80.000;  268.000
450.608;  127.100;  393.000;  326.000
450.729;  200.000;  578.000;  645.000
450.850;   99.900; -574.000; -466.000
450.972; 1654.400; -552.000; -389.000
451.093; 9993.800;  190.000;  588.000
451.214; 3770.300; -516.000; -337.000
451.336;  763.500;  773.000;  579.000
451.457;  175.600;  264.000;  393.000
451.578;  -11.300; -118.000;  -74.000
451.699; -182.200; -546.000; -540.000
451.821;  -38.400; -284.000;  -50.000
451.942;   61.800;  278.000;  285.000
452.063;  152.900;  228.000;  419.000
452.184; 1251.600;  -54.000;  -49.000
452.305; 2127.700;  103.000;  170.000
452.427;  229.900; -549.000; -301.000
452.548;   25.400;   23.000;   79.000
452.669;  -24.300; -257.000;  -89.000
452.790;   -3.300;    3.000;  -18.000
452.911;   28.400;  195.000;  259.000
453.032;  -51.100; -289.000;  -60.000
453.153;    5.200;  -29.000;   81.000
453.274;  201.200;  737.000;  868.000
453.395;  -41.000;  -51.000;  175.000
453.516;  322.500; 1317.000; 1388.000
453.637;  -51.100; -205.000; -150.000
453.758;  -57.700;   15.000;   69.000
453.879; -187.200; -462.000; -250.000
454.000;  221.000; 1086.000;  948.000
454.121; -185.200; -554.000; -326.000
454.242; -171.900; -599.000; -383.000
454.362;  -48.500;  -99.000;  114.000
454.483;  -22.500; -309.000; -229.000
454.604;  178.500;  512.000;  580.000
454.725; -213.000; -627.000; -555.000
454.846; -169.800; -474.000; -406.000
454.967;   12.000;  230.000;  539.000
455.087;  -49.000;  179.000;  153.000
455.208;  126.300;  554.000;  856.000
455.329;  -48.000;  -22.000;   82.000
455.450;  141.900;  473.000;  633.000
455.570;  -95.800; -234.000; -211.000
455.691;  -23.500;  201.000;  407.000
455.812; -148.100; -270.000;  -92.000
455.932;  -40.100;  107.000;  -97.000
456.053; -126.700;   36.000;   24.000
456.173; -139.600; -433.000; -355.000
456.294; -193.900; -476.000; -303.000
456.415;  -38.400;  -73.000;   70.000
456.535;   24.100;  297.000;  273.000
456.656;  -22.200;  132.000;  240.000
456.776;  -95.300;    3.000;  298.000
456.897;   86.200;  308.000;  513.000
457.017;  -93.500; -153.000;   -3.000
457.138; -158.200; -402.000; -249.000
457.258;   16.600;  263.000;  224.000
457.379;   50.200;  509.000;  521.000
457.499;   -8.500;  443.000;  432.000
457.620; -179.200; -407.000; -231.000
457.740;  -99.800; -132.000;  -11.000
457.860;  -27.800;   87.000;   44.000
457.981;  -10.400;  132.000;  124.000
458.101;  -99.000;  -89.000;   40.000
458.221;   47.300;  336.000;  402.000
458.342;  -54.400;   -4.000;  -37.000
458.462;   95.400;  617.000;  352.000
458.582;    1.400; -302.000; -294.000
458.703;   91.800;  303.000;  154.000
458.823;   22.600;   22.000;  163.000
458.943;  144.200;  341.000;  467.000
459.063;   21.400; 1124.000;  192.000
459.183;   34.700;  328.000;  313.000
459.304;   88.800;  315.000;  517.000
459.424;  -54.700; -246.000;  -89.000
459.544;  767.800;  388.000;  764.000
459.664; 1731.900;  499.000;  506.000
459.784;  608.200; 1004.000; 1175.000
459.904;  193.200;  867.000;  744.000
460.024;  212.600;  867.000;  684.000
460.144;   59.900;  449.000;  554.000
460.264;   28.700;  515.000;  327.000
460.385;  -94.000; -145.000; -119.000
460.505;  184.400;  905.000;  858.000
460.625; -113.800;  -17.000;  -68.000
460.745;   37.300;  396.000;  541.000
460.864;  -29.100;  153.000;  469.000
460.984;   82.900;  499.000;  573.000
461.104;  366.800; 1656.000; 1775.000
461.224;  129.600;  657.000;  650.000
461.344;   28.800;  431.000;  360.000
461.464;    4.100;  258.000;  513.000
461.584;   33.800;  283.000;  466.000
461.704;  -37.900;   58.000;  108.000
461.824;  -88.700;  238.000;  259.000
461.943;  -28.500;  191.000;  130.000
462.063; -106.500;    2.000;  324.000
462.183;  137.000;  639.000;  717.000
462.303;  257.300; 1678.000; 1230.000
462.422;  144.000;  781.000;  840.000
462.542;  -39.600;  271.000;  391.000
462.662;  138.200;  353.000;  380.000
462.782;  583.900;  833.000;  572.000
462.901; 1013.800;  545.000;  717.000
463.021;  562.600; 1702.000; 1638.000
463.141;   70.000;  337.000;  770.000
463.260;   31.700;  614.000;  474.000
463.380;  119.400;  902.000;  884.000
463.499;  -46.300;  342.000;  332.000
463.619;    2.200;  581.000;  559.000
463.738;  292.100; 1644.000;  903.000
463.858;  104.800;  657.000;  811.000
463.978;   22.100;  542.000;  396.000
464.097;  172.600;  921.000; 1114.000
464.217;  331.600; 1196.000; 1143.000
464.336;  303.000; 1068.000; 1130.000
464.455;    0.000;  328.000;  659.000
464.575;  126.400;  597.000;  602.000
464.694;  401.000; 1204.000; 1179.000
464.814;  343.800; 1190.000; 1138.000
464.933;  227.800; 1095.000; 1027.000
465.052;  260.600; 1412.000; 1054.000
465.172;  277.600;  922.000;  799.000
465.291;  342.600; 1376.000; 1320.000
465.410;   99.700;  462.000;  735.000
465.530;  254.700; 1355.000; 1310.000
465.649;  193.000; 1209.000; 1273.000
465.768;  337.600; 1673.000; 1508.000
465.888;  164.900;  941.000; 1174.000
466.007;  279.700; 1335.000; 1440.000
466.126;   70.500;  721.000;  641.000
466.245;  170.800; 1176.000; 1187.000
466.364;   95.100;  950.000; 1060.000
466.484;  163.200; 1024.000; 1213.000
466.603;  148.500; 1101.000; 1222.000
466.722;  312.000; 1490.000; 1769.000
466.841;  212.400; 1151.000; 1401.000
466.960;  128.400; 1069.000;  972.000
467.079;  348.800; 1971.000; 1786.000
467.198;  192.100; 1238.000; 1181.000
467.317;  210.200; 1768.000; 1162.000
467.436;  241.500; 1709.000; 1261.000
467.555;  286.800; 1796.000; 1746.000
467.674;  191.900; 1227.000; 1329.000
467.793;  153.600; 1376.000; 1374.000
467.912;  268.300; 1658.000; 1539.000
468.031;  353.500; 2038.000; 1930.000
468.150;  387.400; 1842.000; 1837.000
468.269;  478.200; 2313.000; 2090.000
468.388;  500.400; 2168.000; 2339.000
468.507;  587.800; 2884.000; 2903.000
468.626;  624.000; 2555.000; 2541.000
468.744;  377.100; 2018.000; 2174.000
468.863;  497.800; 2312.000; 2523.000
468.982;  240.000; 1503.000; 1555.000
469.101;  537.200; 2788.000; 2692.000
469.220;  358.300; 2333.000; 2176.000
469.338;  564.000; 2935.000; 3051.000
469.457;  498.200; 2719.000; 2545.000
469.576;  752.400; 3953.000; 3784.000
469.695;  571.600; 2877.000; 3066.000
469.813;  931.600; 4148.000; 4192.000
469.932;  898.000; 4255.000; 4485.000
470.051;  921.400; 4075.000; 4161.000
470.169; 1794.100; 4470.000; 4338.000
470.288; 3058.000; 4700.000; 4809.000
470.406; 1747.100; 5059.000; 5194.000
470.525; 1335.800; 6101.000; 5787.000
470.644; 1344.600; 6847.000; 6794.000
470.762; 1675.500; 8397.000; 7873.000
470.881; 1879.700; 8651.000; 8464.000
470.999; 2136.400; 9685.000; 9151.000
471.118; 2323.600;11174.000;10711.000

