
Integration time [ms]: 100.000
Averaging Nr. [scans]: 40
Smoothing Nr. [pixels]: 0
Data measured with spectrometer [name]: 2101012U2
Wave   ;Sample   ;Dark     ;Reference
[nm]   ;[counts] ;[counts] ;[counts] 

197.733;   59.900;  516.000;  404.000
197.879;  -88.325; -610.000; -634.000
198.025;  -43.200; -475.000; -420.000
198.171;  -78.250; -602.000; -612.000
198.317;  -34.900; -401.000; -316.000
198.463;  -78.675; -655.000; -404.000
198.609;   24.875;  181.000; -137.000
198.755;  -82.525; -644.000; -410.000
198.901;  -55.000; -505.000; -424.000
199.047;  -60.500; -615.000; -488.000
199.193;  -35.675; -230.000; -468.000
199.339;  -51.175; -222.000; -369.000
199.485;   47.300;  330.000;  271.000
199.631;   15.625;  227.000;  310.000
199.777;  -51.550; -466.000; -398.000
199.923;  -63.000; -610.000; -424.000
200.069;  -11.875; -141.000;  -58.000
200.215;   53.225;  128.000;  453.000
200.361;   41.375;  243.000;  477.000
200.507;  -59.775; -600.000; -373.000
200.653;  -28.650; -371.000; -194.000
200.798;  -29.175; -215.000; -125.000
200.944;   -6.725; -146.000;  -41.000
201.090;   33.675;   61.000;  222.000
201.236;  -12.575; -116.000; -158.000
201.382;  116.400;  874.000;  903.000
201.528;    4.650;  -58.000;  -48.000
201.674;  -28.225; -386.000; -293.000
201.819;  -67.600; -540.000; -439.000
201.965;  -84.925; -699.000; -447.000
202.111;  -24.550; -273.000; -226.000
202.257;  -34.575; -250.000; -238.000
202.402;   -5.175;   13.000;  -36.000
202.548;  -37.925; -169.000; -116.000
202.694;   81.825;  410.000; -183.000
202.840;  -91.550; -603.000; -531.000
202.985;  -76.650; -681.000; -639.000
203.131; -110.800; -832.000; -666.000
203.277;  -35.225; -199.000; -262.000
203.423;  -54.175; -434.000; -520.000
203.568;  -39.800; -462.000; -237.000
203.714;  -64.150; -535.000; -542.000
203.860;  -72.150; -682.000; -641.000
204.005;   19.350;  112.000;  167.000
204.151;   78.175;  561.000;  556.000
204.296;  -57.075; -354.000; -221.000
204.442;  -69.075; -600.000; -547.000
204.588;  -75.725; -592.000; -579.000
204.733;    7.800;  178.000;  168.000
204.879; -114.200;-1018.000; -822.000
205.025;    6.075;  -99.000;  126.000
205.170;    7.025;  -17.000;   94.000
205.316;   81.500;  438.000;  661.000
205.461;  -88.225; -698.000; -554.000
205.607;   87.175;  609.000;  665.000
205.752;  -78.875; -626.000; -551.000
205.898;  -50.125; -501.000; -391.000
206.043;  -63.625; -578.000; -506.000
206.189;  -43.200; -243.000; -285.000
206.334;   76.275;  554.000;  606.000
206.480;   93.250;  409.000;  239.000
206.625;  -79.775; -529.000; -552.000
206.771;  -41.075; -451.000; -373.000
206.916;  -34.225; -210.000; -537.000
207.062;  -74.700; -545.000; -591.000
207.207;  -67.800; -546.000; -443.000
207.353;   49.450;  185.000;  460.000
207.498;    9.075;  196.000;   85.000
207.643;  -44.050; -501.000; -370.000
207.789; -112.700;-1069.000; -910.000
207.934;  -98.850; -665.000; -713.000
208.080;  -19.525; -154.000;   66.000
208.225;   -3.825;  -22.000;  -57.000
208.370;  -74.575; -727.000; -619.000
208.516;  -77.325; -741.000; -487.000
208.661;  -34.050; -127.000;  -69.000
208.806;  -11.725; -165.000; -171.000
208.952; -130.975;-1044.000; -731.000
209.097;   74.475;  378.000;  349.000
209.242;  -40.000; -307.000; -382.000
209.387;   55.450;  392.000;  350.000
209.533;  -49.950; -321.000; -350.000
209.678;   67.750;  472.000;  543.000
209.823;  -56.625; -408.000; -310.000
209.969;  -99.275; -860.000; -757.000
210.114; -104.525; -907.000; -719.000
210.259; -117.800; -939.000; -889.000
210.404;  -14.775; -171.000;  103.000
210.549;   15.000;  108.000;    3.000
210.695;  -17.075;   -3.000;  -95.000
210.840;   28.675;   94.000;   67.000
210.985;  -63.250; -484.000; -303.000
211.130;   62.650;  268.000;  406.000
211.275;   -1.675;  207.000;  199.000
211.420;  -52.000; -300.000; -289.000
211.566;  -72.125; -536.000; -489.000
211.711;   17.125;  218.000;  157.000
211.856;  -67.625; -545.000; -519.000
212.001;   16.575;  151.000;   44.000
212.146;   29.150;  153.000;   49.000
212.291;  -22.000; -210.000; -186.000
212.436;  -19.525; -280.000;   -6.000
212.581;  -82.100; -685.000; -653.000
212.726;  -77.775; -487.000; -538.000
212.871;  -45.075; -552.000; -217.000
213.016; -146.125;-1172.000;-1029.000
213.161;   68.500;  406.000;  291.000
213.306;  -76.375; -435.000; -577.000
213.451;  -94.850; -778.000; -689.000
213.596;  -50.100; -455.000; -347.000
213.741;  -45.450; -448.000; -538.000
213.886;  -66.825; -498.000; -517.000
214.031;  -23.825; -294.000; -124.000
214.176;  -59.750; -408.000; -341.000
214.321;  -17.600; -296.000; -157.000
214.466;  -32.800; -163.000;  -43.000
214.611;   -7.525;  -61.000;  -10.000
214.756; -117.325; -948.000; -858.000
214.901;  -22.975; -388.000; -226.000
215.046; -117.025; -797.000; -825.000
215.191;   18.825;  128.000;   35.000
215.336;   -4.225; -157.000;  -19.000
215.480;  -59.700; -684.000; -505.000
215.625;  -18.400; -175.000;  -19.000
215.770;  -77.675; -757.000; -662.000
215.915;  -15.825;   -5.000;  -97.000
216.060;  -16.325; -113.000;  -21.000
216.205; -110.375; -731.000; -779.000
216.349;  -64.350; -470.000; -533.000
216.494; -131.850; -939.000; -867.000
216.639; -119.500; -823.000; -888.000
216.784;  -87.100; -577.000; -525.000
216.929;   49.000;  392.000;  281.000
217.073;  -15.125; -244.000;  -31.000
217.218;   12.150;   78.000;  -47.000
217.363;  -95.750; -656.000; -618.000
217.507;  -82.300; -623.000; -588.000
217.652; -120.875; -845.000; -874.000
217.797;  -85.600; -708.000; -659.000
217.942; -116.825; -856.000; -720.000
218.086;   71.700;  608.000;  539.000
218.231;  -36.600; -174.000;  -26.000
218.376;  -40.925; -337.000; -229.000
218.520;    0.900;  -41.000;   96.000
218.665;  -30.100; -338.000; -204.000
218.810;  -49.375; -275.000; -233.000
218.954;   23.475;  201.000;   35.000
219.099; -116.425; -713.000; -963.000
219.243;  -68.700; -589.000; -554.000
219.388;  -32.600; -264.000; -136.000
219.532;  -19.700; -116.000; -116.000
219.677;  -84.875; -564.000; -521.000
219.822;    3.450;   33.000;   89.000
219.966;   -1.300;   17.000;  -99.000
220.111;  -12.275; -328.000;  -40.000
220.255;  -95.575; -797.000; -750.000
220.400;  -27.075; -180.000; -146.000
220.544;  -55.400; -516.000; -450.000
220.689;  -70.550; -422.000; -451.000
220.833;  -30.075; -123.000;  -58.000
220.978;  -54.425; -393.000; -563.000
221.122;   11.625;  319.000;  307.000
221.267; -115.250; -906.000; -837.000
221.411;  -62.550; -478.000; -394.000
221.555;   -4.175; -104.000;  -23.000
221.700;  -50.500; -329.000; -222.000
221.844;   35.675;  255.000;  272.000
221.989;  -55.050; -328.000; -311.000
222.133;  -35.900; -289.000; -307.000
222.277;  -12.775;    5.000;   78.000
222.422;   20.700;  227.000;  113.000
222.566;  -39.725; -381.000; -214.000
222.711;  -56.550; -414.000; -479.000
222.855;  -76.125; -643.000; -586.000
222.999;  -72.525; -642.000; -717.000
223.144;  -30.450; -195.000; -194.000
223.288;   40.325;  423.000;  251.000
223.432;   31.125;  184.000;  230.000
223.576;   15.450;  152.000;  -21.000
223.721;   37.075;  364.000;  273.000
223.865;  -56.300; -472.000; -475.000
224.009;  230.200; 1673.000; 1631.000
224.153;  -93.100; -660.000; -671.000
224.298;  -68.475; -531.000; -489.000
224.442;  -18.050;  -74.000;  -33.000
224.586;  -30.675; -169.000; -106.000
224.730; -100.075; -858.000; -670.000
224.875; -113.600; -739.000; -688.000
225.019;    8.650;  102.000;  188.000
225.163;   52.825;  208.000;  341.000
225.307;    8.325;   97.000;  -91.000
225.451;   54.550;  360.000;  481.000
225.595;   36.525;  264.000;  176.000
225.739;  -29.575; -170.000;  -94.000
225.884;   -8.150;   86.000;    5.000
226.028; -103.975; -760.000; -626.000
226.172;  -39.075; -260.000; -273.000
226.316; -132.650; -941.000; -902.000
226.460;  -83.275; -645.000; -493.000
226.604;  -40.900; -406.000; -400.000
226.748; -111.075; -836.000; -733.000
226.892;  -37.400; -227.000; -181.000
227.036;  -53.500; -537.000; -447.000
227.180;  -47.600; -551.000; -375.000
227.324;  -71.950; -561.000; -580.000
227.468; -114.925; -819.000; -717.000
227.612;   15.475;  242.000;  -28.000
227.756; -103.675; -845.000; -698.000
227.900;   58.525;  342.000;  441.000
228.044;  -59.100; -509.000; -290.000
228.188;   53.900;  448.000;  568.000
228.332;  -84.200; -546.000; -472.000
228.476;  -30.750; -223.000; -149.000
228.620;  -40.950; -210.000; -150.000
228.764;   70.825;  431.000;  349.000
228.908;  -19.700; -155.000;   30.000
229.052;  -53.475; -615.000; -528.000
229.195;  -22.850; -172.000;   13.000
229.339;  -28.575; -235.000; -305.000
229.483;  -28.900;    5.000; -162.000
229.627;   -9.425; -156.000;  139.000
229.771;  -48.425; -218.000; -294.000
229.915;    1.100;  230.000;   79.000
230.059;  -79.575; -648.000; -663.000
230.202;  -37.825; -370.000; -317.000
230.346;  -36.775; -107.000;  107.000
230.490;  -68.575; -489.000; -521.000
230.634; -102.725; -736.000; -553.000
230.777;   60.250;  478.000;  509.000
230.921;  -64.075; -450.000; -359.000
231.065;  -38.775; -246.000; -286.000
231.209;   20.675;  261.000;  265.000
231.352;   20.750;   54.000;   40.000
231.496;   16.975;  568.000;  188.000
231.640;  -98.875; -693.000; -621.000
231.783;   53.500;  546.000;  525.000
231.927;  -48.650; -294.000; -365.000
232.071; -125.850; -962.000; -736.000
232.214; -116.400; -980.000; -764.000
232.358;  -99.525; -683.000; -599.000
232.502;    2.950;  -19.000;    7.000
232.645; -130.875;-1090.000; -927.000
232.789;  -16.450; -257.000; -218.000
232.933;  -42.600; -407.000; -224.000
233.076; -124.475;-1038.000; -897.000
233.220; -104.650; -752.000; -777.000
233.363;  -80.775; -669.000; -477.000
233.507;   60.125;  371.000;  129.000
233.650;  -93.175; -764.000; -834.000
233.794;   32.850;  438.000;  461.000
233.938;  -60.700; -530.000; -362.000
234.081;   -7.350;  -93.000;   31.000
234.225;  -78.925; -631.000; -539.000
234.368; -110.125; -773.000; -723.000
234.512;  -46.400; -385.000; -299.000
234.655;  -82.400; -582.000; -555.000
234.798;  -65.675; -493.000; -466.000
234.942; -139.500; -884.000;-1002.000
235.085;  -73.500; -651.000; -443.000
235.229;  -75.375; -405.000; -410.000
235.372;  -49.575; -247.000; -191.000
235.516;  -60.925; -397.000; -321.000
235.659;   16.475;   92.000;  121.000
235.802;  -11.325;  -38.000;  -22.000
235.946;   20.400;  335.000;  215.000
236.089;   22.900;  126.000;  250.000
236.233;   52.025;  275.000;  298.000
236.376;  -40.200; -235.000; -378.000
236.519;  -44.600; -297.000; -319.000
236.663;  -21.750; -215.000; -117.000
236.806; -135.950;-1029.000; -999.000
236.949;   57.425;  543.000;  431.000
237.092;   53.000;  412.000;  391.000
237.236;  -77.125; -589.000; -502.000
237.379;   58.700;  352.000;  428.000
237.522; -129.475; -879.000; -768.000
237.666;  -25.125; -271.000;   18.000
237.809; -112.925; -851.000; -823.000
237.952;   36.375;  469.000;  271.000
238.095;  -61.050; -447.000; -442.000
238.238;   79.525;  688.000;  700.000
238.382;    5.950;  166.000;  103.000
238.525;  -71.950; -598.000; -511.000
238.668; -143.825;-1060.000; -985.000
238.811;  -88.575; -638.000; -643.000
238.954;  -62.750; -483.000; -334.000
239.097;   94.550;  617.000;  664.000
239.241;   14.375;  394.000;  326.000
239.384;  -28.375; -254.000; -214.000
239.527;  -64.950; -424.000; -224.000
239.670; -141.275; -994.000;-1091.000
239.813; -104.075; -696.000; -658.000
239.956;   64.725;  579.000;  473.000
240.099; -111.675; -778.000; -725.000
240.242;   50.075;  428.000;  432.000
240.385;   36.025;  466.000;  450.000
240.528;  -74.200; -706.000; -473.000
240.671;   10.125;  189.000;  134.000
240.814;  -42.075; -441.000; -158.000
240.957; -109.575; -767.000; -578.000
241.100; -103.775; -779.000; -755.000
241.243; -148.075;-1234.000; -893.000
241.386;  -73.525; -508.000; -379.000
241.529;  -86.375; -735.000; -547.000
241.672;  -68.075; -566.000; -495.000
241.815; -123.300; -832.000; -808.000
241.958;  -20.900; -125.000; -182.000
242.101;  -75.250; -545.000; -390.000
242.244;  -30.300; -270.000; -325.000
242.387;  -50.800; -304.000; -246.000
242.530;   43.200;  470.000;  134.000
242.673;  -54.550; -381.000; -309.000
242.815; -128.275; -925.000; -899.000
242.958;  -75.700; -482.000; -381.000
243.101;    6.500;  132.000;  187.000
243.244;  -80.400; -564.000; -521.000
243.387;  -49.375; -313.000; -316.000
243.530; -104.450; -657.000; -674.000
243.672;    3.850;   43.000;  -92.000
243.815;  -52.100; -355.000; -283.000
243.958;    5.075;   98.000;  -26.000
244.101;   -6.975;   59.000;  -16.000
244.243;  -11.225;  -47.000;  101.000
244.386; -107.600; -761.000; -630.000
244.529;  -21.275; -132.000; -139.000
244.672; -153.500;-1154.000; -951.000
244.814;  -95.275; -621.000; -794.000
244.957;  -51.875; -380.000; -304.000
245.100;  -84.800; -489.000; -489.000
245.242;  -63.825; -387.000; -374.000
245.385;    1.475;  -59.000;  -39.000
245.528; -116.050; -871.000; -705.000
245.670;   97.975;  612.000;  634.000
245.813;  -95.250; -599.000; -547.000
245.956;  -42.550; -324.000; -275.000
246.098;  -67.000; -508.000; -650.000
246.241;   -0.675;  194.000;   48.000
246.383;  -15.225; -119.000;  -73.000
246.526;  -91.250; -454.000; -525.000
246.669; -124.650; -889.000; -780.000
246.811;   15.175;  172.000;   -1.000
246.954;  -59.725; -512.000; -426.000
247.096;  -14.000;  -84.000;   -6.000
247.239;  -62.025; -482.000; -445.000
247.381;  -67.750; -647.000; -488.000
247.524;   85.975;  645.000;  679.000
247.666;   -5.325;   58.000;   11.000
247.809; -115.575; -887.000; -691.000
247.951;  -25.350;  -75.000;  138.000
248.094;   29.600;  432.000;  308.000
248.236; -154.925;-1262.000;-1238.000
248.378;   -0.450; -356.000;  -81.000
248.521;  -24.475; -334.000; -337.000
248.663;  -38.900; -236.000; -267.000
248.806;  -21.475; -300.000; -266.000
248.948;  -89.075; -886.000; -763.000
249.090;  -51.225; -428.000; -398.000
249.233;  -45.175; -344.000; -381.000
249.375;  -58.450; -474.000; -451.000
249.518;  -23.775;  -83.000; -133.000
249.660;  -12.775; -103.000;    3.000
249.802; -171.575;-1303.000;-1189.000
249.945;  -68.525; -612.000; -540.000
250.087; -123.525; -834.000; -768.000
250.229;  -58.425; -362.000; -480.000
250.371;  -85.850; -494.000; -439.000
250.514;  -70.800; -310.000; -244.000
250.656;  -20.325;   69.000;  102.000
250.798; -110.025; -849.000; -800.000
250.940;  -58.575; -322.000; -322.000
251.083;  -30.100; -335.000; -111.000
251.225;   54.375;  338.000;  310.000
251.367;  -45.425; -274.000; -373.000
251.509;  -43.600; -265.000; -210.000
251.651;  -90.300; -731.000; -671.000
251.794;   57.175;  538.000;  632.000
251.936; -104.050; -821.000; -747.000
252.078;  -72.750; -540.000; -461.000
252.220;  -72.450; -645.000; -477.000
252.362;   79.300;  344.000;  462.000
252.504;  -70.850; -677.000; -584.000
252.646; -102.650; -875.000; -722.000
252.788;   11.325;   14.000; -128.000
252.931;  -29.125; -257.000; -253.000
253.073;  -34.575; -376.000; -317.000
253.215;    3.600;  141.000;  122.000
253.357;   -8.975;   82.000; -153.000
253.499;  -57.025; -374.000; -234.000
253.641;  -88.850; -749.000; -594.000
253.783;  -94.100; -609.000; -527.000
253.925;  -89.850; -586.000; -591.000
254.067; -115.825; -744.000; -667.000
254.209;  -38.300; -391.000; -259.000
254.351; -133.250; -865.000; -883.000
254.493;  -72.025; -441.000; -417.000
254.635; -128.600; -936.000; -818.000
254.777;  -85.800; -752.000; -687.000
254.918;  -68.050; -512.000; -430.000
255.060;  -68.225; -551.000; -395.000
255.202;  -60.850; -473.000; -261.000
255.344;  -78.950; -658.000; -455.000
255.486;  -77.300; -471.000; -406.000
255.628; -110.975; -780.000; -781.000
255.770;  -89.150; -676.000; -536.000
255.912;  -64.850; -559.000; -468.000
256.053;  -93.775; -730.000; -508.000
256.195;  144.750; 1008.000;  903.000
256.337; -105.475; -861.000; -595.000
256.479;   66.575;  532.000;  416.000
256.621;  -49.950; -394.000; -212.000
256.762;  -96.175; -789.000; -742.000
256.904;   42.575;  485.000;  487.000
257.046;  -37.300; -381.000; -271.000
257.188;  -47.525; -351.000; -264.000
257.329;  -80.225; -525.000; -464.000
257.471; -120.250; -939.000; -807.000
257.613;  -63.575; -584.000; -498.000
257.755; -148.850;-1073.000; -982.000
257.896;   34.475;  286.000;  392.000
258.038;  -61.475; -403.000; -352.000
258.180;  -38.400; -354.000; -279.000
258.321;  -81.350; -581.000; -457.000
258.463;  -12.325;  -71.000;  133.000
258.605;  -99.525; -562.000; -570.000
258.746; -104.400; -886.000; -772.000
258.888; -147.450;-1026.000;-1020.000
259.029;   17.975;  121.000;   -8.000
259.171; -100.100; -614.000; -550.000
259.313;   -3.075;  -49.000;  -47.000
259.454;  -66.975; -536.000; -414.000
259.596;  -48.475; -483.000; -390.000
259.737;  -82.950; -590.000; -474.000
259.879;   25.175;  217.000;  311.000
260.020;   98.150;  901.000;  636.000
260.162;  -33.875; -146.000; -253.000
260.303; -115.400; -768.000; -687.000
260.445;  -82.475; -609.000; -613.000
260.586;   15.800;  392.000;  157.000
260.728;  -45.575; -360.000; -248.000
260.869; -112.625; -350.000; -343.000
261.011;   73.600;  706.000;  537.000
261.152;  -55.750; -479.000; -319.000
261.293;  -80.025; -576.000; -595.000
261.435;  -42.725; -219.000; -184.000
261.576;  -44.975; -455.000; -325.000
261.718;   62.025;  420.000;  470.000
261.859; -121.225; -940.000; -949.000
262.000; -131.225; -951.000;-1016.000
262.142;  -32.075;  -52.000;  -60.000
262.283; -125.000; -808.000; -691.000
262.424;  -80.150; -666.000; -625.000
262.566; -165.250;-1161.000; -983.000
262.707; -113.700; -840.000; -830.000
262.848; -125.175; -769.000; -726.000
262.990;  -49.325; -362.000; -345.000
263.131;   76.275;  650.000;  681.000
263.272;   -0.900;  -61.000;  -41.000
263.413;  -82.225; -589.000; -561.000
263.555;  -71.450; -669.000; -143.000
263.696;  -79.225; -550.000; -641.000
263.837;  -61.250; -449.000; -551.000
263.978;   -5.950;   -5.000;  -77.000
264.119;  -52.975; -283.000; -264.000
264.261; -116.625; -847.000; -630.000
264.402;    2.775;   33.000;   40.000
264.543;  -74.625; -509.000; -524.000
264.684;  -14.250;   61.000;  -50.000
264.825;  -68.250; -816.000; -538.000
264.966;   -7.175;  -84.000;  -67.000
265.107; -120.500; -646.000; -670.000
265.248; -117.075; -825.000; -812.000
265.390;  -27.925;  152.000;   -9.000
265.531;  -28.100; -238.000; -107.000
265.672;  -89.675; -557.000; -630.000
265.813;   58.225;  563.000;  439.000
265.954; -149.925; -959.000; -940.000
266.095;  -26.350; -372.000; -322.000
266.236;  -93.775; -686.000; -548.000
266.377;  -35.400; -243.000; -297.000
266.518;  -71.350; -619.000; -547.000
266.659;   27.200;  170.000;  268.000
266.800;    4.225;   83.000;   85.000
266.941;  -84.100; -487.000; -478.000
267.082;    0.600;  354.000;   99.000
267.223;  -56.125; -344.000; -273.000
267.364; -126.575; -892.000; -686.000
267.504;  -10.400;    3.000;  135.000
267.645;  -11.350;  160.000;   67.000
267.786;  -37.800; -147.000;  -86.000
267.927;  -71.275; -473.000; -379.000
268.068;  -26.075; -186.000;  -61.000
268.209;  -49.650; -175.000; -413.000
268.350;  -60.200; -388.000; -532.000
268.490;  -93.800; -648.000; -521.000
268.631;   35.925;  127.000;  225.000
268.772; -109.800; -874.000; -647.000
268.913;  -51.575; -328.000; -476.000
269.054;  -15.625; -117.000;   12.000
269.194;  -58.200; -418.000; -402.000
269.335; -146.200;-1137.000;-1074.000
269.476;  -17.750;   33.000;  -35.000
269.617;  -46.250; -347.000; -392.000
269.757;  -90.250; -713.000; -646.000
269.898; -104.775; -856.000; -613.000
270.039;  -56.075; -415.000; -405.000
270.180; -136.250; -952.000; -816.000
270.320;  -23.775; -190.000; -250.000
270.461;  -36.475; -277.000; -249.000
270.602;  -10.075; -186.000; -156.000
270.742; -111.725; -868.000; -943.000
270.883;  -56.350; -442.000; -390.000
271.023;  -60.425; -358.000; -357.000
271.164;  -75.300; -607.000; -528.000
271.305; -112.150; -666.000; -654.000
271.445;  -82.900; -722.000; -683.000
271.586;  -65.225; -462.000; -283.000
271.726;  -48.600; -397.000; -322.000
271.867;  -57.350; -594.000; -534.000
272.008;  184.300; -473.000; -285.000
272.148;  138.550;  462.000;  468.000
272.289;   18.375; -113.000; -181.000
272.429;   22.025;   19.000;  185.000
272.570;  -87.850; -633.000; -737.000
272.710; -104.600; -825.000; -775.000
272.851;  -34.025;  113.000; -130.000
272.991; -167.625;-1173.000;-1077.000
273.131;  -67.200; -419.000; -459.000
273.272; -102.850; -683.000; -723.000
273.412;    9.275; -143.000;  -31.000
273.553;  -40.900; -488.000; -507.000
273.693;  132.200;  913.000;  858.000
273.834;  -74.300; -894.000; -692.000
273.974;  -75.950; -664.000; -615.000
274.114; -108.200; -772.000; -560.000
274.255;   77.450;  414.000;  373.000
274.395;   16.150; -180.000; -125.000
274.535;   38.800;  199.000;  350.000
274.676;   23.525;  225.000;   94.000
274.816;   -4.375;  110.000;   34.000
274.956;  -76.200; -624.000; -690.000
275.097;  -59.950;-1014.000; -922.000
275.237; -121.600; -913.000; -803.000
275.377; -103.950; -778.000; -689.000
275.517; -149.525; -878.000; -937.000
275.658;  -57.825; -590.000; -555.000
275.798;  -73.375; -606.000; -413.000
275.938;   12.725;  215.000;  323.000
276.078;  -93.275; -626.000; -395.000
276.218;   -8.875;   99.000;  104.000
276.359; -117.825;-1026.000;-1024.000
276.499;  -72.475; -605.000; -446.000
276.639;  -34.850; -305.000; -151.000
276.779;  -47.275; -475.000; -357.000
276.919; -106.725; -783.000; -624.000
277.059;  -20.675; -261.000; -212.000
277.199;  -37.650; -357.000; -259.000
277.340;   34.775;  287.000;  175.000
277.480; -107.250; -840.000; -693.000
277.620;   22.625;  192.000;   16.000
277.760; -191.675;-1533.000;-1294.000
277.900;   23.100;  113.000;   33.000
278.040;   29.900;  137.000;  159.000
278.180;   26.050;  270.000;  170.000
278.320;    3.525;   21.000;   56.000
278.460;  -83.225; -443.000; -469.000
278.600;  -85.375; -708.000; -598.000
278.740;   49.050;  448.000;  224.000
278.880;  -34.275; -768.000; -791.000
279.020;   -0.825; -194.000; -144.000
279.160;  -82.750; -672.000; -595.000
279.300; -108.475; -926.000; -873.000
279.440;  -78.600; -709.000; -622.000
279.579;   -1.575;-1014.000; -929.000
279.719;  -47.625; -410.000; -394.000
279.859;   78.625;   -4.000;   41.000
279.999;   21.450; -208.000;  101.000
280.139;   -7.150; -435.000; -387.000
280.279;  -74.725; -708.000; -745.000
280.419;  -26.175; -229.000; -147.000
280.559;  -25.425; -259.000; -180.000
280.698;  -81.700; -790.000; -639.000
280.838;  -98.750; -778.000; -800.000
280.978;  -91.575; -846.000; -790.000
281.118; -104.775; -811.000; -704.000
281.257;   -5.250;   24.000;    6.000
281.397; -115.425;-1094.000; -960.000
281.537;  -82.650; -599.000; -712.000
281.677;  -20.225; -150.000; -101.000
281.816; -101.700; -700.000; -630.000
281.956;  -35.700; -193.000; -257.000
282.096;  -64.425; -539.000; -396.000
282.235; -108.800; -672.000; -638.000
282.375;   -9.425; -243.000;  -98.000
282.515; -102.025; -715.000; -707.000
282.654;   23.450;   29.000;  106.000
282.794;   24.050;  388.000;  244.000
282.934;  -42.050; -530.000; -491.000
283.073; -127.225;-1030.000; -857.000
283.213;  -47.350; -460.000; -467.000
283.353;  -32.200; -408.000; -349.000
283.492;  -32.950; -264.000; -296.000
283.632;  -42.725; -254.000; -168.000
283.771;  -94.900; -859.000; -730.000
283.911;  -48.575; -369.000; -260.000
284.050;  -95.775; -794.000; -748.000
284.190; -164.025;-1229.000;-1096.000
284.329; -141.225;-1055.000; -964.000
284.469;  -54.750; -516.000; -591.000
284.608;  -50.250; -559.000; -598.000
284.748;  -71.325; -614.000; -570.000
284.887;   -9.950;  -87.000;  -20.000
285.027; -114.200; -844.000; -892.000
285.166;  -29.875; -192.000; -249.000
285.306;   23.800; -116.000;  -33.000
285.445;  -29.000; -229.000; -343.000
285.584;  -93.750; -630.000; -494.000
285.724;  -34.675; -282.000; -322.000
285.863; -107.525; -857.000; -507.000
286.002;  -63.000; -366.000; -276.000
286.142; -110.225; -715.000; -622.000
286.281;  -72.575; -525.000; -493.000
286.420;  -73.300; -554.000; -417.000
286.560;   94.450;  653.000;  623.000
286.699; -127.425; -958.000; -912.000
286.838;  -83.925; -590.000; -591.000
286.978;  -99.525; -533.000; -537.000
287.117; -136.075;-1085.000; -950.000
287.256;  -48.675; -228.000; -211.000
287.395;  -46.925; -197.000; -378.000
287.535;  -52.025; -370.000; -298.000
287.674;  -81.700; -509.000; -484.000
287.813;   43.800;  661.000;  533.000
287.952; -124.125;-1010.000; -871.000
288.091; -133.450;-1049.000; -915.000
288.231;   13.075;   13.000;   15.000
288.370; -172.400;-1217.000;-1200.000
288.509;  -97.225; -728.000; -645.000
288.648; -100.125; -770.000; -548.000
288.787;  -23.300; -243.000;  -87.000
288.926;  -62.825; -454.000; -475.000
289.065;  118.525;  859.000;  672.000
289.204;  -57.850; -377.000; -217.000
289.344; -100.025; -791.000; -690.000
289.483;   21.950;  416.000;  304.000
289.622;  -24.950; -291.000; -149.000
289.761;  -33.500; -309.000; -166.000
289.900; -110.500; -785.000; -626.000
290.039;   -4.875;  -12.000;  -95.000
290.178;  -24.625; -274.000; -180.000
290.317;  -74.650; -618.000; -479.000
290.456;  -74.125; -463.000; -451.000
290.595; -127.700; -961.000; -833.000
290.734; -141.050; -904.000; -891.000
290.873;  -77.175; -456.000; -420.000
291.011; -107.775; -833.000; -843.000
291.150;  -87.900; -770.000; -682.000
291.289;  -21.000; -343.000; -110.000
291.428; -108.325; -599.000; -480.000
291.567;  -68.150; -370.000; -442.000
291.706;   -3.850;  109.000;  154.000
291.845;  -88.075; -597.000; -505.000
291.984; -162.500;-1234.000;-1061.000
292.122;   73.475;  602.000;  582.000
292.261;   48.950;  620.000;  463.000
292.400;    4.775; -144.000;  211.000
292.539; -134.075; -959.000; -813.000
292.678;  -35.925; -325.000; -300.000
292.816; -149.825;-1136.000; -965.000
292.955;  -76.275; -844.000; -684.000
293.094;  -31.325; -173.000; -337.000
293.233;  -52.700; -556.000; -400.000
293.371;  -29.450; -225.000;  -84.000
293.510; -105.375; -866.000; -780.000
293.649; -122.425; -959.000; -924.000
293.787;  -40.575;-1083.000;-1012.000
293.926;    5.400; -113.000;  -32.000
294.065;  -58.400; -379.000; -290.000
294.203;   47.100;  298.000;  406.000
294.342;   16.200;   74.000;  156.000
294.481; 6186.900;51180.000; -836.000
294.619;  -29.725; -425.000; -582.000
294.758; -141.150;-1230.000;-1137.000
294.896;   80.025; -125.000;    5.000
295.035; -110.900;-1040.000;-1006.000
295.174; -110.450;-1082.000; -954.000
295.312;  -48.575; -323.000; -203.000
295.451;  -18.000; -307.000; -428.000
295.589;  -48.700; -389.000; -518.000
295.728;   25.550; -292.000; -165.000
295.866;    6.100;  -36.000;  -51.000
296.005;  -59.075; -584.000; -341.000
296.143;  -66.250; -558.000; -596.000
296.282; -105.150; -957.000; -881.000
296.420;  -69.025; -657.000; -557.000
296.559;  -65.775; -892.000; -633.000
296.697;   45.325; -847.000; -665.000
296.835;  103.850;-1141.000;-1002.000
296.974;   51.175;  -23.000;   39.000
297.112;   23.000; -443.000; -504.000
297.251;  -64.475; -815.000; -755.000
297.389;  116.125; -576.000; -438.000
297.527;   40.750; -145.000;  -83.000
297.666;  -42.050; -486.000; -438.000
297.804;  -43.900; -404.000; -264.000
297.942;   -6.000; -136.000; -161.000
298.081;  -13.425; -183.000;   63.000
298.219;   85.625;  -17.000;  -19.000
298.357;   51.600; -144.000;  -71.000
298.495;   53.375; -810.000; -812.000
298.634;   91.300;  245.000;  219.000
298.772;   81.700; -220.000; -338.000
298.910;  -22.250; -309.000; -182.000
299.048;   -8.550; -130.000; -153.000
299.187;  -35.050; -350.000; -250.000
299.325;   22.475;   52.000;  122.000
299.463;   75.400; -389.000; -299.000
299.601;  152.550; -327.000; -271.000
299.739;  -92.675; -908.000; -883.000
299.877;  -85.450; -791.000; -703.000
300.016;  -31.350;-1095.000; -935.000
300.154;  199.750;  -19.000; -161.000
300.292;   65.175; -428.000; -348.000
300.430;   56.475; -408.000; -291.000
300.568;  -94.550; -940.000; -874.000
300.706;  -50.850; -366.000; -469.000
300.844;  -54.125;-1108.000; -979.000
300.982;  133.725;  246.000;  282.000
301.120;  -99.875; -965.000; -866.000
301.258;  -52.950; -812.000; -705.000
301.396;   53.650;  104.000;  -41.000
301.534;  112.325; -218.000; -293.000
301.672;   12.825; -664.000; -521.000
301.810;   63.675; -613.000; -545.000
301.948;  141.875;   53.000;  149.000
302.086;  751.025; -250.000;  -32.000
302.224; 1151.150; -610.000; -585.000
302.362;   63.600; -558.000; -622.000
302.500;    5.600; -923.000; -893.000
302.638;  138.825;  128.000;  245.000
302.776;   14.050; -352.000; -408.000
302.913;   60.025;  447.000;  236.000
303.051;   18.850;  -86.000;  -23.000
303.189;   57.200;   90.000;  118.000
303.327;  -32.225; -341.000; -256.000
303.465;  -78.900; -832.000; -588.000
303.603;  -83.400; -805.000; -604.000
303.740;  113.400;  417.000;  241.000
303.878;   69.200; -800.000; -759.000
304.016;  -86.900; -915.000; -790.000
304.154; -118.025;-1123.000;-1152.000
304.291;  -29.550; -505.000; -554.000
304.429;   10.875;  102.000;   74.000
304.567; -114.925; -908.000; -893.000
304.705;  -52.225; -408.000; -515.000
304.842;  133.250; -616.000; -540.000
304.980;   67.900;  215.000;   35.000
305.118;   67.825; -367.000; -365.000
305.255;  -59.825; -945.000; -927.000
305.393;   54.700;  178.000;  239.000
305.531;  -89.775;-1173.000; -956.000
305.668;  -61.250; -663.000; -582.000
305.806;  117.800; -358.000; -439.000
305.943;  140.650; -629.000; -637.000
306.081;   66.975; -378.000; -267.000
306.219;  -95.175; -863.000; -748.000
306.356;   15.050;  158.000;   27.000
306.494;  106.225;  981.000;  761.000
306.631;   -6.450;  -11.000;  -55.000
306.769;    0.450; -613.000; -485.000
306.906;  -12.850; -284.000; -258.000
307.044;  -55.075; -473.000; -488.000
307.181;  -68.125; -410.000; -332.000
307.319;    8.825;  112.000;   87.000
307.456; -171.525;-1191.000;-1153.000
307.594;  -84.575; -980.000; -727.000
307.731;    6.175; -371.000; -164.000
307.868;   -0.850;  -15.000;   20.000
308.006; -127.925; -961.000; -847.000
308.143;  -61.575; -618.000; -330.000
308.281;  196.825;  -37.000; -254.000
308.418;    0.225; -748.000; -640.000
308.555;  -70.500; -400.000; -250.000
308.693;  -63.800; -577.000; -573.000
308.830; -109.400; -712.000; -657.000
308.967;  -21.000; -215.000;  -95.000
309.105;  -58.325; -507.000; -396.000
309.242;   50.800; -468.000; -367.000
309.379;  371.100; -577.000; -655.000
309.517;  -55.475; -936.000; -948.000
309.654; -105.625; -910.000; -734.000
309.791;  -68.475; -662.000; -580.000
309.928; -100.025; -977.000; -914.000
310.065;  189.500;  819.000;  697.000
310.203;   12.775; -825.000; -850.000
310.340;   10.550; -465.000; -321.000
310.477;  -70.600; -412.000; -516.000
310.614;  -60.225; -383.000; -473.000
310.751;  -85.750; -427.000; -518.000
310.889;  -22.550;    1.000;   11.000
311.026; -137.150;-1161.000; -939.000
311.163;  -48.525; -386.000; -380.000
311.300;  -72.825; -512.000; -479.000
311.437;  -83.825; -658.000; -619.000
311.574; -143.375;-1226.000; -985.000
311.711;  -63.400; -595.000; -433.000
311.848;  -50.525; -380.000; -388.000
311.985;    2.275;  270.000;   93.000
312.122; -119.675; -932.000; -762.000
312.259; -123.925; -941.000; -994.000
312.396;  -78.900; -508.000; -551.000
312.533;  -90.075; -812.000; -790.000
312.670; -134.475;-1070.000; -898.000
312.807;  -42.050; -352.000; -367.000
312.944;  -70.950; -513.000; -611.000
313.081;  -30.300; -150.000; -415.000
313.218;  -98.300;-1111.000; -867.000
313.355;    2.600; -531.000; -449.000
313.492;   19.400; -455.000; -292.000
313.629;  137.775;  815.000;  735.000
313.766; -158.100;-1176.000;-1008.000
313.902;    1.075; -186.000;   21.000
314.039;  -54.825; -372.000; -289.000
314.176;   35.100;  286.000;  192.000
314.313;  -73.825; -569.000; -473.000
314.450;  -65.800; -788.000; -684.000
314.587;  -57.100; -468.000; -480.000
314.723;    3.250;  -78.000;  130.000
314.860;   47.250;  318.000;  332.000
314.997;   33.425;  223.000;  142.000
315.134;  -38.175; -385.000; -368.000
315.270;  -35.525; -480.000; -496.000
315.407; -110.275;-1094.000; -967.000
315.544;  -42.325; -657.000; -538.000
315.681;  -42.150; -681.000; -565.000
315.817;   27.175; -133.000; -176.000
315.954;   35.875; -613.000; -392.000
316.091; -108.400;-1045.000;-1023.000
316.227;  -18.000;  -71.000; -179.000
316.364;    8.675;   23.000;    6.000
316.500;  -43.900; -113.000; -300.000
316.637;  -50.450; -181.000; -302.000
316.774;  -88.450; -625.000; -358.000
316.910;  -89.700; -598.000; -629.000
317.047;  -68.150; -487.000; -351.000
317.183;  -35.875; -435.000; -566.000
317.320;   -6.550; -367.000; -321.000
317.456;  -63.600; -733.000; -805.000
317.593; -100.150; -598.000; -641.000
317.729;   -1.900;  168.000;  -67.000
317.866; -191.650;-1434.000;-1285.000
318.002;  -86.500; -708.000; -948.000
318.139;  -87.825; -883.000; -867.000
318.275;  -99.200;-1003.000; -738.000
318.412;  -65.150; -517.000; -336.000
318.548;  -14.175; -751.000; -720.000
318.685; -104.775; -985.000; -888.000
318.821; -105.275; -762.000; -735.000
318.957;  -16.050;   34.000;  -23.000
319.094;   37.125;  297.000;  154.000
319.230;  -50.425; -756.000; -742.000
319.367;  154.475; -471.000; -520.000
319.503;   80.650; -538.000; -436.000
319.639;  -68.125; -877.000; -793.000
319.775;  -61.175; -750.000; -685.000
319.912;  -53.525; -424.000; -519.000
320.048;  -83.400;-1184.000;-1184.000
320.184;   72.900;   59.000;   70.000
320.321;  -66.300; -497.000; -467.000
320.457;   71.625;  475.000;  662.000
320.593;  -73.375; -375.000; -382.000
320.729;  -99.675; -732.000; -734.000
320.866;  -72.200; -577.000; -635.000
321.002;  -88.275; -759.000; -809.000
321.138;   -3.375; -135.000; -211.000
321.274;   62.975; -148.000; -115.000
321.410;   -4.200; -585.000; -353.000
321.546;   -7.875;-1011.000; -911.000
321.683;   59.625;  400.000;  185.000
321.819;    2.650;  -48.000; -117.000
321.955; -108.375; -743.000; -722.000
322.091;  -37.475; -585.000; -540.000
322.227;   -7.950; -382.000; -202.000
322.363;  -10.350; -320.000; -215.000
322.499;  -42.925; -343.000; -331.000
322.635;  170.425;  636.000;  443.000
322.771;   37.150; -139.000;   12.000
322.907;   95.700;  129.000;  327.000
323.043;  -23.325; -115.000; -206.000
323.179;  -29.050; -394.000; -363.000
323.315;   44.075; -401.000; -371.000
323.451;  131.050; -328.000; -236.000
323.587;   65.825;  -60.000;  -77.000
323.723;   28.000; -682.000; -601.000
323.859;   -4.725; -258.000;  -76.000
323.995;  -27.975; -467.000; -409.000
324.131; -120.550; -967.000; -892.000
324.267;  -46.600; -254.000; -276.000
324.402; -135.625; -960.000; -983.000
324.538;    1.575; -279.000; -104.000
324.674;   23.700;  164.000;   77.000
324.810;  176.775;  226.000;  308.000
324.946;   21.350; -810.000; -658.000
325.082;  -72.425; -568.000; -475.000
325.217;   -0.850;  -62.000;   16.000
325.353; -101.200; -764.000; -659.000
325.489;  -87.050; -540.000; -506.000
325.625;  -74.950; -579.000; -525.000
325.760;   59.300;  517.000;  376.000
325.896;  -34.800; -515.000; -702.000
326.032;  -57.500; -403.000; -352.000
326.168;  -65.125; -462.000; -369.000
326.303;  -61.525; -352.000; -461.000
326.439;  -19.950; -336.000; -276.000
326.575;   -4.475; -190.000;  -29.000
326.710;   -6.100; -156.000;  -30.000
326.846;   -4.575;  146.000;  103.000
326.982; -100.325; -530.000; -548.000
327.117;  -63.050; -481.000; -442.000
327.253;  -87.900; -745.000; -742.000
327.388; -165.350;-1137.000;-1153.000
327.524;  -24.900; -811.000; -578.000
327.659;  -19.400;  -58.000;  -22.000
327.795;  -15.925;   69.000;   45.000
327.931;  -83.275; -723.000; -499.000
328.066;  -14.750; -417.000; -276.000
328.202;  -10.525;   12.000; -129.000
328.337;  104.275;  957.000;  713.000
328.473;   36.525;  -12.000;  -74.000
328.608;  -11.975; -256.000; -267.000
328.743;  -87.100; -799.000; -664.000
328.879;   16.925;  214.000;  114.000
329.014;  -45.850; -102.000; -122.000
329.150;  -71.250; -358.000; -483.000
329.285;  -74.625; -465.000; -466.000
329.421;  -46.625; -548.000; -246.000
329.556;  -32.100;  -36.000;   85.000
329.691;  -93.700; -633.000; -615.000
329.827;  -96.275; -626.000; -480.000
329.962;  -48.675;  131.000; -301.000
330.097; -102.050; -673.000; -585.000
330.233;  -51.450; -410.000; -223.000
330.368; -123.375; -839.000; -628.000
330.503;  -12.075;    3.000;   98.000
330.638;    4.950;  -93.000; -125.000
330.774;  -51.150; -609.000; -530.000
330.909;  -36.075; -434.000; -244.000
331.044;  -82.375; -714.000; -708.000
331.179; -164.350;-1217.000;-1109.000
331.315;   -9.275;   77.000;   20.000
331.450;    8.525;  157.000;  285.000
331.585;  -88.775; -805.000; -706.000
331.720;  -95.625; -510.000; -460.000
331.855;   -4.975;  -35.000; -102.000
331.990;  224.725;   62.000;  138.000
332.126;  112.775; -110.000;   71.000
332.261;  -25.550; -379.000; -265.000
332.396;   -0.050; -135.000; -242.000
332.531;  -98.550;-1074.000;-1031.000
332.666;   15.650; -519.000; -363.000
332.801;  -96.850; -726.000; -807.000
332.936;   -5.100; -192.000; -122.000
333.071; -148.600; -870.000; -817.000
333.206;   16.800;  307.000;  379.000
333.341;   36.600;  344.000;  418.000
333.476;  -81.700; -627.000; -623.000
333.611;  -29.650; -251.000; -173.000
333.746;  -30.200; -381.000; -464.000
333.881; -111.600; -973.000; -935.000
334.016; -115.200; -936.000; -917.000
334.151; -113.050; -746.000; -702.000
334.286;   51.175;  152.000;  186.000
334.421;  -13.600; -125.000; -178.000
334.556;  -72.500; -611.000; -567.000
334.690;  -73.950; -631.000; -577.000
334.825;   50.425;  381.000;   83.000
334.960;  -58.550; -285.000; -413.000
335.095;    7.025;  135.000;  -91.000
335.230;  -94.275; -722.000; -738.000
335.365; -116.600;-1084.000; -990.000
335.499; -123.575;-1108.000;-1037.000
335.634;   29.225;    9.000;  534.000
335.769;  -88.450; -755.000; -720.000
335.904;  -45.475; -603.000; -561.000
336.038;  -45.400; -735.000; -657.000
336.173; -103.925;-1206.000;-1194.000
336.308;   29.000; -116.000; -189.000
336.443;   30.325; -544.000; -634.000
336.577;  -68.150; -936.000; -787.000
336.712;   72.775;   -4.000;  -12.000
336.847;  -11.700; -724.000; -607.000
336.981;  107.625; -272.000; -208.000
337.116;  336.000;  615.000;  501.000
337.250;  194.350; -434.000; -421.000
337.385;  240.200; -297.000; -208.000
337.520;   75.075; -632.000; -603.000
337.654;  -43.075; -215.000; -126.000
337.789; -123.100; -989.000; -933.000
337.923;  -36.050; -104.000; -205.000
338.058;  -83.550; -673.000; -738.000
338.192;  -28.050; -611.000; -488.000
338.327;   -4.525;  -18.000; -155.000
338.461;  -66.700; -299.000; -469.000
338.596;  -84.425; -780.000; -638.000
338.730;  -98.700; -767.000; -803.000
338.865;   72.525;  -46.000; -140.000
338.999;  -58.175; -846.000; -702.000
339.134;  -28.450; -634.000; -536.000
339.268;    8.075; -741.000; -603.000
339.403;  334.150; -740.000; -775.000
339.537;   92.325; -894.000; -820.000
339.671; -121.800; -829.000; -813.000
339.806;  -80.725; -556.000; -512.000
339.940;    8.150; -261.000; -235.000
340.074;  -98.325; -685.000; -510.000
340.209;  -36.025; -351.000; -230.000
340.343;  -99.225; -517.000; -573.000
340.477;  146.850;  998.000; 1036.000
340.612;  -67.425;-1033.000; -900.000
340.746;  112.925; -199.000; -243.000
340.880;  -47.575; -924.000; -785.000
341.014;  -14.250;  -45.000; -154.000
341.149; -118.200; -756.000; -718.000
341.283; -103.100; -839.000; -754.000
341.417;  -80.400;-1124.000; -938.000
341.551;  199.550; -768.000; -708.000
341.685;  -18.225; -633.000; -611.000
341.820;  -53.450; -562.000; -493.000
341.954;  -57.650; -218.000; -349.000
342.088; -144.175;-1102.000;-1019.000
342.222;   69.300;  565.000;  618.000
342.356;  -62.000; -395.000; -335.000
342.490;  -78.125; -880.000; -841.000
342.624;  -36.700; -339.000; -242.000
342.758;   23.225; -364.000; -312.000
342.892;  -42.800; -710.000; -585.000
343.026;  -34.775;  -58.000; -116.000
343.160;  -72.175; -426.000; -376.000
343.294;  -82.325; -474.000; -337.000
343.428;  -13.450; -488.000; -448.000
343.562;  -13.600; -172.000;  -23.000
343.696;   -6.575; -385.000; -314.000
343.830;  -16.275; -362.000; -356.000
343.964;   30.500; -231.000; -168.000
344.098; 1124.625;  199.000;   70.000
344.232;  919.600; -266.000; -127.000
344.366;  103.350; -567.000; -453.000
344.500;   86.375; -665.000; -744.000
344.634;   41.275; -324.000; -164.000
344.768;   10.025; -531.000; -341.000
344.902;    6.800;  278.000;  256.000
345.035;  -79.075; -556.000; -496.000
345.169; -129.500; -933.000; -656.000
345.303;  -19.175; -308.000; -482.000
345.437;  -65.050; -826.000; -717.000
345.571;  -67.925; -675.000; -594.000
345.704;  -61.725; -309.000; -532.000
345.838;  -13.350; -331.000; -284.000
345.972;  -35.825; -543.000; -495.000
346.106;  146.475; -179.000; -190.000
346.239;  438.875; -312.000; -243.000
346.373;   12.300; -343.000; -302.000
346.507; -146.275; -950.000; -962.000
346.640;  197.925;  -30.000;   13.000
346.774;  -33.575; -650.000; -797.000
346.908;  -18.425; -138.000;  -11.000
347.041;  -85.750; -646.000; -593.000
347.175;    7.650;  259.000;   27.000
347.309;  -60.850; -698.000; -628.000
347.442;  -86.875; -883.000; -732.000
347.576;  324.675;  670.000;  668.000
347.709;  252.650; -123.000;  -52.000
347.843;  -80.575; -933.000; -825.000
347.976;   40.575;  235.000;  294.000
348.110; -175.375;-1268.000;-1186.000
348.243; -107.000; -679.000; -772.000
348.377;    0.275;  -26.000;   60.000
348.510;   53.600;  403.000;  540.000
348.644;  -43.000;  -37.000; -159.000
348.777;    4.975;  180.000;  191.000
348.911;  -39.800; -142.000; -112.000
349.044;  215.525;  471.000;  448.000
349.178;  226.675;-1069.000;-1006.000
349.311;  114.050;  141.000;  255.000
349.444;    4.850; -927.000; -813.000
349.578;  -10.275; -347.000; -200.000
349.711;  -93.225; -959.000; -862.000
349.845;   36.975; -661.000; -591.000
349.978; -144.925;-1224.000;-1137.000
350.111;  -75.750; -546.000; -612.000
350.244;  -73.975; -596.000; -700.000
350.378;   20.300; -392.000; -393.000
350.511;  -52.975; -393.000; -426.000
350.644; -106.875; -808.000; -806.000
350.778;   15.350;  168.000;  104.000
350.911;   13.875;  134.000;  140.000
351.044;  -82.125; -685.000; -615.000
351.177;   -9.400; -321.000; -281.000
351.310;  -23.250;    3.000; -131.000
351.444;  -70.000; -888.000; -788.000
351.577;  130.800;  140.000;   90.000
351.710;  101.725;  593.000;  417.000
351.843;  -40.150; -165.000;  -77.000
351.976;   -0.100;  149.000;  -79.000
352.109;  -77.850; -621.000; -612.000
352.242;  -13.525; -464.000; -419.000
352.376;  -40.625; -580.000; -636.000
352.509;  220.425; -437.000; -356.000
352.642;   50.925; -654.000; -604.000
352.775;   87.150; -141.000;  -98.000
352.908;  -99.300; -933.000; -904.000
353.041; -102.950; -814.000; -824.000
353.174;  -52.000; -551.000; -424.000
353.307;  -72.000; -753.000; -764.000
353.440;   63.475;  541.000;  453.000
353.573; -104.225; -957.000;-1008.000
353.706;  -36.400; -384.000; -558.000
353.839;   -4.875; -264.000; -220.000
353.971;  -88.450; -657.000; -512.000
354.104;  -63.825; -896.000; -835.000
354.237;  -25.125; -627.000; -662.000
354.370;  -79.100; -846.000; -879.000
354.503; -168.050;-1231.000;-1308.000
354.636;  -34.300; -529.000; -348.000
354.769; -124.450; -937.000; -860.000
354.902;    5.425; -230.000; -139.000
355.034;  -24.025; -164.000; -220.000
355.167;   -2.550; -262.000; -162.000
355.300;  -87.425;-1061.000; -880.000
355.433;  897.800;  -71.000;  -14.000
355.565; 1406.800; -402.000; -384.000
355.698;  352.350; -356.000; -296.000
355.831;   14.325; -882.000; -801.000
355.964;  120.500; -285.000; -170.000
356.096;  -80.200; -856.000; -843.000
356.229;    4.875; -523.000; -530.000
356.362;  279.225; -373.000; -266.000
356.494;  545.650; -229.000; -162.000
356.627;  555.000;  269.000;  377.000
356.760;  622.525;  120.000;   53.000
356.892;  869.175; -286.000; -601.000
357.025;  777.000;  403.000;  389.000
357.157;  749.450; -167.000; -179.000
357.290;  579.775; -856.000; -713.000
357.423;  195.825; -667.000; -556.000
357.555;  140.850; -217.000; -228.000
357.688;  163.300; -483.000; -364.000
357.820;  553.950; -870.000; -877.000
357.953; 4281.275; -563.000; -589.000
358.085; 1004.075; -632.000; -612.000
358.218; 1504.550;-1131.000; -932.000
358.350;  286.600;  -58.000;  312.000
358.483; -105.350;-1300.000;-1187.000
358.615;   31.700;-1182.000;-1078.000
358.747;  -23.275;-1187.000;-1058.000
358.880;   59.175; -810.000; -744.000
359.012;    5.400; -376.000; -202.000
359.145;  -25.525; -480.000; -511.000
359.277;  100.125; -962.000; -913.000
359.409; 3607.775;  536.000;  231.000
359.542;  977.625; -738.000; -688.000
359.674;   86.075;   46.000;   13.000
359.806;  -66.025; -565.000; -438.000
359.939;  -39.925; -617.000; -516.000
360.071;  -16.775; -583.000; -579.000
360.203;  -10.875; -411.000; -364.000
360.335;   48.875;  164.000;  -16.000
360.468;  210.475; -249.000; -307.000
360.600; 2783.175; -547.000; -454.000
360.732; 2624.650; -546.000; -423.000
360.864;  357.425;-1216.000;-1044.000
360.996;  383.000; -516.000; -554.000
361.129;   78.050; -389.000; -598.000
361.261;   34.200;  110.000; -113.000
361.393;  -32.175; -252.000; -214.000
361.525;   46.375;   94.000;  244.000
361.657;  -20.075; -821.000; -703.000
361.789;   21.500; -139.000; -155.000
361.921;  303.450; -642.000; -593.000
362.053;  307.975;  524.000;  541.000
362.185;   61.300;  288.000;   72.000
362.318;  -72.500; -709.000; -705.000
362.450;  158.300;  294.000;  444.000
362.582;  197.725; -913.000; -870.000
362.714;  -36.400; -353.000; -332.000
362.846;  -86.725; -606.000; -490.000
362.978; -144.350; -941.000; -811.000
363.109;   71.075; -161.000; -260.000
363.241;  536.900; -739.000; -749.000
363.373;  413.525; -649.000; -564.000
363.505;  605.450; -186.000;  -91.000
363.637;  156.400; -787.000; -601.000
363.769; -118.000;-1067.000;-1080.000
363.901;  -77.700; -596.000; -654.000
364.033; -117.650;-1103.000;-1062.000
364.165;   10.750; -283.000; -283.000
364.296;   73.075; -316.000; -177.000
364.428;   57.000;-1344.000;-1220.000
364.560;  -68.675; -679.000; -661.000
364.692;  -57.250; -738.000; -835.000
364.824;  367.375; -588.000; -456.000
364.955;  457.725; -402.000; -564.000
365.087;  775.200;-1097.000; -852.000
365.219;   34.875; -686.000; -816.000
365.351;  -56.925; -526.000; -572.000
365.482;   52.650;  300.000;  240.000
365.614;  -47.500; -402.000; -314.000
365.746;  -97.000; -729.000; -752.000
365.877;  -86.725; -706.000; -672.000
366.009;  226.450;  -35.000;  -62.000
366.141; -103.725;-1249.000;-1134.000
366.272; -111.400; -803.000; -719.000
366.404; -106.425;-1005.000; -874.000
366.535;   -9.775; -139.000;  -12.000
366.667;  -99.925; -644.000; -649.000
366.799;   48.175;  353.000;  203.000
366.930; -107.950; -862.000; -996.000
367.062;  117.525; -639.000; -613.000
367.193;  130.975; -872.000; -842.000
367.325;  -58.325; -580.000; -684.000
367.456;  106.275; -246.000;   31.000
367.588;  147.150; -371.000; -318.000
367.719;   21.475;  -44.000;  -45.000
367.851;  -17.425; -222.000; -241.000
367.982;  -18.500; -875.000; -732.000
368.113;  144.075; -475.000; -358.000
368.245; -100.950; -960.000; -841.000
368.376;   -9.075; -254.000; -302.000
368.508;  -15.825; -188.000; -263.000
368.639; -130.600;-1166.000;-1034.000
368.770;   -4.875; -670.000; -589.000
368.902;  -50.375; -836.000; -926.000
369.033;  -96.625; -906.000; -855.000
369.164;  -49.850; -720.000; -653.000
369.296; -103.575; -452.000; -601.000
369.427;    1.325; -209.000; -144.000
369.558;  -46.775; -593.000; -377.000
369.689;  -88.275; -721.000; -569.000
369.821; -117.625; -951.000; -845.000
369.952;   -7.475;   42.000; -108.000
370.083;  -55.150; -229.000; -108.000
370.214;  -82.450; -735.000; -650.000
370.345;   -0.800;   65.000;   81.000
370.477;  -62.350; -810.000; -790.000
370.608;  315.550; -328.000; -264.000
370.739;  -18.475;-1233.000;-1292.000
370.870;  -21.300;-1102.000; -923.000
371.001;  141.875; -378.000; -467.000
371.132;  -54.025; -754.000; -735.000
371.263;  -27.550;  -42.000; -148.000
371.394; -130.750; -841.000; -748.000
371.525;   28.225;  345.000;  225.000
371.657;  -80.200; -808.000; -670.000
371.788;   76.925;  103.000;  199.000
371.919;  216.525; -384.000; -304.000
372.050; 4386.550;  -91.000; -156.000
372.181; 1344.900; -188.000; -294.000
372.311;  464.375;   42.000; -127.000
372.442;   67.875; -457.000; -451.000
372.573;  -14.075; -444.000; -340.000
372.704; -101.850;-1008.000; -980.000
372.835;  121.125; -228.000; -289.000
372.966;  -54.575; -646.000; -554.000
373.097;  -46.100; -575.000; -711.000
373.228;  -20.125; -717.000; -542.000
373.359;  206.475; -824.000; -536.000
373.490; 1176.300; -881.000; -727.000
373.620; 1485.650;-1001.000; -803.000
373.751; 2218.950; -332.000; -396.000
373.882; 1026.450; -663.000; -733.000
374.013;  103.600; -449.000; -262.000
374.143;  -30.475; -581.000; -659.000
374.274;  -87.775; -987.000; -908.000
374.405;  218.475; -388.000; -276.000
374.536;  570.800; -526.000; -387.000
374.666; 1454.750; -759.000; -807.000
374.797;  310.850; -817.000; -868.000
374.928; 1099.825; -710.000; -560.000
375.058; 1114.275; -535.000; -500.000
375.189;   98.775;  -59.000;  -93.000
375.320;  -80.425; -928.000;-1034.000
375.450;  -33.600; -625.000; -616.000
375.581;  -41.775; -526.000; -436.000
375.712;  -20.775; -574.000; -250.000
375.842;  384.300; -438.000; -415.000
375.973;  291.525; -554.000; -513.000
376.103;  -20.350; -665.000; -648.000
376.234;  -83.675; -531.000; -552.000
376.364;  -12.200; -944.000; -867.000
376.495;  372.600;  925.000;  529.000
376.625;   28.325; -472.000; -485.000
376.756;   97.725; -709.000; -678.000
376.886;  -59.150;-1178.000;-1026.000
377.017;   27.900;-1048.000;-1061.000
377.147;  307.925; -786.000; -782.000
377.278;   50.100;  174.000;  228.000
377.408; -119.475; -801.000; -815.000
377.538;  -94.500; -707.000; -693.000
377.669;  -77.275; -537.000; -613.000
377.799;  -81.350; -645.000; -635.000
377.929;  -47.975; -610.000; -428.000
378.060; -119.550; -781.000; -847.000
378.190;  -64.250; -726.000; -531.000
378.320;  -40.550; -401.000; -406.000
378.451;   -4.250; -131.000;  -22.000
378.581;    5.325;  -67.000; -110.000
378.711;  171.850; 1035.000;  866.000
378.841;   -6.925; -533.000; -675.000
378.972;  -59.075; -871.000; -751.000
379.102;   27.100; -652.000; -579.000
379.232;   -4.575; -126.000;  -73.000
379.362;  -91.425;-1001.000; -885.000
379.492;   39.200; -373.000; -424.000
379.623;  129.750;    0.000;  111.000
379.753;  -90.200;-1107.000; -974.000
379.883;  242.900;   59.000;  156.000
380.013;   42.000;-1081.000;-1017.000
380.143; -106.425;-1097.000;-1056.000
380.273;  -84.075; -985.000; -861.000
380.403;   -1.950; -344.000; -257.000
380.533;  -12.225; -651.000; -664.000
380.663;   90.250;  173.000;  128.000
380.793;  -59.275;-1027.000;-1074.000
380.923;  -13.250; -103.000;  -34.000
381.053;  -91.200; -613.000; -623.000
381.183;  -11.350; -106.000; -248.000
381.313;   73.250; -656.000; -470.000
381.443;   74.200; -692.000; -473.000
381.573;  264.650; -402.000; -409.000
381.703;  417.400;-1249.000;-1095.000
381.833;  -96.800;-1454.000;-1336.000
381.963;  138.375; -134.000;  -87.000
382.093; 1685.050; -925.000; -909.000
382.223;  543.775; -713.000; -602.000
382.353;    0.350; -801.000; -608.000
382.482;  502.200;-1091.000; -964.000
382.612;  947.675; -872.000; -644.000
382.742;  550.125; -695.000; -622.000
382.872;  370.500; -565.000; -551.000
383.002;   76.050;  347.000; -132.000
383.131;   -6.275; -226.000; -160.000
383.261;  -22.775; -706.000; -768.000
383.391;  279.050; -552.000; -377.000
383.521; 2867.150;  451.000;  263.000
383.650;  655.225; -947.000; -904.000
383.780;  -20.550; -783.000; -656.000
383.910;  118.550;  880.000;  802.000
384.039;   58.300; -794.000; -656.000
384.169;  324.550;-1205.000;-1017.000
384.299;   -5.725; -650.000; -662.000
384.428;  -71.900; -764.000; -680.000
384.558;  -44.775; -308.000; -275.000
384.687;  -36.650; -414.000; -334.000
384.817;   23.250;   75.000;   -2.000
384.947;   38.800; -234.000; -141.000
385.076;  322.250;  982.000;  912.000
385.206;  118.125;  369.000;  480.000
385.335;  -20.275; -549.000; -417.000
385.465;  -78.000; -655.000; -663.000
385.594;  173.700;  -53.000;  -44.000
385.724;  571.100; -868.000; -838.000
385.853;  167.000; -296.000; -270.000
385.982; 1676.000; -743.000; -787.000
386.112; 2721.700;-1052.000; -871.000
386.241;  202.600; -307.000; -312.000
386.371;   45.800; -174.000;  -87.000
386.500;   39.050; -825.000; -789.000
386.629;   47.575; -874.000; -817.000
386.759;   73.950;  -43.000;   68.000
386.888;    2.250; -170.000; -250.000
387.017;  -66.100; -648.000; -620.000
387.147;  -78.250; -771.000; -798.000
387.276;   21.150; -410.000; -397.000
387.405;   41.950; -398.000; -342.000
387.535;  -31.075; -452.000; -361.000
387.664;  -66.375; -692.000; -620.000
387.793;   94.025; -198.000; -113.000
387.922;  661.225;  255.000;  200.000
388.052;   61.725; -576.000; -423.000
388.181;   52.150; -342.000; -472.000
388.310;   31.750; -889.000; -710.000
388.439;  -20.000; -749.000; -742.000
388.568;  246.725;  365.000;  244.000
388.697; 1326.275; -756.000; -653.000
388.826;  298.700; -768.000; -666.000
388.956;   82.075; -285.000; -307.000
389.085;  -11.500; -347.000; -287.000
389.214;  -99.975; -842.000; -872.000
389.343;  -64.400; -645.000; -413.000
389.472;  377.250;  126.000;  149.000
389.601;  518.900;   91.000;    0.000
389.730;   38.825; -568.000; -687.000
389.859;   74.825;  226.000;   46.000
389.988;  244.475; -423.000; -408.000
390.117;  188.650; -168.000; -146.000
390.246;    5.725; -331.000; -320.000
390.375;  160.125; -673.000; -626.000
390.504;  -50.000; -703.000; -621.000
390.633;  -83.775; -672.000; -726.000
390.761;  -47.975; -732.000; -645.000
390.890;   53.250;   -4.000; -130.000
391.019;   -8.150; -421.000; -441.000
391.148; -124.225; -826.000; -855.000
391.277;  -56.800; -576.000; -493.000
391.406;  -55.875; -821.000; -805.000
391.534;   12.550;  574.000; -301.000
391.663;  -51.650; -583.000; -645.000
391.792;  -71.925; -673.000; -701.000
391.921;  128.975;   -3.000;   15.000
392.050;  268.700; -287.000; -228.000
392.178;   -9.975;-1206.000;-1061.000
392.307;  199.575; -758.000; -712.000
392.436;  126.475; -427.000; -641.000
392.564;   17.950;  166.000;   -6.000
392.693;  -77.575; -860.000; -682.000
392.822;  273.250; -529.000; -534.000
392.950;  149.225; -880.000; -714.000
393.079;  431.225; -188.000; -328.000
393.208;   60.500; -488.000; -511.000
393.336;  -18.225; -170.000; -145.000
393.465;  -51.900; -317.000; -199.000
393.593;    2.475;   62.000;   79.000
393.722; -143.350;-1121.000; -916.000
393.850;  -42.300; -188.000;  -61.000
393.979; -157.500; -926.000; -805.000
394.107;  -53.825; -517.000; -537.000
394.236;   -6.725; -570.000; -507.000
394.364;  247.950;  383.000;  206.000
394.493;  422.400; -911.000; -767.000
394.621;   -3.175; -955.000; -916.000
394.750;  628.575; -873.000; -923.000
394.878; 2710.925; -247.000; -149.000
395.007; 3714.150; -721.000; -807.000
395.135;  283.525; -790.000; -721.000
395.263;  -79.325;-1038.000;-1040.000
395.392;   -3.100;  -25.000; -107.000
395.520; -147.150; -818.000; -679.000
395.648;  -67.650; -865.000; -915.000
395.777;    8.025; -366.000; -405.000
395.905;  -35.575; -449.000; -564.000
396.033;    7.600;  217.000;  172.000
396.162;  670.975; -399.000; -453.000
396.290;  609.425;  -17.000;   -2.000
396.418;  155.000; -555.000; -514.000
396.546;  -44.975; -571.000; -466.000
396.674;  -84.775; -850.000; -878.000
396.803;   22.725;  -72.000;  -23.000
396.931;  129.650; -179.000; -199.000
397.059;  119.175;-1026.000; -989.000
397.187;  -89.825;-1026.000; -975.000
397.315; -134.525; -884.000; -649.000
397.443; -101.875; -592.000; -443.000
397.572;  -81.625; -578.000; -424.000
397.700;   15.450; -607.000; -614.000
397.828;   27.475;  120.000;  -90.000
397.956;  -51.125; -508.000; -478.000
398.084;  -75.300; -767.000; -626.000
398.212;   36.275;  137.000;  124.000
398.340;   20.875;  -56.000;  159.000
398.468;   77.000; -390.000; -169.000
398.596; -130.375; -993.000; -953.000
398.724; -116.900; -762.000; -767.000
398.852; -157.650;-1024.000; -976.000
398.980;  -50.525; -560.000; -560.000
399.108;  -38.350; -982.000; -735.000
399.236;   37.275;   13.000;    8.000
399.363;   17.000;  222.000;  196.000
399.491;  -63.625; -404.000; -398.000
399.619; -118.375; -829.000; -800.000
399.747;  -91.850; -859.000; -771.000
399.875;   83.350;  220.000;  234.000
400.003;  -56.875; -359.000; -284.000
400.130;  -90.875; -421.000; -341.000
400.258;  -31.025;  -83.000;   38.000
400.386;  -69.700; -352.000; -168.000
400.514;  -31.650; -526.000; -587.000
400.641;  -55.300; -928.000; -802.000
400.769; -147.175; -979.000; -888.000
400.897;  -97.650; -838.000; -793.000
401.025;  -20.575; -166.000; -152.000
401.152;   -2.300;  220.000;   38.000
401.280;  -77.725; -430.000; -429.000
401.408; -117.800; -712.000; -576.000
401.535; -102.750; -735.000; -758.000
401.663; -191.650;-1134.000;-1054.000
401.790;  -77.125; -514.000; -525.000
401.918;   36.000;  436.000;  405.000
402.046;  -24.000;  134.000;  122.000
402.173;  -14.125;  -18.000;    7.000
402.301;  -61.200; -519.000; -397.000
402.428;   27.350;  528.000;  383.000
402.556; -136.125;-1188.000; -913.000
402.683;  -26.975;  -20.000;   -1.000
402.811;  -22.125;  -37.000; -206.000
402.938;  -12.625;   20.000;   27.000
403.066;  268.900; -574.000; -558.000
403.193;  415.525;  299.000;  239.000
403.321;  342.200; -396.000; -574.000
403.448;  407.125;   83.000;   27.000
403.575;  184.900;  -90.000;  -46.000
403.703;  -95.750; -732.000; -557.000
403.830;  -57.550; -531.000; -496.000
403.957; -140.775;-1117.000;-1023.000
404.085;   24.800;  -61.000; -172.000
404.212;  125.125;  -50.000;   63.000
404.339;  240.525; -566.000; -306.000
404.467; 5254.925; -612.000; -524.000
404.594; 3813.850; -287.000; -227.000
404.721;  997.800; -869.000; -764.000
404.848;   84.625; -113.000; -202.000
404.976;  -95.950; -856.000; -783.000
405.103;  -13.975;  -14.000;  -82.000
405.230;   -1.300;  190.000;  226.000
405.357;   41.025;  117.000;   44.000
405.484;  238.775;  -49.000;    5.000
405.612;   54.000; -548.000; -563.000
405.739;  -42.900; -488.000; -243.000
405.866;   90.450;  669.000;  385.000
405.993;  -49.550; -398.000; -102.000
406.120; -128.000; -801.000; -887.000
406.247;  -52.225; -323.000; -342.000
406.374;  533.850;  540.000;  629.000
406.501;  171.200; -632.000; -702.000
406.628;  -65.750; -621.000; -589.000
406.755;  -97.025; -803.000; -620.000
406.882;  -41.575; -228.000; -277.000
407.009; -104.075; -719.000; -628.000
407.136;   78.025; -480.000; -401.000
407.263;  209.925; -939.000; -829.000
407.390;  -62.400; -692.000; -614.000
407.517; -170.175;-1139.000;-1187.000
407.644;  -59.725; -332.000; -256.000
407.771;  -82.150; -249.000; -287.000
407.898;   10.750;  168.000;  328.000
408.025;  -52.775; -421.000; -313.000
408.151;    3.000;   82.000;  153.000
408.278;  -75.300; -267.000; -216.000
408.405; -107.325; -931.000; -899.000
408.532;  -55.025; -549.000; -542.000
408.659; -110.650; -677.000; -648.000
408.785; -194.500;-1298.000;-1170.000
408.912;  -61.125; -412.000; -296.000
409.039; -116.875; -610.000; -686.000
409.166; -105.325; -591.000; -555.000
409.292; -108.650; -571.000; -534.000
409.419; -113.100; -665.000; -649.000
409.546;  -94.425; -431.000; -192.000
409.672; -109.700; -713.000; -545.000
409.799;  -27.675;  -36.000;   34.000
409.926;  -36.875; -180.000; -179.000
410.052; -173.950;-1127.000;-1091.000
410.179;  -55.200; -368.000; -392.000
410.305;  -92.700; -375.000; -493.000
410.432;  -52.575; -220.000; -333.000
410.558;  -88.150; -305.000; -380.000
410.685; -104.550; -688.000; -431.000
410.812; -111.150; -409.000; -588.000
410.938; -135.825; -964.000; -808.000
411.065; -108.850; -671.000; -645.000
411.191;  -18.125; -189.000; -174.000
411.317; -115.175; -823.000; -742.000
411.444;  -63.175; -317.000; -246.000
411.570;  -78.725; -339.000; -294.000
411.697; -136.075; -758.000; -752.000
411.823; -170.775; -989.000; -999.000
411.949;  -45.000;  -56.000;   17.000
412.076; -125.025; -539.000; -519.000
412.202; -110.600; -758.000; -757.000
412.329; -124.350; -798.000; -752.000
412.455; -106.625; -821.000; -657.000
412.581;  -17.125;  -15.000;  172.000
412.707;  -51.975; -540.000; -457.000
412.834;    2.100;  156.000;  219.000
412.960;  -79.350; -785.000; -784.000
413.086; -100.225; -743.000; -701.000
413.212;  168.200;  604.000;  578.000
413.339;  -43.250; -685.000; -701.000
413.465;   15.975; -364.000; -310.000
413.591;  -76.875; -757.000; -474.000
413.717;  -48.800; -358.000; -366.000
413.843; -134.350; -839.000; -861.000
413.969;  -55.700;  -47.000; -292.000
414.096; -102.300; -679.000; -679.000
414.222;  -12.200;  -33.000;   85.000
414.348;  -12.900; -652.000; -385.000
414.474;  129.425;   38.000;  -52.000
414.600;  -14.200; -126.000; -144.000
414.726;  -13.400;  -96.000;  -55.000
414.852;  -61.150; -365.000; -342.000
414.978;   41.650;  104.000;  -18.000
415.104;   28.450;   38.000;   80.000
415.230;   25.375; -329.000; -330.000
415.356;   36.625; -409.000; -514.000
415.482;  196.550;   13.000;  -35.000
415.608;  256.075; -247.000; -323.000
415.734;  921.500;   67.000;   38.000
415.860;18734.500; -875.000; -767.000
415.986;14044.725; -685.000; -607.000
416.111; 1209.150; -798.000; -652.000
416.237;  231.975; -424.000; -571.000
416.363; 1015.075; -765.000; -733.000
416.489; 3831.925; -324.000; -251.000
416.615;  429.675; -707.000; -742.000
416.741;  -23.000; -677.000; -784.000
416.866;  -96.100; -673.000; -736.000
416.992; -121.325; -801.000; -818.000
417.118;  -17.350;  -41.000;  -80.000
417.244;  -58.550; -798.000; -531.000
417.369;  -81.900; -801.000; -612.000
417.495;    4.325; -325.000; -254.000
417.621;  -77.175;-1015.000; -803.000
417.746;    6.275; -579.000; -572.000
417.872;   38.450; -254.000; -144.000
417.998;   45.000; -515.000; -530.000
418.123;  947.825;-1073.000; -845.000
418.249; 5000.225; -512.000; -601.000
418.374;  716.900; -916.000; -824.000
418.500;   90.450; -383.000; -482.000
418.626;  112.800;   70.000;  -59.000
418.751;  133.775; -549.000; -448.000
418.877;  180.850; -637.000; -643.000
419.002; 1629.650; -688.000; -560.000
419.128;11605.650; -930.000; -721.000
419.253; 2935.050; -967.000; -837.000
419.379;  388.900; -391.000; -338.000
419.504;  367.600;  325.000;  415.000
419.629;  475.675; -393.000; -212.000
419.755; 3133.675; -317.000; -254.000
419.880;19025.900;  -98.000;   67.000
420.006;10483.525; -280.000; -221.000
420.131;27686.025; -662.000; -775.000
420.256; 4122.200; -315.000; -316.000
420.382;  530.725; -665.000; -687.000
420.507;   62.950; -649.000; -778.000
420.632;  174.525; -337.000; -339.000
420.758;  337.900; -251.000; -425.000
420.883;  -74.400; -876.000; -672.000
421.008; -102.550; -775.000; -619.000
421.133;  -82.200; -509.000; -467.000
421.259;  -45.850; -325.000; -259.000
421.384; -105.075; -834.000; -693.000
421.509;   -5.000;-1052.000; -862.000
421.634; 1529.150; -936.000; -820.000
421.759;  708.125; -359.000; -327.000
421.885;  -36.675; -717.000; -656.000
422.010;  -72.275; -673.000; -542.000
422.135; -139.650; -695.000; -727.000
422.260;   24.225;  340.000;  280.000
422.385;  -50.575;   12.000;  -98.000
422.510;   11.650;  151.000;  -26.000
422.635;   38.700;  -87.000;  -43.000
422.760;  123.975; -766.000; -791.000
422.885;   57.550;  -57.000;  -80.000
423.010;  -40.575; -112.000; -169.000
423.135;  -96.150; -481.000; -561.000
423.260;  -14.450; -150.000; -245.000
423.385;   71.075;  476.000;  222.000
423.510;   41.500;   71.000;  -22.000
423.635;   91.050;  133.000;   45.000
423.760;   60.200;  383.000;  328.000
423.885;   61.200;  336.000;  391.000
424.010;   13.925;  -68.000;  -13.000
424.135;  -18.525;    5.000;  -33.000
424.259;  -79.025; -654.000; -457.000
424.384;  -62.150; -279.000; -272.000
424.509;  -28.725; -260.000; -186.000
424.634;  -89.425; -761.000; -623.000
424.759;  -14.600; -688.000; -544.000
424.883;  -18.325; -506.000; -527.000
425.008;  153.775; -502.000; -410.000
425.133; 1879.850; -679.000; -653.000
425.258;  913.275; -517.000; -381.000
425.382; 1199.775; -867.000; -774.000
425.507; 3179.225; -487.000; -543.000
425.632;  493.200; -802.000; -663.000
425.756;  426.850; -256.000; -146.000
425.881; 5659.325; -831.000; -857.000
426.006;15749.675; -604.000; -355.000
426.130; 2633.850; -696.000; -508.000
426.255;  330.125; -611.000; -491.000
426.379;  149.600; -189.000; -577.000
426.504;  360.750;  660.000;  544.000
426.629; 3790.100; -519.000; -466.000
426.753; 2709.250;   64.000;  -46.000
426.878;  319.825; -252.000; -288.000
427.002;  138.450; -651.000; -668.000
427.127; 1474.475;  -35.000; -158.000
427.251;10505.575;  372.000;  401.000
427.375; 3171.850; -191.000; -173.000
427.500; 2721.225; -616.000; -610.000
427.624;  963.650; -234.000; -400.000
427.749;  131.075; -216.000; -225.000
427.873;  -29.850; -499.000; -412.000
427.997;  -33.975; -222.000; -230.000
428.122;   82.650;  795.000;  703.000
428.246;   89.350;  433.000;  434.000
428.371; -109.725; -869.000; -773.000
428.495;  -96.750; -624.000; -646.000
428.619;  -26.300; -186.000; -117.000
428.743;   29.100;   65.000;  132.000
428.868;   43.050; -732.000; -643.000
428.992; 1707.275; -219.000; -326.000
429.116;  718.725; -329.000; -357.000
429.240;  345.625;  419.000;  426.000
429.365;  -12.725; -454.000; -574.000
429.489;  -42.925; -638.000; -647.000
429.613;   38.725; -236.000; -177.000
429.737;   35.825; -563.000; -432.000
429.861;  250.675; -247.000; -133.000
429.985; 5150.525; -425.000; -305.000
430.109; 5838.800; -770.000; -908.000
430.234;  687.875;   76.000;  -50.000
430.358;   65.525; -250.000; -160.000
430.482;  -59.650; -672.000; -564.000
430.606;  -63.775; -655.000; -375.000
430.730;   33.400; -437.000; -388.000
430.854;  201.575; -909.000; -835.000
430.978;  -57.075; -795.000; -764.000
431.102;  -72.000; -499.000; -422.000
431.226; -121.375; -874.000; -815.000
431.350;   26.850;  345.000;  422.000
431.474;  -71.450; -661.000; -373.000
431.597; -146.300;-1060.000; -848.000
431.721;  -66.600; -276.000; -267.000
431.845; -144.375; -704.000; -472.000
431.969;  -78.550; -304.000; -349.000
432.093;  -96.300; -395.000; -317.000
432.217;  -20.925;   32.000;   82.000
432.341; -103.600; -523.000; -518.000
432.464;   -1.775;   96.000;   40.000
432.588;  279.900; -401.000; -329.000
432.712;  127.725;  -52.000;  -52.000
432.836;   59.925;  213.000;  263.000
432.959;  -21.175; -372.000; -311.000
433.083;   70.300;   11.000;    2.000
433.207;  346.275;  285.000;  930.000
433.330; 4547.800; -391.000; -200.000
433.454; 5786.250; -654.000; -638.000
433.578; 3354.325;  583.000;  278.000
433.701;  653.725; -623.000; -675.000
433.825;  185.500; -292.000; -299.000
433.949;  252.525;   28.000;  -72.000
434.072;  111.325; -410.000; -323.000
434.196;  -10.775; -309.000; -117.000
434.319; 3645.325;25482.000;25124.000
434.443;  725.675; -656.000; -603.000
434.566; 2500.775;  281.000;   62.000
434.690;  425.275; -637.000; -383.000
434.813;   59.750; -251.000; -173.000
434.937;  -78.425; -569.000; -696.000
435.060;  -29.050; -423.000; -332.000
435.184;  449.150; -492.000; -217.000
435.307;  256.725;  159.000;  102.000
435.431;  -12.400;  -40.000;   24.000
435.554;  -85.350; -399.000; -240.000
435.677;  -86.400; -350.000; -258.000
435.801;  -31.725;  -25.000;   49.000
435.924;   -2.325;    1.000;  -67.000
436.048;  -95.525;-1019.000; -732.000
436.171;  -72.225; -240.000;  -66.000
436.294;  -30.850; -248.000; -229.000
436.417;   72.350; -963.000; -849.000
436.541;  -97.150; -814.000; -840.000
436.664;  -47.925; -242.000; -316.000
436.787;  -34.600;   13.000;  113.000
436.910; -112.050; -792.000; -422.000
437.034;   17.100;  142.000;  143.000
437.157;   68.325;  -11.000;    0.000
437.280;  -39.750; -392.000; -292.000
437.403;  -57.875; -982.000; -869.000
437.526;  863.225; -903.000; -865.000
437.649; 3100.325; -505.000; -332.000
437.772;  503.475; -692.000; -540.000
437.896;  155.225;  700.000;  544.000
438.019;  -87.400; -758.000; -503.000
438.142;  -83.975; -596.000; -506.000
438.265;    1.050; -639.000; -670.000
438.388;  751.850; -520.000; -410.000
438.511;  170.875; -597.000; -394.000
438.634;  -41.150; -247.000; -125.000
438.757; -135.475; -693.000; -619.000
438.880;  -14.375;  -34.000;  -57.000
439.003;  -65.675; -417.000; -437.000
439.126;  -64.900; -287.000; -167.000
439.248;  -70.525;  -98.000; -139.000
439.371;  -53.950;    9.000;  -53.000
439.494;   20.200;  510.000;  439.000
439.617;  -41.325;   65.000;  -88.000
439.740; -184.475; -968.000; -816.000
439.863; -146.150; -755.000; -595.000
439.986; -118.350; -476.000; -431.000
440.108;  -48.100; -161.000; -112.000
440.231; -150.500; -950.000; -836.000
440.354;  -29.900;  -64.000; -150.000
440.477;   68.800; -566.000; -542.000
440.599;   20.575; -200.000; -225.000
440.722; -112.675; -709.000; -586.000
440.845;   61.025;  751.000;  928.000
440.968; -122.025; -415.000; -311.000
441.090;  -62.025; -199.000;  -33.000
441.213; -173.200;-1021.000; -825.000
441.336;  -78.875; -159.000;   -5.000
441.458;  -86.375; -549.000; -396.000
441.581;  -83.775; -628.000; -629.000
441.703;  -73.475; -152.000;   13.000
441.826; -118.700; -557.000; -400.000
441.948;  -52.600;   56.000;   51.000
442.071;   31.400;  555.000;  424.000
442.193; -112.300; -531.000; -485.000
442.316;   16.975;  152.000;   97.000
442.438;   52.525; -233.000;  -10.000
442.561;   86.775;  272.000;  262.000
442.683;  709.175; -809.000; -522.000
442.806; 1561.900;   -8.000;   74.000
442.928;   99.450; -859.000; -604.000
443.051;  -65.025; -577.000; -373.000
443.173;  -94.900; -341.000; -339.000
443.295; -102.300; -263.000; -371.000
443.418;  -76.075; -321.000;  -29.000
443.540;    0.350; -106.000;   -4.000
443.662; -104.400; -563.000; -465.000
443.785;  -17.225;  335.000;  199.000
443.907; -100.725; -362.000; -208.000
444.029; -132.725; -767.000; -494.000
444.152; -148.950; -644.000; -554.000
444.274;  -31.600;  -18.000;  -24.000
444.396; -121.500; -461.000; -221.000
444.518; -126.350; -691.000; -454.000
444.640; -118.325; -268.000; -111.000
444.763;  -19.600;  388.000;  249.000
444.885; -118.300; -432.000; -392.000
445.007;  -39.050;   35.000;   86.000
445.129; -112.275; -610.000; -515.000
445.251;  -94.250; -372.000; -439.000
445.373; -133.150; -537.000; -386.000
445.495;    1.300;  242.000;  350.000
445.617;   47.025;  853.000;  753.000
445.739;  -67.675; -215.000;  -97.000
445.861;  -31.750; -245.000; -112.000
445.984;  -26.675; -267.000; -101.000
446.105;  254.300; -418.000; -251.000
446.227;  816.175; -176.000;  -19.000
446.349;   33.300; -358.000; -249.000
446.471;  -93.025; -615.000; -448.000
446.593;  -63.925; -316.000;   19.000
446.715;   18.300;  -67.000;   41.000
446.837;   46.975;  697.000;  832.000
446.959; -104.100; -457.000; -478.000
447.081; -138.875; -628.000; -518.000
447.203;   55.675;  862.000;  834.000
447.325;  -86.175; -270.000;   42.000
447.446;  -10.275;  286.000;  530.000
447.568; -146.050; -921.000; -803.000
447.690;  -78.300; -236.000; -245.000
447.812; -150.775; -798.000; -519.000
447.933;  -39.525;  155.000;  127.000
448.055;  -68.950; -306.000; -261.000
448.177;  188.050;   31.000;   79.000
448.299;  169.225; -935.000; -727.000
448.420;   34.950;  -25.000;  159.000
448.542;  -47.400;   -3.000;   33.000
448.664;  -21.025;  109.000;  322.000
448.785;  -36.425;  265.000;   83.000
448.907;  -63.250; -614.000; -353.000
449.028;  -17.025; -771.000; -471.000
449.150;   74.000;  492.000;  589.000
449.272; -177.250;-1044.000; -913.000
449.393;   30.925;  612.000;  694.000
449.515; -140.500; -634.000; -581.000
449.636;  -55.550; -264.000; -155.000
449.758;   87.275;  763.000;  622.000
449.879;  -84.125; -498.000; -396.000
450.001;  -77.025; -149.000;  -49.000
450.122;  -39.125;  -95.000;  162.000
450.244;  -40.275;   37.000;  364.000
450.365;  -96.250; -495.000; -301.000
450.486;  -36.550;   80.000;  268.000
450.608;   -0.150;  393.000;  326.000
450.729;   52.500;  578.000;  645.000
450.850;  -15.750; -574.000; -466.000
450.972;  635.600; -552.000; -389.000
451.093; 4396.025;  190.000;  588.000
451.214; 1975.400; -516.000; -337.000
451.336;  363.975;  773.000;  579.000
451.457;   45.975;  264.000;  393.000
451.578;  -48.125; -118.000;  -74.000
451.699; -134.200; -546.000; -540.000
451.821;  -64.300; -284.000;  -50.000
451.942;  -12.500;  278.000;  285.000
452.063;   22.075;  228.000;  419.000
452.184;  481.700;  -54.000;  -49.000
452.305; 1021.425;  103.000;  170.000
452.427;  124.600; -549.000; -301.000
452.548;  -13.750;   23.000;   79.000
452.669;  -55.625; -257.000;  -89.000
452.790;  -56.325;    3.000;  -18.000
452.911;    2.600;  195.000;  259.000
453.032;  -57.900; -289.000;  -60.000
453.153;  -45.525;  -29.000;   81.000
453.274;   72.250;  737.000;  868.000
453.395;  -38.500;  -51.000;  175.000
453.516;  126.525; 1317.000; 1388.000
453.637;  -55.950; -205.000; -150.000
453.758;  -53.850;   15.000;   69.000
453.879; -124.600; -462.000; -250.000
454.000;   76.500; 1086.000;  948.000
454.121; -116.200; -554.000; -326.000
454.242; -105.550; -599.000; -383.000
454.362;  -72.175;  -99.000;  114.000
454.483;  -40.500; -309.000; -229.000
454.604;   66.675;  512.000;  580.000
454.725; -126.600; -627.000; -555.000
454.846; -113.250; -474.000; -406.000
454.967;  -23.850;  230.000;  539.000
455.087;  -38.825;  179.000;  153.000
455.208;   10.075;  554.000;  856.000
455.329;  -71.800;  -22.000;   82.000
455.450;   19.000;  473.000;  633.000
455.570;  -95.100; -234.000; -211.000
455.691;  -32.900;  201.000;  407.000
455.812; -113.350; -270.000;  -92.000
455.932;  -64.675;  107.000;  -97.000
456.053;  -84.850;   36.000;   24.000
456.173; -109.125; -433.000; -355.000
456.294; -134.650; -476.000; -303.000
456.415;  -73.525;  -73.000;   70.000
456.535;  -24.575;  297.000;  273.000
456.656;  -44.275;  132.000;  240.000
456.776;  -79.400;    3.000;  298.000
456.897;  -19.275;  308.000;  513.000
457.017;  -84.675; -153.000;   -3.000
457.138; -107.325; -402.000; -249.000
457.258;  -32.675;  263.000;  224.000
457.379;  -16.900;  509.000;  521.000
457.499;  -33.550;  443.000;  432.000
457.620; -127.550; -407.000; -231.000
457.740;  -97.925; -132.000;  -11.000
457.860;  -62.050;   87.000;   44.000
457.981;  -43.050;  132.000;  124.000
458.101;  -77.950;  -89.000;   40.000
458.221;   -6.275;  336.000;  402.000
458.342;  -73.225;   -4.000;  -37.000
458.462;   12.300;  617.000;  352.000
458.582;  -48.450; -302.000; -294.000
458.703;    3.700;  303.000;  154.000
458.823;  -33.350;   22.000;  163.000
458.943;   12.575;  341.000;  467.000
459.063;  -14.450; 1124.000;  192.000
459.183;  -34.200;  328.000;  313.000
459.304;  -10.050;  315.000;  517.000
459.424;  -69.675; -246.000;  -89.000
459.544;  291.875;  388.000;  764.000
459.664;  768.750;  499.000;  506.000
459.784;  295.700; 1004.000; 1175.000
459.904;   64.050;  867.000;  744.000
460.024;   65.350;  867.000;  684.000
460.144;    9.925;  449.000;  554.000
460.264;  -18.250;  515.000;  327.000
460.385;  -84.275; -145.000; -119.000
460.505;   30.275;  905.000;  858.000
460.625;  -96.400;  -17.000;  -68.000
460.745;  -16.300;  396.000;  541.000
460.864;  -59.525;  153.000;  469.000
460.984;   19.000;  499.000;  573.000
461.104;  146.150; 1656.000; 1775.000
461.224;    6.800;  657.000;  650.000
461.344;  -37.825;  431.000;  360.000
461.464;  -47.325;  258.000;  513.000
461.584;  -18.375;  283.000;  466.000
461.704;  -35.625;   58.000;  108.000
461.824;  -68.950;  238.000;  259.000
461.943;  -29.700;  191.000;  130.000
462.063;  -81.425;    2.000;  324.000
462.183;   40.900;  639.000;  717.000
462.303;  115.550; 1678.000; 1230.000
462.422;   28.550;  781.000;  840.000
462.542;  -45.925;  271.000;  391.000
462.662;   41.325;  353.000;  380.000
462.782;  216.275;  833.000;  572.000
462.901;  463.125;  545.000;  717.000
463.021;  270.175; 1702.000; 1638.000
463.141;   -6.425;  337.000;  770.000
463.260;  -24.650;  614.000;  474.000
463.380;    4.500;  902.000;  884.000
463.499;  -40.250;  342.000;  332.000
463.619;  -36.675;  581.000;  559.000
463.738;  102.250; 1644.000;  903.000
463.858;   14.500;  657.000;  811.000
463.978;  -27.425;  542.000;  396.000
464.097;   58.950;  921.000; 1114.000
464.217;  104.625; 1196.000; 1143.000
464.336;  114.075; 1068.000; 1130.000
464.455;  -29.325;  328.000;  659.000
464.575;   37.700;  597.000;  602.000
464.694;  160.950; 1204.000; 1179.000
464.814;  128.625; 1190.000; 1138.000
464.933;   76.700; 1095.000; 1027.000
465.052;   94.850; 1412.000; 1054.000
465.172;   82.225;  922.000;  799.000
465.291;  140.050; 1376.000; 1320.000
465.410;   15.725;  462.000;  735.000
465.530;   91.325; 1355.000; 1310.000
465.649;   67.600; 1209.000; 1273.000
465.768;  120.375; 1673.000; 1508.000
465.888;   47.875;  941.000; 1174.000
466.007;   95.350; 1335.000; 1440.000
466.126;   -8.675;  721.000;  641.000
466.245;   42.350; 1176.000; 1187.000
466.364;   16.800;  950.000; 1060.000
466.484;   59.275; 1024.000; 1213.000
466.603;   30.150; 1101.000; 1222.000
466.722;   95.925; 1490.000; 1769.000
466.841;   76.125; 1151.000; 1401.000
466.960;   38.125; 1069.000;  972.000
467.079;  127.725; 1971.000; 1786.000
467.198;   39.150; 1238.000; 1181.000
467.317;   87.175; 1768.000; 1162.000
467.436;   60.675; 1709.000; 1261.000
467.555;  120.450; 1796.000; 1746.000
467.674;   58.675; 1227.000; 1329.000
467.793;   51.100; 1376.000; 1374.000
467.912;   84.975; 1658.000; 1539.000
468.031;  116.125; 2038.000; 1930.000
468.150;  153.575; 1842.000; 1837.000
468.269;  186.650; 2313.000; 2090.000
468.388;  180.625; 2168.000; 2339.000
468.507;  243.700; 2884.000; 2903.000
468.626;  272.925; 2555.000; 2541.000
468.744;  120.300; 2018.000; 2174.000
468.863;  193.100; 2312.000; 2523.000
468.982;   91.250; 1503.000; 1555.000
469.101;  227.375; 2788.000; 2692.000
469.220;  152.550; 2333.000; 2176.000
469.338;  253.400; 2935.000; 3051.000
469.457;  190.200; 2719.000; 2545.000
469.576;  337.000; 3953.000; 3784.000
469.695;  231.700; 2877.000; 3066.000
469.813;  420.750; 4148.000; 4192.000
469.932;  397.450; 4255.000; 4485.000
470.051;  393.525; 4075.000; 4161.000
470.169;  798.150; 4470.000; 4338.000
470.288; 1376.725; 4700.000; 4809.000
470.406;  851.525; 5059.000; 5194.000
470.525;  633.700; 6101.000; 5787.000
470.644;  648.800; 6847.000; 6794.000
470.762;  835.250; 8397.000; 7873.000
470.881;  899.575; 8651.000; 8464.000
470.999; 1023.025; 9685.000; 9151.000
471.118; 1099.075;11174.000;10711.000

