
Integration time [ms]: 200.000
Averaging Nr. [scans]: 10
Smoothing Nr. [pixels]: 0
Data measured with spectrometer [name]: 2101012U2
Wave   ;Sample   ;Dark     ;Reference
[nm]   ;[counts] ;[counts] ;[counts] 

197.733;  105.300;  516.000;  404.000
197.879; -171.600; -610.000; -634.000
198.025;  -73.000; -475.000; -420.000
198.171; -149.000; -602.000; -612.000
198.317;  -42.000; -401.000; -316.000
198.463;  -97.400; -655.000; -404.000
198.609;   59.400;  181.000; -137.000
198.755; -164.300; -644.000; -410.000
198.901; -135.700; -505.000; -424.000
199.047; -122.500; -615.000; -488.000
199.193;  -80.200; -230.000; -468.000
199.339; -101.300; -222.000; -369.000
199.485;  118.900;  330.000;  271.000
199.631;   14.600;  227.000;  310.000
199.777;  -71.700; -466.000; -398.000
199.923; -131.500; -610.000; -424.000
200.069;   -3.900; -141.000;  -58.000
200.215;  122.900;  128.000;  453.000
200.361;   93.200;  243.000;  477.000
200.507; -136.000; -600.000; -373.000
200.653;  -36.800; -371.000; -194.000
200.798;  -70.700; -215.000; -125.000
200.944;    0.000; -146.000;  -41.000
201.090;   88.500;   61.000;  222.000
201.236;  -17.900; -116.000; -158.000
201.382;  264.500;  874.000;  903.000
201.528;   17.600;  -58.000;  -48.000
201.674;  -69.400; -386.000; -293.000
201.819; -121.400; -540.000; -439.000
201.965; -148.500; -699.000; -447.000
202.111;  -79.100; -273.000; -226.000
202.257;  -53.100; -250.000; -238.000
202.402;   39.900;   13.000;  -36.000
202.548;  -42.200; -169.000; -116.000
202.694;  190.000;  410.000; -183.000
202.840; -147.800; -603.000; -531.000
202.985; -172.800; -681.000; -639.000
203.131; -214.800; -832.000; -666.000
203.277;  -48.700; -199.000; -262.000
203.423;  -90.800; -434.000; -520.000
203.568;  -67.500; -462.000; -237.000
203.714; -120.700; -535.000; -542.000
203.860; -169.100; -682.000; -641.000
204.005;   31.300;  112.000;  167.000
204.151;  142.000;  561.000;  556.000
204.296;  -96.300; -354.000; -221.000
204.442; -137.200; -600.000; -547.000
204.588; -153.700; -592.000; -579.000
204.733;   57.300;  178.000;  168.000
204.879; -289.900;-1018.000; -822.000
205.025;   89.500;  -99.000;  126.000
205.170;  -20.500;  -17.000;   94.000
205.316;  150.700;  438.000;  661.000
205.461; -147.700; -698.000; -554.000
205.607;  191.200;  609.000;  665.000
205.752; -179.300; -626.000; -551.000
205.898;  -98.900; -501.000; -391.000
206.043; -151.500; -578.000; -506.000
206.189;  -87.400; -243.000; -285.000
206.334;  200.600;  554.000;  606.000
206.480;  191.900;  409.000;  239.000
206.625; -175.000; -529.000; -552.000
206.771;  -84.100; -451.000; -373.000
206.916;  -39.000; -210.000; -537.000
207.062; -148.100; -545.000; -591.000
207.207; -110.600; -546.000; -443.000
207.353;  137.300;  185.000;  460.000
207.498;   42.800;  196.000;   85.000
207.643;  -91.100; -501.000; -370.000
207.789; -271.300;-1069.000; -910.000
207.934; -195.200; -665.000; -713.000
208.080;  -15.700; -154.000;   66.000
208.225;   -7.200;  -22.000;  -57.000
208.370; -172.400; -727.000; -619.000
208.516; -158.000; -741.000; -487.000
208.661;  -43.600; -127.000;  -69.000
208.806;  -24.700; -165.000; -171.000
208.952; -262.000;-1044.000; -731.000
209.097;  197.200;  378.000;  349.000
209.242;  -49.700; -307.000; -382.000
209.387;  111.300;  392.000;  350.000
209.533;  -92.500; -321.000; -350.000
209.678;  173.400;  472.000;  543.000
209.823;  -60.600; -408.000; -310.000
209.969; -200.300; -860.000; -757.000
210.114; -206.300; -907.000; -719.000
210.259; -217.700; -939.000; -889.000
210.404;    6.500; -171.000;  103.000
210.549;   40.100;  108.000;    3.000
210.695;  -25.100;   -3.000;  -95.000
210.840;   89.500;   94.000;   67.000
210.985; -126.600; -484.000; -303.000
211.130;  152.600;  268.000;  406.000
211.275;   59.800;  207.000;  199.000
211.420; -108.500; -300.000; -289.000
211.566; -133.400; -536.000; -489.000
211.711;   72.500;  218.000;  157.000
211.856; -108.800; -545.000; -519.000
212.001;   50.700;  151.000;   44.000
212.146;   29.800;  153.000;   49.000
212.291;  -25.000; -210.000; -186.000
212.436;  -47.800; -280.000;   -6.000
212.581; -154.700; -685.000; -653.000
212.726; -141.300; -487.000; -538.000
212.871;  -81.900; -552.000; -217.000
213.016; -301.700;-1172.000;-1029.000
213.161;  128.200;  406.000;  291.000
213.306; -159.500; -435.000; -577.000
213.451; -190.700; -778.000; -689.000
213.596; -139.000; -455.000; -347.000
213.741; -108.800; -448.000; -538.000
213.886; -144.000; -498.000; -517.000
214.031;  -35.800; -294.000; -124.000
214.176;  -93.700; -408.000; -341.000
214.321;  -35.700; -296.000; -157.000
214.466;  -54.700; -163.000;  -43.000
214.611;   26.300;  -61.000;  -10.000
214.756; -277.600; -948.000; -858.000
214.901;  -40.900; -388.000; -226.000
215.046; -235.300; -797.000; -825.000
215.191;   30.900;  128.000;   35.000
215.336;   -0.700; -157.000;  -19.000
215.480; -123.800; -684.000; -505.000
215.625;   -0.900; -175.000;  -19.000
215.770; -173.300; -757.000; -662.000
215.915;   22.300;   -5.000;  -97.000
216.060;   22.700; -113.000;  -21.000
216.205; -228.600; -731.000; -779.000
216.349; -126.700; -470.000; -533.000
216.494; -284.400; -939.000; -867.000
216.639; -245.000; -823.000; -888.000
216.784; -180.800; -577.000; -525.000
216.929;  118.700;  392.000;  281.000
217.073;   12.500; -244.000;  -31.000
217.218;   54.200;   78.000;  -47.000
217.363; -167.500; -656.000; -618.000
217.507; -159.900; -623.000; -588.000
217.652; -243.700; -845.000; -874.000
217.797; -155.800; -708.000; -659.000
217.942; -235.500; -856.000; -720.000
218.086;  167.600;  608.000;  539.000
218.231;  -32.600; -174.000;  -26.000
218.376;  -34.900; -337.000; -229.000
218.520;  -19.800;  -41.000;   96.000
218.665;  -52.100; -338.000; -204.000
218.810;  -72.800; -275.000; -233.000
218.954;   66.600;  201.000;   35.000
219.099; -233.500; -713.000; -963.000
219.243; -136.400; -589.000; -554.000
219.388;  -48.100; -264.000; -136.000
219.532;   -4.200; -116.000; -116.000
219.677; -136.900; -564.000; -521.000
219.822;   35.000;   33.000;   89.000
219.966;   40.100;   17.000;  -99.000
220.111;  -79.700; -328.000;  -40.000
220.255; -183.100; -797.000; -750.000
220.400;  -30.200; -180.000; -146.000
220.544; -139.600; -516.000; -450.000
220.689;  -94.800; -422.000; -451.000
220.833;  -21.300; -123.000;  -58.000
220.978;  -76.100; -393.000; -563.000
221.122;   36.200;  319.000;  307.000
221.267; -228.300; -906.000; -837.000
221.411; -152.400; -478.000; -394.000
221.555;   10.200; -104.000;  -23.000
221.700;  -72.800; -329.000; -222.000
221.844;   97.900;  255.000;  272.000
221.989;  -83.100; -328.000; -311.000
222.133;  -57.800; -289.000; -307.000
222.277;   10.000;    5.000;   78.000
222.422;   67.600;  227.000;  113.000
222.566;  -57.300; -381.000; -214.000
222.711;  -93.500; -414.000; -479.000
222.855; -142.700; -643.000; -586.000
222.999; -161.300; -642.000; -717.000
223.144;  -35.700; -195.000; -194.000
223.288;  140.200;  423.000;  251.000
223.432;   58.500;  184.000;  230.000
223.576;   50.300;  152.000;  -21.000
223.721;   86.100;  364.000;  273.000
223.865;  -97.300; -472.000; -475.000
224.009;  451.900; 1673.000; 1631.000
224.153; -156.900; -660.000; -671.000
224.298; -145.000; -531.000; -489.000
224.442;  -11.600;  -74.000;  -33.000
224.586;   13.700; -169.000; -106.000
224.730; -217.600; -858.000; -670.000
224.875; -182.500; -739.000; -688.000
225.019;   38.700;  102.000;  188.000
225.163;  156.900;  208.000;  341.000
225.307;   88.800;   97.000;  -91.000
225.451;  117.100;  360.000;  481.000
225.595;   83.700;  264.000;  176.000
225.739;  -17.700; -170.000;  -94.000
225.884;   42.700;   86.000;    5.000
226.028; -197.500; -760.000; -626.000
226.172;  -43.400; -260.000; -273.000
226.316; -258.400; -941.000; -902.000
226.460; -108.500; -645.000; -493.000
226.604;  -82.200; -406.000; -400.000
226.748; -179.800; -836.000; -733.000
226.892;  -48.300; -227.000; -181.000
227.036;  -79.600; -537.000; -447.000
227.180; -106.400; -551.000; -375.000
227.324; -150.000; -561.000; -580.000
227.468; -208.300; -819.000; -717.000
227.612;   52.300;  242.000;  -28.000
227.756; -174.600; -845.000; -698.000
227.900;  113.000;  342.000;  441.000
228.044;  -84.100; -509.000; -290.000
228.188;  168.000;  448.000;  568.000
228.332; -147.500; -546.000; -472.000
228.476;  -71.300; -223.000; -149.000
228.620;  -61.800; -210.000; -150.000
228.764;  184.400;  431.000;  349.000
228.908;  -17.100; -155.000;   30.000
229.052; -118.800; -615.000; -528.000
229.195;   -0.400; -172.000;   13.000
229.339;  -33.500; -235.000; -305.000
229.483;  -38.100;    5.000; -162.000
229.627;   -1.000; -156.000;  139.000
229.771;  -57.000; -218.000; -294.000
229.915;   23.200;  230.000;   79.000
230.059; -193.000; -648.000; -663.000
230.202;  -55.000; -370.000; -317.000
230.346;  -24.000; -107.000;  107.000
230.490; -112.100; -489.000; -521.000
230.634; -188.700; -736.000; -553.000
230.777;  192.100;  478.000;  509.000
230.921;  -78.200; -450.000; -359.000
231.065;  -59.500; -246.000; -286.000
231.209;   81.200;  261.000;  265.000
231.352;   69.000;   54.000;   40.000
231.496;   92.300;  568.000;  188.000
231.640; -176.400; -693.000; -621.000
231.783;  158.400;  546.000;  525.000
231.927;  -47.700; -294.000; -365.000
232.071; -242.200; -962.000; -736.000
232.214; -214.600; -980.000; -764.000
232.358; -189.000; -683.000; -599.000
232.502;   38.200;  -19.000;    7.000
232.645; -266.500;-1090.000; -927.000
232.789;  -38.600; -257.000; -218.000
232.933;  -93.700; -407.000; -224.000
233.076; -249.300;-1038.000; -897.000
233.220; -223.800; -752.000; -777.000
233.363; -123.400; -669.000; -477.000
233.507;  116.000;  371.000;  129.000
233.650; -158.100; -764.000; -834.000
233.794;   97.500;  438.000;  461.000
233.938;  -99.300; -530.000; -362.000
234.081;   18.100;  -93.000;   31.000
234.225; -125.800; -631.000; -539.000
234.368; -204.300; -773.000; -723.000
234.512;  -45.200; -385.000; -299.000
234.655; -168.000; -582.000; -555.000
234.798; -128.800; -493.000; -466.000
234.942; -244.200; -884.000;-1002.000
235.085; -145.600; -651.000; -443.000
235.229; -136.600; -405.000; -410.000
235.372;  -80.400; -247.000; -191.000
235.516; -107.300; -397.000; -321.000
235.659;   63.600;   92.000;  121.000
235.802;   13.100;  -38.000;  -22.000
235.946;   85.200;  335.000;  215.000
236.089;   89.100;  126.000;  250.000
236.233;  125.000;  275.000;  298.000
236.376;  -68.600; -235.000; -378.000
236.519; -102.500; -297.000; -319.000
236.663;  -28.300; -215.000; -117.000
236.806; -278.300;-1029.000; -999.000
236.949;  149.900;  543.000;  431.000
237.092;  193.900;  412.000;  391.000
237.236; -143.200; -589.000; -502.000
237.379;  156.300;  352.000;  428.000
237.522; -242.600; -879.000; -768.000
237.666;  -20.900; -271.000;   18.000
237.809; -254.400; -851.000; -823.000
237.952;  110.700;  469.000;  271.000
238.095; -110.800; -447.000; -442.000
238.238;  191.200;  688.000;  700.000
238.382;   20.400;  166.000;  103.000
238.525; -132.000; -598.000; -511.000
238.668; -270.300;-1060.000; -985.000
238.811; -166.400; -638.000; -643.000
238.954;  -79.500; -483.000; -334.000
239.097;  257.900;  617.000;  664.000
239.241;   51.500;  394.000;  326.000
239.384;  -73.900; -254.000; -214.000
239.527; -117.600; -424.000; -224.000
239.670; -281.600; -994.000;-1091.000
239.813; -193.100; -696.000; -658.000
239.956;  191.900;  579.000;  473.000
240.099; -214.000; -778.000; -725.000
240.242;  143.000;  428.000;  432.000
240.385;  137.500;  466.000;  450.000
240.528; -125.800; -706.000; -473.000
240.671;   86.700;  189.000;  134.000
240.814;  -81.700; -441.000; -158.000
240.957; -185.900; -767.000; -578.000
241.100; -182.700; -779.000; -755.000
241.243; -277.100;-1234.000; -893.000
241.386; -140.800; -508.000; -379.000
241.529; -181.900; -735.000; -547.000
241.672; -120.600; -566.000; -495.000
241.815; -227.100; -832.000; -808.000
241.958;  -47.400; -125.000; -182.000
242.101; -141.900; -545.000; -390.000
242.244;  -67.400; -270.000; -325.000
242.387;  -30.500; -304.000; -246.000
242.530;  109.400;  470.000;  134.000
242.673;  -57.300; -381.000; -309.000
242.815; -216.900; -925.000; -899.000
242.958; -116.400; -482.000; -381.000
243.101;   37.300;  132.000;  187.000
243.244; -178.400; -564.000; -521.000
243.387;  -75.500; -313.000; -316.000
243.530; -205.000; -657.000; -674.000
243.672;   35.200;   43.000;  -92.000
243.815;  -98.500; -355.000; -283.000
243.958;   44.600;   98.000;  -26.000
244.101;   52.500;   59.000;  -16.000
244.243;  -11.200;  -47.000;  101.000
244.386; -198.000; -761.000; -630.000
244.529;  -47.900; -132.000; -139.000
244.672; -290.600;-1154.000; -951.000
244.814; -203.500; -621.000; -794.000
244.957;  -99.900; -380.000; -304.000
245.100; -150.900; -489.000; -489.000
245.242; -103.700; -387.000; -374.000
245.385;   -9.700;  -59.000;  -39.000
245.528; -218.300; -871.000; -705.000
245.670;  231.500;  612.000;  634.000
245.813; -141.100; -599.000; -547.000
245.956;  -28.200; -324.000; -275.000
246.098; -165.000; -508.000; -650.000
246.241;   43.400;  194.000;   48.000
246.383;    7.100; -119.000;  -73.000
246.526; -122.900; -454.000; -525.000
246.669; -221.500; -889.000; -780.000
246.811;   24.400;  172.000;   -1.000
246.954; -122.400; -512.000; -426.000
247.096;  -18.600;  -84.000;   -6.000
247.239; -149.700; -482.000; -445.000
247.381; -129.300; -647.000; -488.000
247.524;  228.800;  645.000;  679.000
247.666;   17.000;   58.000;   11.000
247.809; -210.000; -887.000; -691.000
247.951;  -15.500;  -75.000;  138.000
248.094;  101.600;  432.000;  308.000
248.236; -317.300;-1262.000;-1238.000
248.378;   18.600; -356.000;  -81.000
248.521;  -29.400; -334.000; -337.000
248.663;  -60.600; -236.000; -267.000
248.806;   -0.400; -300.000; -266.000
248.948; -175.200; -886.000; -763.000
249.090;  -96.100; -428.000; -398.000
249.233;  -78.500; -344.000; -381.000
249.375; -120.300; -474.000; -451.000
249.518;   -8.300;  -83.000; -133.000
249.660;    0.700; -103.000;    3.000
249.802; -333.100;-1303.000;-1189.000
249.945;  -96.100; -612.000; -540.000
250.087; -199.300; -834.000; -768.000
250.229;  -89.700; -362.000; -480.000
250.371; -128.300; -494.000; -439.000
250.514;  -90.300; -310.000; -244.000
250.656;  -10.200;   69.000;  102.000
250.798; -218.500; -849.000; -800.000
250.940;  -79.900; -322.000; -322.000
251.083;  -26.500; -335.000; -111.000
251.225;  156.000;  338.000;  310.000
251.367;  -40.100; -274.000; -373.000
251.509;  -43.300; -265.000; -210.000
251.651; -178.600; -731.000; -671.000
251.794;  135.300;  538.000;  632.000
251.936; -174.000; -821.000; -747.000
252.078; -115.000; -540.000; -461.000
252.220; -140.500; -645.000; -477.000
252.362;  218.700;  344.000;  462.000
252.504; -119.100; -677.000; -584.000
252.646; -194.600; -875.000; -722.000
252.788;   31.600;   14.000; -128.000
252.931;  -67.800; -257.000; -253.000
253.073;  -25.200; -376.000; -317.000
253.215;   28.800;  141.000;  122.000
253.357;    8.600;   82.000; -153.000
253.499;  -85.800; -374.000; -234.000
253.641; -153.400; -749.000; -594.000
253.783; -189.900; -609.000; -527.000
253.925; -154.600; -586.000; -591.000
254.067; -221.400; -744.000; -667.000
254.209;    0.300; -391.000; -259.000
254.351; -272.100; -865.000; -883.000
254.493;  -93.200; -441.000; -417.000
254.635; -185.200; -936.000; -818.000
254.777; -150.800; -752.000; -687.000
254.918; -128.800; -512.000; -430.000
255.060;  -90.500; -551.000; -395.000
255.202;  -90.000; -473.000; -261.000
255.344; -118.400; -658.000; -455.000
255.486; -133.700; -471.000; -406.000
255.628; -194.900; -780.000; -781.000
255.770; -182.100; -676.000; -536.000
255.912; -114.900; -559.000; -468.000
256.053; -158.300; -730.000; -508.000
256.195;  356.600; 1008.000;  903.000
256.337; -207.200; -861.000; -595.000
256.479;  173.800;  532.000;  416.000
256.621; -105.600; -394.000; -212.000
256.762; -167.200; -789.000; -742.000
256.904;  155.700;  485.000;  487.000
257.046;  -75.600; -381.000; -271.000
257.188;  -88.800; -351.000; -264.000
257.329; -146.800; -525.000; -464.000
257.471; -219.100; -939.000; -807.000
257.613;  -94.800; -584.000; -498.000
257.755; -270.100;-1073.000; -982.000
257.896;  127.100;  286.000;  392.000
258.038; -120.600; -403.000; -352.000
258.180;  -67.100; -354.000; -279.000
258.321; -145.400; -581.000; -457.000
258.463;   25.000;  -71.000;  133.000
258.605; -162.000; -562.000; -570.000
258.746; -199.100; -886.000; -772.000
258.888; -269.900;-1026.000;-1020.000
259.029;   63.600;  121.000;   -8.000
259.171; -181.000; -614.000; -550.000
259.313;   19.900;  -49.000;  -47.000
259.454; -120.900; -536.000; -414.000
259.596;  -87.300; -483.000; -390.000
259.737; -118.200; -590.000; -474.000
259.879;  112.600;  217.000;  311.000
260.020;  232.900;  901.000;  636.000
260.162;  -10.800; -146.000; -253.000
260.303; -206.800; -768.000; -687.000
260.445; -158.500; -609.000; -613.000
260.586;  108.100;  392.000;  157.000
260.728;  -45.000; -360.000; -248.000
260.869; -152.300; -350.000; -343.000
261.011;  230.600;  706.000;  537.000
261.152; -111.600; -479.000; -319.000
261.293; -132.600; -576.000; -595.000
261.435;  -30.500; -219.000; -184.000
261.576;  -54.200; -455.000; -325.000
261.718;  144.900;  420.000;  470.000
261.859; -247.300; -940.000; -949.000
262.000; -222.300; -951.000;-1016.000
262.142;  -19.600;  -52.000;  -60.000
262.283; -190.700; -808.000; -691.000
262.424; -146.400; -666.000; -625.000
262.566; -304.900;-1161.000; -983.000
262.707; -221.500; -840.000; -830.000
262.848; -227.500; -769.000; -726.000
262.990;  -83.700; -362.000; -345.000
263.131;  190.600;  650.000;  681.000
263.272;   57.400;  -61.000;  -41.000
263.413; -143.800; -589.000; -561.000
263.555;  -98.200; -669.000; -143.000
263.696; -133.500; -550.000; -641.000
263.837;  -95.600; -449.000; -551.000
263.978;    8.400;   -5.000;  -77.000
264.119;  -77.300; -283.000; -264.000
264.261; -212.600; -847.000; -630.000
264.402;   29.700;   33.000;   40.000
264.543; -153.500; -509.000; -524.000
264.684;  -19.200;   61.000;  -50.000
264.825; -121.300; -816.000; -538.000
264.966;   34.000;  -84.000;  -67.000
265.107; -200.900; -646.000; -670.000
265.248; -220.100; -825.000; -812.000
265.390;   38.000;  152.000;   -9.000
265.531;  -15.700; -238.000; -107.000
265.672; -168.700; -557.000; -630.000
265.813;  168.200;  563.000;  439.000
265.954; -271.300; -959.000; -940.000
266.095;   15.200; -372.000; -322.000
266.236; -168.900; -686.000; -548.000
266.377;  -43.100; -243.000; -297.000
266.518; -146.700; -619.000; -547.000
266.659;   86.600;  170.000;  268.000
266.800;   50.700;   83.000;   85.000
266.941; -106.800; -487.000; -478.000
267.082;   76.800;  354.000;   99.000
267.223;  -56.400; -344.000; -273.000
267.364; -224.800; -892.000; -686.000
267.504;   26.100;    3.000;  135.000
267.645;   23.600;  160.000;   67.000
267.786;  -37.200; -147.000;  -86.000
267.927; -109.200; -473.000; -379.000
268.068;   -7.300; -186.000;  -61.000
268.209;  -87.100; -175.000; -413.000
268.350;  -82.400; -388.000; -532.000
268.490; -139.800; -648.000; -521.000
268.631;  116.000;  127.000;  225.000
268.772; -187.800; -874.000; -647.000
268.913;  -55.400; -328.000; -476.000
269.054;   19.000; -117.000;   12.000
269.194;  -63.900; -418.000; -402.000
269.335; -296.100;-1137.000;-1074.000
269.476;   12.000;   33.000;  -35.000
269.617;  -63.300; -347.000; -392.000
269.757; -155.100; -713.000; -646.000
269.898; -189.800; -856.000; -613.000
270.039;  -81.900; -415.000; -405.000
270.180; -274.200; -952.000; -816.000
270.320;    6.900; -190.000; -250.000
270.461;  -48.800; -277.000; -249.000
270.602;   34.300; -186.000; -156.000
270.742; -227.600; -868.000; -943.000
270.883;  -71.400; -442.000; -390.000
271.023; -102.100; -358.000; -357.000
271.164; -135.900; -607.000; -528.000
271.305; -173.500; -666.000; -654.000
271.445; -165.200; -722.000; -683.000
271.586; -133.700; -462.000; -283.000
271.726;  -62.900; -397.000; -322.000
271.867; -125.400; -594.000; -534.000
272.008;  362.200; -473.000; -285.000
272.148;  294.800;  462.000;  468.000
272.289;   29.100; -113.000; -181.000
272.429;   90.300;   19.000;  185.000
272.570; -145.200; -633.000; -737.000
272.710; -166.800; -825.000; -775.000
272.851;  -36.400;  113.000; -130.000
272.991; -307.000;-1173.000;-1077.000
273.131; -100.400; -419.000; -459.000
273.272; -168.300; -683.000; -723.000
273.412;   44.500; -143.000;  -31.000
273.553;  -78.500; -488.000; -507.000
273.693;  290.900;  913.000;  858.000
273.834; -166.100; -894.000; -692.000
273.974; -103.800; -664.000; -615.000
274.114; -183.800; -772.000; -560.000
274.255;  165.900;  414.000;  373.000
274.395;   36.500; -180.000; -125.000
274.535;  120.700;  199.000;  350.000
274.676;  105.600;  225.000;   94.000
274.816;   50.200;  110.000;   34.000
274.956; -142.400; -624.000; -690.000
275.097; -115.900;-1014.000; -922.000
275.237; -197.900; -913.000; -803.000
275.377; -183.300; -778.000; -689.000
275.517; -280.900; -878.000; -937.000
275.658;  -94.400; -590.000; -555.000
275.798;  -99.900; -606.000; -413.000
275.938;   66.900;  215.000;  323.000
276.078; -148.400; -626.000; -395.000
276.218;   41.600;   99.000;  104.000
276.359; -253.500;-1026.000;-1024.000
276.499; -136.700; -605.000; -446.000
276.639;  -17.300; -305.000; -151.000
276.779;  -59.000; -475.000; -357.000
276.919; -181.200; -783.000; -624.000
277.059;  -28.500; -261.000; -212.000
277.199;  -49.100; -357.000; -259.000
277.340;  158.600;  287.000;  175.000
277.480; -202.100; -840.000; -693.000
277.620;  107.700;  192.000;   16.000
277.760; -374.500;-1533.000;-1294.000
277.900;   85.300;  113.000;   33.000
278.040;  107.100;  137.000;  159.000
278.180;   85.700;  270.000;  170.000
278.320;   38.300;   21.000;   56.000
278.460;  -92.300; -443.000; -469.000
278.600; -147.400; -708.000; -598.000
278.740;  149.700;  448.000;  224.000
278.880; -102.000; -768.000; -791.000
279.020;   61.800; -194.000; -144.000
279.160; -157.000; -672.000; -595.000
279.300; -220.100; -926.000; -873.000
279.440; -138.800; -709.000; -622.000
279.579;  -77.500;-1014.000; -929.000
279.719;  -93.500; -410.000; -394.000
279.859;  170.500;   -4.000;   41.000
279.999;   72.700; -208.000;  101.000
280.139;  -44.600; -435.000; -387.000
280.279; -137.900; -708.000; -745.000
280.419;  -11.400; -229.000; -147.000
280.559;  -20.000; -259.000; -180.000
280.698; -137.800; -790.000; -639.000
280.838; -164.700; -778.000; -800.000
280.978; -166.800; -846.000; -790.000
281.118; -166.400; -811.000; -704.000
281.257;   66.000;   24.000;    6.000
281.397; -204.400;-1094.000; -960.000
281.537; -133.600; -599.000; -712.000
281.677;  -24.300; -150.000; -101.000
281.816; -155.800; -700.000; -630.000
281.956;  -27.900; -193.000; -257.000
282.096; -115.800; -539.000; -396.000
282.235; -184.700; -672.000; -638.000
282.375;  -12.300; -243.000;  -98.000
282.515; -181.600; -715.000; -707.000
282.654;   92.100;   29.000;  106.000
282.794;   69.200;  388.000;  244.000
282.934;  -55.500; -530.000; -491.000
283.073; -221.200;-1030.000; -857.000
283.213;  -60.900; -460.000; -467.000
283.353;  -11.600; -408.000; -349.000
283.492;  -22.700; -264.000; -296.000
283.632;  -47.800; -254.000; -168.000
283.771; -117.900; -859.000; -730.000
283.911;  -53.700; -369.000; -260.000
284.050; -187.800; -794.000; -748.000
284.190; -278.000;-1229.000;-1096.000
284.329; -252.500;-1055.000; -964.000
284.469;  -92.400; -516.000; -591.000
284.608;  -91.000; -559.000; -598.000
284.748; -116.100; -614.000; -570.000
284.887;   29.000;  -87.000;  -20.000
285.027; -193.700; -844.000; -892.000
285.166;  -28.500; -192.000; -249.000
285.306;   74.700; -116.000;  -33.000
285.445;  -33.000; -229.000; -343.000
285.584; -148.400; -630.000; -494.000
285.724;  -53.400; -282.000; -322.000
285.863; -190.900; -857.000; -507.000
286.002;  -50.500; -366.000; -276.000
286.142; -162.300; -715.000; -622.000
286.281;  -97.300; -525.000; -493.000
286.420;  -90.500; -554.000; -417.000
286.560;  245.700;  653.000;  623.000
286.699; -240.900; -958.000; -912.000
286.838; -151.500; -590.000; -591.000
286.978; -144.200; -533.000; -537.000
287.117; -221.400;-1085.000; -950.000
287.256;  -42.900; -228.000; -211.000
287.395;  -65.200; -197.000; -378.000
287.535;  -33.600; -370.000; -298.000
287.674; -116.200; -509.000; -484.000
287.813;  168.000;  661.000;  533.000
287.952; -239.200;-1010.000; -871.000
288.091; -285.900;-1049.000; -915.000
288.231;   76.400;   13.000;   15.000
288.370; -299.500;-1217.000;-1200.000
288.509; -133.900; -728.000; -645.000
288.648; -123.900; -770.000; -548.000
288.787;   -2.500; -243.000;  -87.000
288.926;  -84.100; -454.000; -475.000
289.065;  266.500;  859.000;  672.000
289.204;  -82.500; -377.000; -217.000
289.344; -161.200; -791.000; -690.000
289.483;  115.400;  416.000;  304.000
289.622;  -27.000; -291.000; -149.000
289.761;   -3.800; -309.000; -166.000
289.900; -176.200; -785.000; -626.000
290.039;    5.100;  -12.000;  -95.000
290.178;  -29.500; -274.000; -180.000
290.317; -131.800; -618.000; -479.000
290.456;  -95.800; -463.000; -451.000
290.595; -226.800; -961.000; -833.000
290.734; -264.900; -904.000; -891.000
290.873;  -80.600; -456.000; -420.000
291.011; -206.000; -833.000; -843.000
291.150; -128.500; -770.000; -682.000
291.289;  -28.800; -343.000; -110.000
291.428; -138.700; -599.000; -480.000
291.567;  -74.200; -370.000; -442.000
291.706;   33.900;  109.000;  154.000
291.845; -156.400; -597.000; -505.000
291.984; -291.400;-1234.000;-1061.000
292.122;  210.600;  602.000;  582.000
292.261;  160.800;  620.000;  463.000
292.400;   50.500; -144.000;  211.000
292.539; -222.700; -959.000; -813.000
292.678;  -28.900; -325.000; -300.000
292.816; -290.200;-1136.000; -965.000
292.955; -146.600; -844.000; -684.000
293.094;   -1.100; -173.000; -337.000
293.233;  -66.100; -556.000; -400.000
293.371;  -46.600; -225.000;  -84.000
293.510; -176.100; -866.000; -780.000
293.649; -250.900; -959.000; -924.000
293.787; -122.100;-1083.000;-1012.000
293.926;   31.800; -113.000;  -32.000
294.065;  -50.000; -379.000; -290.000
294.203;  122.000;  298.000;  406.000
294.342;  133.400;   74.000;  156.000
294.481;12102.700;51180.000; -836.000
294.619;   -5.500; -425.000; -582.000
294.758; -232.300;-1230.000;-1137.000
294.896;  199.900; -125.000;    5.000
295.035; -210.600;-1040.000;-1006.000
295.174; -206.500;-1082.000; -954.000
295.312;  -36.400; -323.000; -203.000
295.451;   19.700; -307.000; -428.000
295.589;  -55.300; -389.000; -518.000
295.728;  136.300; -292.000; -165.000
295.866;   57.500;  -36.000;  -51.000
296.005;  -99.500; -584.000; -341.000
296.143;  -81.200; -558.000; -596.000
296.282; -163.300; -957.000; -881.000
296.420; -149.600; -657.000; -557.000
296.559; -125.800; -892.000; -633.000
296.697;   80.400; -847.000; -665.000
296.835;  174.900;-1141.000;-1002.000
296.974;  145.500;  -23.000;   39.000
297.112;   59.900; -443.000; -504.000
297.251; -115.900; -815.000; -755.000
297.389;  231.800; -576.000; -438.000
297.527;  132.100; -145.000;  -83.000
297.666;  -68.100; -486.000; -438.000
297.804;  -83.100; -404.000; -264.000
297.942;   53.800; -136.000; -161.000
298.081;   39.900; -183.000;   63.000
298.219;  199.400;  -17.000;  -19.000
298.357;  149.700; -144.000;  -71.000
298.495;   54.300; -810.000; -812.000
298.634;  205.400;  245.000;  219.000
298.772;  185.500; -220.000; -338.000
298.910;  -19.800; -309.000; -182.000
299.048;   54.000; -130.000; -153.000
299.187;   -7.700; -350.000; -250.000
299.325;   88.800;   52.000;  122.000
299.463;  173.100; -389.000; -299.000
299.601;  276.600; -327.000; -271.000
299.739; -170.300; -908.000; -883.000
299.877; -116.300; -791.000; -703.000
300.016;  -74.500;-1095.000; -935.000
300.154;  341.900;  -19.000; -161.000
300.292;  141.400; -428.000; -348.000
300.430;  114.100; -408.000; -291.000
300.568; -190.800; -940.000; -874.000
300.706;  -84.200; -366.000; -469.000
300.844; -135.700;-1108.000; -979.000
300.982;  318.300;  246.000;  282.000
301.120; -176.800; -965.000; -866.000
301.258;  -89.100; -812.000; -705.000
301.396;  109.900;  104.000;  -41.000
301.534;  226.400; -218.000; -293.000
301.672;   16.200; -664.000; -521.000
301.810;   96.200; -613.000; -545.000
301.948;  338.300;   53.000;  149.000
302.086; 1131.200; -250.000;  -32.000
302.224; 1867.800; -610.000; -585.000
302.362;  138.000; -558.000; -622.000
302.500;  -18.300; -923.000; -893.000
302.638;  264.100;  128.000;  245.000
302.776;   55.100; -352.000; -408.000
302.913;  129.200;  447.000;  236.000
303.051;   45.100;  -86.000;  -23.000
303.189;  150.400;   90.000;  118.000
303.327;   -3.700; -341.000; -256.000
303.465; -143.600; -832.000; -588.000
303.603; -139.300; -805.000; -604.000
303.740;  245.000;  417.000;  241.000
303.878;   57.200; -800.000; -759.000
304.016; -155.300; -915.000; -790.000
304.154; -226.000;-1123.000;-1152.000
304.291;  -34.800; -505.000; -554.000
304.429;   83.000;  102.000;   74.000
304.567; -225.200; -908.000; -893.000
304.705;  -84.900; -408.000; -515.000
304.842;  208.500; -616.000; -540.000
304.980;  202.100;  215.000;   35.000
305.118;  148.000; -367.000; -365.000
305.255; -112.600; -945.000; -927.000
305.393;  180.900;  178.000;  239.000
305.531; -177.500;-1173.000; -956.000
305.668;  -72.900; -663.000; -582.000
305.806;  215.500; -358.000; -439.000
305.943;  233.300; -629.000; -637.000
306.081;  175.200; -378.000; -267.000
306.219; -148.500; -863.000; -748.000
306.356;   80.500;  158.000;   27.000
306.494;  305.500;  981.000;  761.000
306.631;   74.700;  -11.000;  -55.000
306.769;   71.500; -613.000; -485.000
306.906;   49.200; -284.000; -258.000
307.044;  -51.600; -473.000; -488.000
307.181;  -83.200; -410.000; -332.000
307.319;  137.400;  112.000;   87.000
307.456; -288.900;-1191.000;-1153.000
307.594; -120.000; -980.000; -727.000
307.731;   49.900; -371.000; -164.000
307.868;   63.100;  -15.000;   20.000
308.006; -228.100; -961.000; -847.000
308.143;  -76.500; -618.000; -330.000
308.281;  518.900;  -37.000; -254.000
308.418;   95.200; -748.000; -640.000
308.555;  -67.100; -400.000; -250.000
308.693;  -82.300; -577.000; -573.000
308.830; -172.800; -712.000; -657.000
308.967;   42.200; -215.000;  -95.000
309.105;   -7.700; -507.000; -396.000
309.242;  156.600; -468.000; -367.000
309.379;  942.400; -577.000; -655.000
309.517;  -38.300; -936.000; -948.000
309.654; -117.600; -910.000; -734.000
309.791;  -51.400; -662.000; -580.000
309.928; -167.300; -977.000; -914.000
310.065;  435.900;  819.000;  697.000
310.203;   36.100; -825.000; -850.000
310.340;   69.600; -465.000; -321.000
310.477;  -90.900; -412.000; -516.000
310.614;  -75.000; -383.000; -473.000
310.751;  -80.300; -427.000; -518.000
310.889;   41.800;    1.000;   11.000
311.026; -236.500;-1161.000; -939.000
311.163;  -51.400; -386.000; -380.000
311.300;  -63.200; -512.000; -479.000
311.437;  -87.300; -658.000; -619.000
311.574; -267.600;-1226.000; -985.000
311.711;  -78.600; -595.000; -433.000
311.848;   14.600; -380.000; -388.000
311.985;  106.500;  270.000;   93.000
312.122; -197.800; -932.000; -762.000
312.259; -206.600; -941.000; -994.000
312.396;  -81.200; -508.000; -551.000
312.533; -111.400; -812.000; -790.000
312.670; -190.400;-1070.000; -898.000
312.807;   -4.800; -352.000; -367.000
312.944;  -69.400; -513.000; -611.000
313.081;   -1.500; -150.000; -415.000
313.218; -146.100;-1111.000; -867.000
313.355;   75.100; -531.000; -449.000
313.492;  108.600; -455.000; -292.000
313.629;  330.100;  815.000;  735.000
313.766; -277.300;-1176.000;-1008.000
313.902;   59.700; -186.000;   21.000
314.039;  -50.100; -372.000; -289.000
314.176;  148.900;  286.000;  192.000
314.313;  -84.600; -569.000; -473.000
314.450;  -92.400; -788.000; -684.000
314.587;  -25.600; -468.000; -480.000
314.723;   77.400;  -78.000;  130.000
314.860;  166.700;  318.000;  332.000
314.997;  161.700;  223.000;  142.000
315.134;   -8.800; -385.000; -368.000
315.270;   -1.600; -480.000; -496.000
315.407; -204.100;-1094.000; -967.000
315.544;  -57.000; -657.000; -538.000
315.681;  -81.400; -681.000; -565.000
315.817;   92.400; -133.000; -176.000
315.954;   76.400; -613.000; -392.000
316.091; -222.500;-1045.000;-1023.000
316.227;   32.700;  -71.000; -179.000
316.364;   48.100;   23.000;    6.000
316.500;  -31.900; -113.000; -300.000
316.637;    0.400; -181.000; -302.000
316.774; -103.200; -625.000; -358.000
316.910; -138.300; -598.000; -629.000
317.047;  -63.200; -487.000; -351.000
317.183;  -48.600; -435.000; -566.000
317.320;    4.700; -367.000; -321.000
317.456;  -72.700; -733.000; -805.000
317.593; -124.500; -598.000; -641.000
317.729;   57.200;  168.000;  -67.000
317.866; -355.900;-1434.000;-1285.000
318.002; -161.700; -708.000; -948.000
318.139; -154.800; -883.000; -867.000
318.275; -151.700;-1003.000; -738.000
318.412;  -95.400; -517.000; -336.000
318.548;  -40.600; -751.000; -720.000
318.685; -147.800; -985.000; -888.000
318.821; -149.900; -762.000; -735.000
318.957;   22.800;   34.000;  -23.000
319.094;  155.300;  297.000;  154.000
319.230;  -70.900; -756.000; -742.000
319.367;  258.700; -471.000; -520.000
319.503;  192.200; -538.000; -436.000
319.639; -144.900; -877.000; -793.000
319.775; -115.900; -750.000; -685.000
319.912;  -45.400; -424.000; -519.000
320.048; -146.000;-1184.000;-1184.000
320.184;  189.000;   59.000;   70.000
320.321;  -78.400; -497.000; -467.000
320.457;  169.700;  475.000;  662.000
320.593;  -67.300; -375.000; -382.000
320.729; -170.300; -732.000; -734.000
320.866;  -82.200; -577.000; -635.000
321.002; -122.200; -759.000; -809.000
321.138;   23.200; -135.000; -211.000
321.274;  175.600; -148.000; -115.000
321.410;  -14.700; -585.000; -353.000
321.546;  -24.000;-1011.000; -911.000
321.683;  161.500;  400.000;  185.000
321.819;   79.100;  -48.000; -117.000
321.955; -174.600; -743.000; -722.000
322.091;  -66.900; -585.000; -540.000
322.227;   54.200; -382.000; -202.000
322.363;   46.100; -320.000; -215.000
322.499;  -19.700; -343.000; -331.000
322.635;  387.400;  636.000;  443.000
322.771;  116.000; -139.000;   12.000
322.907;  229.400;  129.000;  327.000
323.043;    9.500; -115.000; -206.000
323.179;  -37.500; -394.000; -363.000
323.315;  108.200; -401.000; -371.000
323.451;  272.100; -328.000; -236.000
323.587;  202.500;  -60.000;  -77.000
323.723;   80.100; -682.000; -601.000
323.859;   -4.900; -258.000;  -76.000
323.995;  -33.900; -467.000; -409.000
324.131; -216.900; -967.000; -892.000
324.267;  -42.600; -254.000; -276.000
324.402; -231.300; -960.000; -983.000
324.538;   49.800; -279.000; -104.000
324.674;   73.500;  164.000;   77.000
324.810;  375.400;  226.000;  308.000
324.946;   90.800; -810.000; -658.000
325.082;  -60.600; -568.000; -475.000
325.217;   36.500;  -62.000;   16.000
325.353; -156.300; -764.000; -659.000
325.489; -133.000; -540.000; -506.000
325.625;  -79.800; -579.000; -525.000
325.760;  175.100;  517.000;  376.000
325.896;  -14.100; -515.000; -702.000
326.032;  -63.700; -403.000; -352.000
326.168;  -67.500; -462.000; -369.000
326.303;  -65.800; -352.000; -461.000
326.439;   -4.200; -336.000; -276.000
326.575;   59.200; -190.000;  -29.000
326.710;   33.100; -156.000;  -30.000
326.846;   56.800;  146.000;  103.000
326.982; -151.000; -530.000; -548.000
327.117; -113.000; -481.000; -442.000
327.253; -130.100; -745.000; -742.000
327.388; -227.400;-1137.000;-1153.000
327.524;  -18.500; -811.000; -578.000
327.659;   12.500;  -58.000;  -22.000
327.795;   50.700;   69.000;   45.000
327.931; -131.200; -723.000; -499.000
328.066;  -20.900; -417.000; -276.000
328.202;    5.900;   12.000; -129.000
328.337;  277.100;  957.000;  713.000
328.473;   53.400;  -12.000;  -74.000
328.608;   23.500; -256.000; -267.000
328.743; -128.200; -799.000; -664.000
328.879;  137.500;  214.000;  114.000
329.014;  -95.500; -102.000; -122.000
329.150; -141.000; -358.000; -483.000
329.285;  -99.900; -465.000; -466.000
329.421;  -55.500; -548.000; -246.000
329.556;   28.700;  -36.000;   85.000
329.691; -140.100; -633.000; -615.000
329.827; -103.000; -626.000; -480.000
329.962;  -15.200;  131.000; -301.000
330.097; -107.900; -673.000; -585.000
330.233;  -45.700; -410.000; -223.000
330.368; -189.800; -839.000; -628.000
330.503;   24.900;    3.000;   98.000
330.638;   71.800;  -93.000; -125.000
330.774;  -46.100; -609.000; -530.000
330.909;  -21.100; -434.000; -244.000
331.044; -151.200; -714.000; -708.000
331.179; -304.800;-1217.000;-1109.000
331.315;  118.900;   77.000;   20.000
331.450;  104.900;  157.000;  285.000
331.585; -148.200; -805.000; -706.000
331.720; -122.700; -510.000; -460.000
331.855;    4.100;  -35.000; -102.000
331.990;  496.800;   62.000;  138.000
332.126;  290.000; -110.000;   71.000
332.261;   12.600; -379.000; -265.000
332.396;   74.200; -135.000; -242.000
332.531; -197.300;-1074.000;-1031.000
332.666;  114.600; -519.000; -363.000
332.801; -141.100; -726.000; -807.000
332.936;   -3.100; -192.000; -122.000
333.071; -292.200; -870.000; -817.000
333.206;  100.100;  307.000;  379.000
333.341;  109.400;  344.000;  418.000
333.476; -156.200; -627.000; -623.000
333.611;    5.100; -251.000; -173.000
333.746;  -41.300; -381.000; -464.000
333.881; -153.200; -973.000; -935.000
334.016; -201.000; -936.000; -917.000
334.151; -222.300; -746.000; -702.000
334.286;  144.400;  152.000;  186.000
334.421;   31.300; -125.000; -178.000
334.556;  -69.600; -611.000; -567.000
334.690; -131.200; -631.000; -577.000
334.825;  165.600;  381.000;   83.000
334.960;  -68.000; -285.000; -413.000
335.095;   82.300;  135.000;  -91.000
335.230; -157.900; -722.000; -738.000
335.365; -207.800;-1084.000; -990.000
335.499; -202.900;-1108.000;-1037.000
335.634;   99.600;    9.000;  534.000
335.769; -162.900; -755.000; -720.000
335.904;  -44.200; -603.000; -561.000
336.038;  -35.000; -735.000; -657.000
336.173; -166.800;-1206.000;-1194.000
336.308;   60.100; -116.000; -189.000
336.443;   97.200; -544.000; -634.000
336.577;  -98.000; -936.000; -787.000
336.712;  194.900;   -4.000;  -12.000
336.847;  -24.200; -724.000; -607.000
336.981;  181.700; -272.000; -208.000
337.116;  661.600;  615.000;  501.000
337.250;  364.800; -434.000; -421.000
337.385;  466.300; -297.000; -208.000
337.520;  180.500; -632.000; -603.000
337.654;  -27.400; -215.000; -126.000
337.789; -214.300; -989.000; -933.000
337.923;  -13.200; -104.000; -205.000
338.058; -152.700; -673.000; -738.000
338.192;  -27.300; -611.000; -488.000
338.327;   59.400;  -18.000; -155.000
338.461;  -82.600; -299.000; -469.000
338.596; -186.500; -780.000; -638.000
338.730; -133.300; -767.000; -803.000
338.865;  208.500;  -46.000; -140.000
338.999;  -27.400; -846.000; -702.000
339.134;  -15.100; -634.000; -536.000
339.268;   41.700; -741.000; -603.000
339.403;  737.200; -740.000; -775.000
339.537;  234.000; -894.000; -820.000
339.671; -170.800; -829.000; -813.000
339.806;  -78.400; -556.000; -512.000
339.940;  107.700; -261.000; -235.000
340.074; -134.300; -685.000; -510.000
340.209;  -25.400; -351.000; -230.000
340.343; -114.800; -517.000; -573.000
340.477;  386.700;  998.000; 1036.000
340.612;  -70.800;-1033.000; -900.000
340.746;  306.800; -199.000; -243.000
340.880; -116.100; -924.000; -785.000
341.014;   30.700;  -45.000; -154.000
341.149; -164.400; -756.000; -718.000
341.283; -204.400; -839.000; -754.000
341.417; -159.500;-1124.000; -938.000
341.551;  311.000; -768.000; -708.000
341.685;    5.900; -633.000; -611.000
341.820;  -71.900; -562.000; -493.000
341.954;  -42.100; -218.000; -349.000
342.088; -246.600;-1102.000;-1019.000
342.222;  143.400;  565.000;  618.000
342.356;  -71.000; -395.000; -335.000
342.490; -166.900; -880.000; -841.000
342.624;  -23.300; -339.000; -242.000
342.758;   67.000; -364.000; -312.000
342.892;  -71.700; -710.000; -585.000
343.026;  -43.700;  -58.000; -116.000
343.160;  -77.200; -426.000; -376.000
343.294;  -99.700; -474.000; -337.000
343.428;   20.000; -488.000; -448.000
343.562;   -6.400; -172.000;  -23.000
343.696;   16.400; -385.000; -314.000
343.830;   13.200; -362.000; -356.000
343.964;   93.900; -231.000; -168.000
344.098; 1791.800;  199.000;   70.000
344.232; 1509.700; -266.000; -127.000
344.366;  220.400; -567.000; -453.000
344.500;  208.400; -665.000; -744.000
344.634;  108.700; -324.000; -164.000
344.768;    2.000; -531.000; -341.000
344.902;  129.500;  278.000;  256.000
345.035; -122.900; -556.000; -496.000
345.169; -208.100; -933.000; -656.000
345.303;   29.500; -308.000; -482.000
345.437;  -77.500; -826.000; -717.000
345.571;  -90.700; -675.000; -594.000
345.704;  -75.800; -309.000; -532.000
345.838;  -13.600; -331.000; -284.000
345.972;  -22.800; -543.000; -495.000
346.106;  348.400; -179.000; -190.000
346.239;  850.600; -312.000; -243.000
346.373;  110.500; -343.000; -302.000
346.507; -240.400; -950.000; -962.000
346.640;  347.100;  -30.000;   13.000
346.774;  -41.800; -650.000; -797.000
346.908;   30.700; -138.000;  -11.000
347.041; -166.200; -646.000; -593.000
347.175;   70.300;  259.000;   27.000
347.309;  -54.900; -698.000; -628.000
347.442; -148.200; -883.000; -732.000
347.576;  594.200;  670.000;  668.000
347.709;  474.000; -123.000;  -52.000
347.843; -150.500; -933.000; -825.000
347.976;  143.000;  235.000;  294.000
348.110; -318.100;-1268.000;-1186.000
348.243; -191.800; -679.000; -772.000
348.377;   74.200;  -26.000;   60.000
348.510;  188.000;  403.000;  540.000
348.644;  -10.700;  -37.000; -159.000
348.777;   86.900;  180.000;  191.000
348.911;  -36.700; -142.000; -112.000
349.044;  383.000;  471.000;  448.000
349.178;  332.600;-1069.000;-1006.000
349.311;  285.900;  141.000;  255.000
349.444;  -23.400; -927.000; -813.000
349.578;   58.300; -347.000; -200.000
349.711; -147.500; -959.000; -862.000
349.845;   45.500; -661.000; -591.000
349.978; -240.900;-1224.000;-1137.000
350.111; -125.900; -546.000; -612.000
350.244; -115.800; -596.000; -700.000
350.378;   88.400; -392.000; -393.000
350.511;  -62.300; -393.000; -426.000
350.644; -188.300; -808.000; -806.000
350.778;   96.300;  168.000;  104.000
350.911;   86.000;  134.000;  140.000
351.044; -115.100; -685.000; -615.000
351.177;   28.100; -321.000; -281.000
351.310;   33.400;    3.000; -131.000
351.444; -111.500; -888.000; -788.000
351.577;  312.300;  140.000;   90.000
351.710;  280.500;  593.000;  417.000
351.843;    1.300; -165.000;  -77.000
351.976;   52.100;  149.000;  -79.000
352.109; -126.900; -621.000; -612.000
352.242;   -3.800; -464.000; -419.000
352.376;  -75.600; -580.000; -636.000
352.509;  388.300; -437.000; -356.000
352.642;   53.400; -654.000; -604.000
352.775;  175.700; -141.000;  -98.000
352.908; -201.400; -933.000; -904.000
353.041; -154.600; -814.000; -824.000
353.174;  -71.500; -551.000; -424.000
353.307; -120.700; -753.000; -764.000
353.440;  232.800;  541.000;  453.000
353.573; -159.700; -957.000;-1008.000
353.706;   16.500; -384.000; -558.000
353.839;   38.500; -264.000; -220.000
353.971; -125.200; -657.000; -512.000
354.104; -118.200; -896.000; -835.000
354.237;  -16.600; -627.000; -662.000
354.370;  -95.400; -846.000; -879.000
354.503; -323.000;-1231.000;-1308.000
354.636;   -7.700; -529.000; -348.000
354.769; -211.400; -937.000; -860.000
354.902;   55.800; -230.000; -139.000
355.034;   23.600; -164.000; -220.000
355.167;   44.500; -262.000; -162.000
355.300; -128.700;-1061.000; -880.000
355.433; 1851.600;  -71.000;  -14.000
355.565; 2815.400; -402.000; -384.000
355.698;  726.500; -356.000; -296.000
355.831;    2.100; -882.000; -801.000
355.964;  220.400; -285.000; -170.000
356.096; -103.400; -856.000; -843.000
356.229;   51.100; -523.000; -530.000
356.362;  662.800; -373.000; -266.000
356.494; 1211.000; -229.000; -162.000
356.627;  979.000;  269.000;  377.000
356.760; 1312.100;  120.000;   53.000
356.892; 1805.100; -286.000; -601.000
357.025; 1377.900;  403.000;  389.000
357.157; 1225.100; -167.000; -179.000
357.290; 1236.400; -856.000; -713.000
357.423;  415.800; -667.000; -556.000
357.555;  288.100; -217.000; -228.000
357.688;  285.600; -483.000; -364.000
357.820;  830.200; -870.000; -877.000
357.953; 6740.700; -563.000; -589.000
358.085; 1528.500; -632.000; -612.000
358.218; 2382.500;-1131.000; -932.000
358.350;  470.800;  -58.000;  312.000
358.483; -202.100;-1300.000;-1187.000
358.615;   47.000;-1182.000;-1078.000
358.747;  -53.300;-1187.000;-1058.000
358.880;  106.400; -810.000; -744.000
359.012;   63.900; -376.000; -202.000
359.145;  -31.800; -480.000; -511.000
359.277;  123.800; -962.000; -913.000
359.409; 5632.400;  536.000;  231.000
359.542; 1416.500; -738.000; -688.000
359.674;  188.500;   46.000;   13.000
359.806;  -86.100; -565.000; -438.000
359.939;  -16.300; -617.000; -516.000
360.071;   13.000; -583.000; -579.000
360.203;    8.300; -411.000; -364.000
360.335;  186.500;  164.000;  -16.000
360.468;  372.000; -249.000; -307.000
360.600; 4452.600; -547.000; -454.000
360.732; 5119.000; -546.000; -423.000
360.864;  701.800;-1216.000;-1044.000
360.996;  626.500; -516.000; -554.000
361.129;  119.900; -389.000; -598.000
361.261;  132.500;  110.000; -113.000
361.393;  -16.000; -252.000; -214.000
361.525;  115.500;   94.000;  244.000
361.657;  -40.300; -821.000; -703.000
361.789;   86.300; -139.000; -155.000
361.921;  546.900; -642.000; -593.000
362.053;  590.500;  524.000;  541.000
362.185;  168.600;  288.000;   72.000
362.318; -120.100; -709.000; -705.000
362.450;  368.500;  294.000;  444.000
362.582;  327.900; -913.000; -870.000
362.714;   16.700; -353.000; -332.000
362.846; -102.000; -606.000; -490.000
362.978; -225.300; -941.000; -811.000
363.109;  126.200; -161.000; -260.000
363.241;  905.400; -739.000; -749.000
363.373;  849.600; -649.000; -564.000
363.505; 1330.100; -186.000;  -91.000
363.637;  291.700; -787.000; -601.000
363.769; -204.200;-1067.000;-1080.000
363.901;  -81.100; -596.000; -654.000
364.033; -199.500;-1103.000;-1062.000
364.165;   29.500; -283.000; -283.000
364.296;  203.900; -316.000; -177.000
364.428;  135.000;-1344.000;-1220.000
364.560; -100.600; -679.000; -661.000
364.692;  -66.700; -738.000; -835.000
364.824;  580.400; -588.000; -456.000
364.955;  848.800; -402.000; -564.000
365.087; 1636.900;-1097.000; -852.000
365.219;   71.200; -686.000; -816.000
365.351;  -69.800; -526.000; -572.000
365.482;  219.300;  300.000;  240.000
365.614;  -10.400; -402.000; -314.000
365.746; -137.100; -729.000; -752.000
365.877; -149.800; -706.000; -672.000
366.009;  545.900;  -35.000;  -62.000
366.141; -137.600;-1249.000;-1134.000
366.272; -144.900; -803.000; -719.000
366.404; -181.100;-1005.000; -874.000
366.535;   65.300; -139.000;  -12.000
366.667; -107.200; -644.000; -649.000
366.799;  138.000;  353.000;  203.000
366.930; -171.200; -862.000; -996.000
367.062;  265.300; -639.000; -613.000
367.193;  305.200; -872.000; -842.000
367.325;  -37.700; -580.000; -684.000
367.456;  182.100; -246.000;   31.000
367.588;  370.400; -371.000; -318.000
367.719;   95.000;  -44.000;  -45.000
367.851;   37.800; -222.000; -241.000
367.982;  -45.400; -875.000; -732.000
368.113;  257.600; -475.000; -358.000
368.245; -146.600; -960.000; -841.000
368.376;   44.200; -254.000; -302.000
368.508;   -6.600; -188.000; -263.000
368.639; -269.100;-1166.000;-1034.000
368.770;   35.300; -670.000; -589.000
368.902;  -87.700; -836.000; -926.000
369.033; -163.300; -906.000; -855.000
369.164;  -29.500; -720.000; -653.000
369.296; -192.000; -452.000; -601.000
369.427;   23.700; -209.000; -144.000
369.558;  -22.900; -593.000; -377.000
369.689; -136.900; -721.000; -569.000
369.821; -232.500; -951.000; -845.000
369.952;   38.700;   42.000; -108.000
370.083;  -33.400; -229.000; -108.000
370.214; -104.100; -735.000; -650.000
370.345;   84.800;   65.000;   81.000
370.477; -125.800; -810.000; -790.000
370.608;  485.500; -328.000; -264.000
370.739;  -71.100;-1233.000;-1292.000
370.870;  -37.000;-1102.000; -923.000
371.001;  221.800; -378.000; -467.000
371.132; -121.200; -754.000; -735.000
371.263;    0.400;  -42.000; -148.000
371.394; -208.400; -841.000; -748.000
371.525;  141.900;  345.000;  225.000
371.657; -121.700; -808.000; -670.000
371.788;  217.500;  103.000;  199.000
371.919;  392.000; -384.000; -304.000
372.050; 6948.800;  -91.000; -156.000
372.181; 2003.700; -188.000; -294.000
372.311;  763.800;   42.000; -127.000
372.442;  136.200; -457.000; -451.000
372.573;   58.500; -444.000; -340.000
372.704; -198.000;-1008.000; -980.000
372.835;  224.800; -228.000; -289.000
372.966;  -43.900; -646.000; -554.000
373.097;  -83.200; -575.000; -711.000
373.228;  -13.300; -717.000; -542.000
373.359;  315.400; -824.000; -536.000
373.490; 1901.400; -881.000; -727.000
373.620; 2307.700;-1001.000; -803.000
373.751; 3535.000; -332.000; -396.000
373.882; 1538.100; -663.000; -733.000
374.013;  174.100; -449.000; -262.000
374.143;  -39.000; -581.000; -659.000
374.274; -164.600; -987.000; -908.000
374.405;  388.100; -388.000; -276.000
374.536;  936.900; -526.000; -387.000
374.666; 2188.500; -759.000; -807.000
374.797;  475.100; -817.000; -868.000
374.928; 1745.300; -710.000; -560.000
375.058; 1771.600; -535.000; -500.000
375.189;  182.800;  -59.000;  -93.000
375.320; -157.200; -928.000;-1034.000
375.450;  -24.200; -625.000; -616.000
375.581;  -13.400; -526.000; -436.000
375.712;    3.200; -574.000; -250.000
375.842;  690.200; -438.000; -415.000
375.973;  481.000; -554.000; -513.000
376.103;  -21.100; -665.000; -648.000
376.234; -103.100; -531.000; -552.000
376.364;  -15.000; -944.000; -867.000
376.495;  742.400;  925.000;  529.000
376.625;   46.800; -472.000; -485.000
376.756;  194.900; -709.000; -678.000
376.886;  -91.400;-1178.000;-1026.000
377.017;  150.600;-1048.000;-1061.000
377.147;  686.300; -786.000; -782.000
377.278;  163.400;  174.000;  228.000
377.408; -193.900; -801.000; -815.000
377.538; -156.300; -707.000; -693.000
377.669; -112.600; -537.000; -613.000
377.799; -124.400; -645.000; -635.000
377.929;  -50.300; -610.000; -428.000
378.060; -184.100; -781.000; -847.000
378.190;  -28.900; -726.000; -531.000
378.320;  -58.000; -401.000; -406.000
378.451;   45.400; -131.000;  -22.000
378.581;   67.600;  -67.000; -110.000
378.711;  395.600; 1035.000;  866.000
378.841;   12.400; -533.000; -675.000
378.972;  -71.100; -871.000; -751.000
379.102;  107.700; -652.000; -579.000
379.232;   32.000; -126.000;  -73.000
379.362; -131.100;-1001.000; -885.000
379.492;   82.500; -373.000; -424.000
379.623;  300.500;    0.000;  111.000
379.753; -135.800;-1107.000; -974.000
379.883;  496.200;   59.000;  156.000
380.013;   77.600;-1081.000;-1017.000
380.143; -169.200;-1097.000;-1056.000
380.273; -112.300; -985.000; -861.000
380.403;   79.000; -344.000; -257.000
380.533;  -19.400; -651.000; -664.000
380.663;  179.100;  173.000;  128.000
380.793; -112.600;-1027.000;-1074.000
380.923;   39.700; -103.000;  -34.000
381.053; -154.700; -613.000; -623.000
381.183;   -7.700; -106.000; -248.000
381.313;  162.100; -656.000; -470.000
381.443;  133.700; -692.000; -473.000
381.573;  527.400; -402.000; -409.000
381.703;  635.600;-1249.000;-1095.000
381.833; -176.300;-1454.000;-1336.000
381.963;  284.100; -134.000;  -87.000
382.093; 2663.000; -925.000; -909.000
382.223;  825.800; -713.000; -602.000
382.353;   45.400; -801.000; -608.000
382.482;  809.100;-1091.000; -964.000
382.612; 1503.100; -872.000; -644.000
382.742;  879.500; -695.000; -622.000
382.872;  586.500; -565.000; -551.000
383.002;  234.400;  347.000; -132.000
383.131;   27.100; -226.000; -160.000
383.261;    5.400; -706.000; -768.000
383.391;  660.800; -552.000; -377.000
383.521; 5894.600;  451.000;  263.000
383.650; 1307.400; -947.000; -904.000
383.780;   21.700; -783.000; -656.000
383.910;  337.200;  880.000;  802.000
384.039;  112.500; -794.000; -656.000
384.169;  485.400;-1205.000;-1017.000
384.299;   35.600; -650.000; -662.000
384.428; -107.100; -764.000; -680.000
384.558;   -9.900; -308.000; -275.000
384.687;   12.400; -414.000; -334.000
384.817;  114.100;   75.000;   -2.000
384.947;  139.000; -234.000; -141.000
385.076;  678.900;  982.000;  912.000
385.206;  286.500;  369.000;  480.000
385.335;   21.100; -549.000; -417.000
385.465;  -95.700; -655.000; -663.000
385.594;  358.100;  -53.000;  -44.000
385.724;  862.600; -868.000; -838.000
385.853;  297.100; -296.000; -270.000
385.982; 2805.200; -743.000; -787.000
386.112; 4079.900;-1052.000; -871.000
386.241;  328.800; -307.000; -312.000
386.371;  140.900; -174.000;  -87.000
386.500;   79.400; -825.000; -789.000
386.629;  127.100; -874.000; -817.000
386.759;  207.400;  -43.000;   68.000
386.888;  104.500; -170.000; -250.000
387.017;  -35.900; -648.000; -620.000
387.147;  -52.400; -771.000; -798.000
387.276;   95.400; -410.000; -397.000
387.405;  119.100; -398.000; -342.000
387.535;  -15.800; -452.000; -361.000
387.664;  -59.200; -692.000; -620.000
387.793;  209.300; -198.000; -113.000
387.922; 1136.300;  255.000;  200.000
388.052;  144.000; -576.000; -423.000
388.181;  190.500; -342.000; -472.000
388.310;  133.400; -889.000; -710.000
388.439;   12.600; -749.000; -742.000
388.568;  462.100;  365.000;  244.000
388.697; 2143.200; -756.000; -653.000
388.826;  444.100; -768.000; -666.000
388.956;  165.500; -285.000; -307.000
389.085;   22.900; -347.000; -287.000
389.214; -165.900; -842.000; -872.000
389.343;  -72.900; -645.000; -413.000
389.472;  827.900;  126.000;  149.000
389.601; 1050.700;   91.000;    0.000
389.730;   92.100; -568.000; -687.000
389.859;  202.000;  226.000;   46.000
389.988;  429.400; -423.000; -408.000
390.117;  347.700; -168.000; -146.000
390.246;   91.400; -331.000; -320.000
390.375;  291.400; -673.000; -626.000
390.504;  -34.200; -703.000; -621.000
390.633; -109.800; -672.000; -726.000
390.761;  -56.300; -732.000; -645.000
390.890;  118.600;   -4.000; -130.000
391.019;    4.400; -421.000; -441.000
391.148; -189.100; -826.000; -855.000
391.277;  -80.800; -576.000; -493.000
391.406;  -89.200; -821.000; -805.000
391.534;  141.600;  574.000; -301.000
391.663;  -49.500; -583.000; -645.000
391.792; -106.400; -673.000; -701.000
391.921;  298.900;   -3.000;   15.000
392.050;  462.200; -287.000; -228.000
392.178;  -21.200;-1206.000;-1061.000
392.307;  313.400; -758.000; -712.000
392.436;  152.400; -427.000; -641.000
392.564;  117.400;  166.000;   -6.000
392.693; -133.900; -860.000; -682.000
392.822;  490.300; -529.000; -534.000
392.950;  213.600; -880.000; -714.000
393.079;  729.200; -188.000; -328.000
393.208;  129.200; -488.000; -511.000
393.336;   52.900; -170.000; -145.000
393.465;   11.200; -317.000; -199.000
393.593;   71.700;   62.000;   79.000
393.722; -239.000;-1121.000; -916.000
393.850;   31.600; -188.000;  -61.000
393.979; -262.200; -926.000; -805.000
394.107;  -61.800; -517.000; -537.000
394.236;   20.200; -570.000; -507.000
394.364;  612.700;  383.000;  206.000
394.493;  974.100; -911.000; -767.000
394.621;   49.200; -955.000; -916.000
394.750; 1459.300; -873.000; -923.000
394.878; 5901.500; -247.000; -149.000
395.007; 7442.600; -721.000; -807.000
395.135;  600.100; -790.000; -721.000
395.263; -142.800;-1038.000;-1040.000
395.392;   59.800;  -25.000; -107.000
395.520; -212.700; -818.000; -679.000
395.648; -140.300; -865.000; -915.000
395.777;   72.200; -366.000; -405.000
395.905;  -28.100; -449.000; -564.000
396.033;  117.500;  217.000;  172.000
396.162; 1580.900; -399.000; -453.000
396.290; 1388.600;  -17.000;   -2.000
396.418;  258.900; -555.000; -514.000
396.546;  -84.300; -571.000; -466.000
396.674; -147.200; -850.000; -878.000
396.803;   82.900;  -72.000;  -23.000
396.931;  270.000; -179.000; -199.000
397.059;  173.800;-1026.000; -989.000
397.187; -161.300;-1026.000; -975.000
397.315; -187.500; -884.000; -649.000
397.443; -120.400; -592.000; -443.000
397.572; -117.400; -578.000; -424.000
397.700;   46.400; -607.000; -614.000
397.828;   76.200;  120.000;  -90.000
397.956;  -43.400; -508.000; -478.000
398.084;  -86.100; -767.000; -626.000
398.212;  157.800;  137.000;  124.000
398.340;  103.800;  -56.000;  159.000
398.468;  149.900; -390.000; -169.000
398.596; -238.600; -993.000; -953.000
398.724; -151.200; -762.000; -767.000
398.852; -286.800;-1024.000; -976.000
398.980;  -32.100; -560.000; -560.000
399.108;   -2.900; -982.000; -735.000
399.236;  145.400;   13.000;    8.000
399.363;   94.800;  222.000;  196.000
399.491;  -65.400; -404.000; -398.000
399.619; -179.000; -829.000; -800.000
399.747; -155.500; -859.000; -771.000
399.875;  229.200;  220.000;  234.000
400.003;  -36.600; -359.000; -284.000
400.130; -118.300; -421.000; -341.000
400.258;   27.400;  -83.000;   38.000
400.386;  -49.100; -352.000; -168.000
400.514;   -9.100; -526.000; -587.000
400.641; -132.200; -928.000; -802.000
400.769; -237.800; -979.000; -888.000
400.897; -122.500; -838.000; -793.000
401.025;   44.200; -166.000; -152.000
401.152;   84.800;  220.000;   38.000
401.280;  -70.200; -430.000; -429.000
401.408; -160.000; -712.000; -576.000
401.535; -129.800; -735.000; -758.000
401.663; -295.100;-1134.000;-1054.000
401.790;  -94.100; -514.000; -525.000
401.918;  154.100;  436.000;  405.000
402.046;   69.800;  134.000;  122.000
402.173;   -3.100;  -18.000;    7.000
402.301;  -64.900; -519.000; -397.000
402.428;  193.800;  528.000;  383.000
402.556; -240.500;-1188.000; -913.000
402.683;   10.600;  -20.000;   -1.000
402.811;   20.000;  -37.000; -206.000
402.938;   50.200;   20.000;   27.000
403.066;  437.800; -574.000; -558.000
403.193;  623.100;  299.000;  239.000
403.321;  509.800; -396.000; -574.000
403.448;  630.800;   83.000;   27.000
403.575;  311.700;  -90.000;  -46.000
403.703; -130.800; -732.000; -557.000
403.830;  -60.000; -531.000; -496.000
403.957; -211.800;-1117.000;-1023.000
404.085;   93.900;  -61.000; -172.000
404.212;  289.600;  -50.000;   63.000
404.339;  619.600; -566.000; -306.000
404.467;11370.300; -612.000; -524.000
404.594; 7068.900; -287.000; -227.000
404.721; 1704.100; -869.000; -764.000
404.848;  243.100; -113.000; -202.000
404.976; -159.600; -856.000; -783.000
405.103;   71.600;  -14.000;  -82.000
405.230;  100.800;  190.000;  226.000
405.357;  122.200;  117.000;   44.000
405.484;  568.100;  -49.000;    5.000
405.612;  133.800; -548.000; -563.000
405.739;  -44.100; -488.000; -243.000
405.866;  257.400;  669.000;  385.000
405.993;   19.100; -398.000; -102.000
406.120; -207.000; -801.000; -887.000
406.247;  -40.200; -323.000; -342.000
406.374; 1058.200;  540.000;  629.000
406.501;  287.000; -632.000; -702.000
406.628;  -79.600; -621.000; -589.000
406.755; -123.700; -803.000; -620.000
406.882;    2.100; -228.000; -277.000
407.009; -147.600; -719.000; -628.000
407.136;  179.200; -480.000; -401.000
407.263;  361.200; -939.000; -829.000
407.390;  -66.700; -692.000; -614.000
407.517; -253.700;-1139.000;-1187.000
407.644;  -37.600; -332.000; -256.000
407.771;  -78.100; -249.000; -287.000
407.898;   95.700;  168.000;  328.000
408.025;  -26.500; -421.000; -313.000
408.151;   56.000;   82.000;  153.000
408.278;  -57.700; -267.000; -216.000
408.405; -154.200; -931.000; -899.000
408.532;  -47.500; -549.000; -542.000
408.659; -167.500; -677.000; -648.000
408.785; -325.700;-1298.000;-1170.000
408.912;  -60.300; -412.000; -296.000
409.039; -174.000; -610.000; -686.000
409.166; -146.700; -591.000; -555.000
409.292; -143.200; -571.000; -534.000
409.419; -172.600; -665.000; -649.000
409.546; -106.500; -431.000; -192.000
409.672; -128.700; -713.000; -545.000
409.799;   24.200;  -36.000;   34.000
409.926;  -22.900; -180.000; -179.000
410.052; -304.900;-1127.000;-1091.000
410.179;  -54.500; -368.000; -392.000
410.305; -115.700; -375.000; -493.000
410.432;    5.800; -220.000; -333.000
410.558;  -92.000; -305.000; -380.000
410.685; -173.400; -688.000; -431.000
410.812;  -94.100; -409.000; -588.000
410.938; -215.300; -964.000; -808.000
411.065; -115.400; -671.000; -645.000
411.191;   23.300; -189.000; -174.000
411.317; -181.900; -823.000; -742.000
411.444;  -71.600; -317.000; -246.000
411.570;  -78.900; -339.000; -294.000
411.697; -183.200; -758.000; -752.000
411.823; -285.100; -989.000; -999.000
411.949;   31.000;  -56.000;   17.000
412.076; -174.100; -539.000; -519.000
412.202; -161.000; -758.000; -757.000
412.329; -194.400; -798.000; -752.000
412.455; -152.700; -821.000; -657.000
412.581;   36.400;  -15.000;  172.000
412.707;  -75.400; -540.000; -457.000
412.834;  119.600;  156.000;  219.000
412.960; -104.300; -785.000; -784.000
413.086; -150.800; -743.000; -701.000
413.212;  432.100;  604.000;  578.000
413.339;  -52.300; -685.000; -701.000
413.465;   85.100; -364.000; -310.000
413.591; -100.900; -757.000; -474.000
413.717;  -41.500; -358.000; -366.000
413.843; -224.000; -839.000; -861.000
413.969;  -20.200;  -47.000; -292.000
414.096; -116.400; -679.000; -679.000
414.222;   80.800;  -33.000;   85.000
414.348;   13.600; -652.000; -385.000
414.474;  303.100;   38.000;  -52.000
414.600;   27.700; -126.000; -144.000
414.726;   32.700;  -96.000;  -55.000
414.852;  -92.100; -365.000; -342.000
414.978;  147.100;  104.000;  -18.000
415.104;  151.800;   38.000;   80.000
415.230;  122.400; -329.000; -330.000
415.356;  128.600; -409.000; -514.000
415.482;  438.200;   13.000;  -35.000
415.608;  628.900; -247.000; -323.000
415.734; 2057.700;   67.000;   38.000
415.860;40883.000; -875.000; -767.000
415.986;26452.500; -685.000; -607.000
416.111; 2297.400; -798.000; -652.000
416.237;  512.700; -424.000; -571.000
416.363; 2459.400; -765.000; -733.000
416.489; 7925.400; -324.000; -251.000
416.615;  772.700; -707.000; -742.000
416.741;    1.500; -677.000; -784.000
416.866; -132.300; -673.000; -736.000
416.992; -189.000; -801.000; -818.000
417.118;   14.200;  -41.000;  -80.000
417.244;  -90.900; -798.000; -531.000
417.369; -116.700; -801.000; -612.000
417.495;   76.100; -325.000; -254.000
417.621;  -97.200;-1015.000; -803.000
417.746;   57.400; -579.000; -572.000
417.872;  150.700; -254.000; -144.000
417.998;  148.500; -515.000; -530.000
418.123; 2313.100;-1073.000; -845.000
418.249;10387.200; -512.000; -601.000
418.374; 1325.100; -916.000; -824.000
418.500;  279.300; -383.000; -482.000
418.626;  302.400;   70.000;  -59.000
418.751;  287.000; -549.000; -448.000
418.877;  439.300; -637.000; -643.000
419.002; 3909.100; -688.000; -560.000
419.128;24304.700; -930.000; -721.000
419.253; 5318.800; -967.000; -837.000
419.379;  768.800; -391.000; -338.000
419.504;  817.700;  325.000;  415.000
419.629; 1054.700; -393.000; -212.000
419.755; 7422.900; -317.000; -254.000
419.880;39507.100;  -98.000;   67.000
420.006;22405.000; -280.000; -221.000
420.131;54503.900; -662.000; -775.000
420.256; 7070.900; -315.000; -316.000
420.382; 1033.900; -665.000; -687.000
420.507;  159.500; -649.000; -778.000
420.632;  357.000; -337.000; -339.000
420.758;  549.900; -251.000; -425.000
420.883; -103.500; -876.000; -672.000
421.008; -114.500; -775.000; -619.000
421.133; -111.400; -509.000; -467.000
421.259;  -19.200; -325.000; -259.000
421.384; -178.600; -834.000; -693.000
421.509;    0.300;-1052.000; -862.000
421.634; 2506.000; -936.000; -820.000
421.759;  949.500; -359.000; -327.000
421.885;  -58.100; -717.000; -656.000
422.010;  -71.300; -673.000; -542.000
422.135; -236.300; -695.000; -727.000
422.260;  142.400;  340.000;  280.000
422.385;  -39.900;   12.000;  -98.000
422.510;   94.700;  151.000;  -26.000
422.635;   83.200;  -87.000;  -43.000
422.760;  260.300; -766.000; -791.000
422.885;  136.200;  -57.000;  -80.000
423.010;   15.400; -112.000; -169.000
423.135; -118.300; -481.000; -561.000
423.260;   62.400; -150.000; -245.000
423.385;  232.300;  476.000;  222.000
423.510;  135.200;   71.000;  -22.000
423.635;  222.000;  133.000;   45.000
423.760;  224.100;  383.000;  328.000
423.885;  190.900;  336.000;  391.000
424.010;   88.100;  -68.000;  -13.000
424.135;   65.300;    5.000;  -33.000
424.259;  -95.900; -654.000; -457.000
424.384;  -26.000; -279.000; -272.000
424.509;   43.300; -260.000; -186.000
424.634;  -94.200; -761.000; -623.000
424.759;  -10.300; -688.000; -544.000
424.883;    9.400; -506.000; -527.000
425.008;  437.900; -502.000; -410.000
425.133; 4070.000; -679.000; -653.000
425.258; 1689.600; -517.000; -381.000
425.382; 2110.200; -867.000; -774.000
425.507; 4846.600; -487.000; -543.000
425.632;  801.300; -802.000; -663.000
425.756;  881.400; -256.000; -146.000
425.881;13334.200; -831.000; -857.000
426.006;32043.800; -604.000; -355.000
426.130; 4610.900; -696.000; -508.000
426.255;  644.100; -611.000; -491.000
426.379;  358.600; -189.000; -577.000
426.504;  829.400;  660.000;  544.000
426.629; 8386.900; -519.000; -466.000
426.753; 5098.700;   64.000;  -46.000
426.878;  633.600; -252.000; -288.000
427.002;  380.400; -651.000; -668.000
427.127; 3436.900;  -35.000; -158.000
427.251;22390.600;  372.000;  401.000
427.375; 5603.900; -191.000; -173.000
427.500; 4374.500; -616.000; -610.000
427.624; 1380.300; -234.000; -400.000
427.749;  250.100; -216.000; -225.000
427.873;  -52.300; -499.000; -412.000
427.997;   22.800; -222.000; -230.000
428.122;  234.300;  795.000;  703.000
428.246;  237.800;  433.000;  434.000
428.371; -162.900; -869.000; -773.000
428.495; -147.000; -624.000; -646.000
428.619;   42.200; -186.000; -117.000
428.743;  164.300;   65.000;  132.000
428.868;  125.700; -732.000; -643.000
428.992; 2698.500; -219.000; -326.000
429.116; 1014.600; -329.000; -357.000
429.240;  621.900;  419.000;  426.000
429.365;   41.200; -454.000; -574.000
429.489;    3.300; -638.000; -647.000
429.613;  135.800; -236.000; -177.000
429.737;  179.100; -563.000; -432.000
429.861;  653.200; -247.000; -133.000
429.985;11560.800; -425.000; -305.000
430.109;11350.900; -770.000; -908.000
430.234; 1336.200;   76.000;  -50.000
430.358;  213.500; -250.000; -160.000
430.482;  -64.400; -672.000; -564.000
430.606;  -54.400; -655.000; -375.000
430.730;  167.700; -437.000; -388.000
430.854;  327.400; -909.000; -835.000
430.978;  -36.900; -795.000; -764.000
431.102; -105.500; -499.000; -422.000
431.226; -134.500; -874.000; -815.000
431.350;  177.000;  345.000;  422.000
431.474;  -35.600; -661.000; -373.000
431.597; -258.100;-1060.000; -848.000
431.721;  -72.100; -276.000; -267.000
431.845; -177.100; -704.000; -472.000
431.969;  -77.400; -304.000; -349.000
432.093; -112.300; -395.000; -317.000
432.217;   70.700;   32.000;   82.000
432.341; -133.500; -523.000; -518.000
432.464;  102.900;   96.000;   40.000
432.588;  525.100; -401.000; -329.000
432.712;  272.000;  -52.000;  -52.000
432.836;  212.400;  213.000;  263.000
432.959;   -0.200; -372.000; -311.000
433.083;  240.700;   11.000;    2.000
433.207;  873.700;  285.000;  930.000
433.330;10410.000; -391.000; -200.000
433.454;11632.200; -654.000; -638.000
433.578; 6792.400;  583.000;  278.000
433.701; 1168.500; -623.000; -675.000
433.825;  342.600; -292.000; -299.000
433.949;  433.300;   28.000;  -72.000
434.072;  159.100; -410.000; -323.000
434.196;   88.500; -309.000; -117.000
434.319; 7950.800;25482.000;25124.000
434.443; 1649.700; -656.000; -603.000
434.566; 5158.700;  281.000;   62.000
434.690;  750.900; -637.000; -383.000
434.813;  180.000; -251.000; -173.000
434.937;  -68.800; -569.000; -696.000
435.060;  -15.100; -423.000; -332.000
435.184;  758.200; -492.000; -217.000
435.307;  405.600;  159.000;  102.000
435.431;   50.300;  -40.000;   24.000
435.554;  -70.700; -399.000; -240.000
435.677;  -64.700; -350.000; -258.000
435.801;   23.500;  -25.000;   49.000
435.924;   76.300;    1.000;  -67.000
436.048; -133.000;-1019.000; -732.000
436.171;  -67.300; -240.000;  -66.000
436.294;   36.900; -248.000; -229.000
436.417;  256.300; -963.000; -849.000
436.541; -117.600; -814.000; -840.000
436.664;  -12.100; -242.000; -316.000
436.787;   70.400;   13.000;  113.000
436.910; -124.700; -792.000; -422.000
437.034;  117.500;  142.000;  143.000
437.157;  191.400;  -11.000;    0.000
437.280;  -46.600; -392.000; -292.000
437.403;  -94.700; -982.000; -869.000
437.526; 1485.500; -903.000; -865.000
437.649; 4573.700; -505.000; -332.000
437.772;  611.000; -692.000; -540.000
437.896;  354.400;  700.000;  544.000
438.019; -113.600; -758.000; -503.000
438.142;  -97.400; -596.000; -506.000
438.265;   81.700; -639.000; -670.000
438.388; 1237.500; -520.000; -410.000
438.511;  230.800; -597.000; -394.000
438.634;  -12.800; -247.000; -125.000
438.757; -195.900; -693.000; -619.000
438.880;   23.000;  -34.000;  -57.000
439.003;  -68.200; -417.000; -437.000
439.126;  -70.500; -287.000; -167.000
439.248;  -29.700;  -98.000; -139.000
439.371;   15.400;    9.000;  -53.000
439.494;  146.700;  510.000;  439.000
439.617;  -38.100;   65.000;  -88.000
439.740; -294.600; -968.000; -816.000
439.863; -209.200; -755.000; -595.000
439.986; -167.500; -476.000; -431.000
440.108;  -43.400; -161.000; -112.000
440.231; -264.500; -950.000; -836.000
440.354;    7.100;  -64.000; -150.000
440.477;  164.100; -566.000; -542.000
440.599;   57.300; -200.000; -225.000
440.722; -151.700; -709.000; -586.000
440.845;  228.600;  751.000;  928.000
440.968; -163.500; -415.000; -311.000
441.090;  -49.500; -199.000;  -33.000
441.213; -279.600;-1021.000; -825.000
441.336;  -38.700; -159.000;   -5.000
441.458;  -92.800; -549.000; -396.000
441.581; -128.200; -628.000; -629.000
441.703;  -54.600; -152.000;   13.000
441.826; -134.200; -557.000; -400.000
441.948;   12.300;   56.000;   51.000
442.071;  150.000;  555.000;  424.000
442.193; -168.800; -531.000; -485.000
442.316;  115.800;  152.000;   97.000
442.438;  144.200; -233.000;  -10.000
442.561;  224.300;  272.000;  262.000
442.683; 1279.600; -809.000; -522.000
442.806; 2263.000;   -8.000;   74.000
442.928;   30.900; -859.000; -604.000
443.051;  -84.800; -577.000; -373.000
443.173; -110.900; -341.000; -339.000
443.295;  -99.600; -263.000; -371.000
443.418;  -53.600; -321.000;  -29.000
443.540;   39.700; -106.000;   -4.000
443.662; -140.800; -563.000; -465.000
443.785;   43.200;  335.000;  199.000
443.907; -141.000; -362.000; -208.000
444.029; -211.400; -767.000; -494.000
444.152; -228.500; -644.000; -554.000
444.274;    2.800;  -18.000;  -24.000
444.396; -152.700; -461.000; -221.000
444.518; -188.400; -691.000; -454.000
444.640; -143.700; -268.000; -111.000
444.763;   33.400;  388.000;  249.000
444.885; -188.000; -432.000; -392.000
445.007;  -16.900;   35.000;   86.000
445.129; -153.800; -610.000; -515.000
445.251; -127.100; -372.000; -439.000
445.373; -213.400; -537.000; -386.000
445.495;   85.000;  242.000;  350.000
445.617;  233.200;  853.000;  753.000
445.739;  -57.600; -215.000;  -97.000
445.861;    6.100; -245.000; -112.000
445.984;   20.300; -267.000; -101.000
446.105;  507.200; -418.000; -251.000
446.227; 1231.000; -176.000;  -19.000
446.349;   54.400; -358.000; -249.000
446.471; -139.000; -615.000; -448.000
446.593;  -50.100; -316.000;   19.000
446.715;   68.400;  -67.000;   41.000
446.837;  228.500;  697.000;  832.000
446.959; -139.600; -457.000; -478.000
447.081; -198.900; -628.000; -518.000
447.203;  213.900;  862.000;  834.000
447.325;  -88.100; -270.000;   42.000
447.446;   66.300;  286.000;  530.000
447.568; -237.000; -921.000; -803.000
447.690;  -94.400; -236.000; -245.000
447.812; -241.600; -798.000; -519.000
447.933;   36.300;  155.000;  127.000
448.055;  -77.300; -306.000; -261.000
448.177;  377.200;   31.000;   79.000
448.299;  260.900; -935.000; -727.000
448.420;   97.200;  -25.000;  159.000
448.542;   -8.500;   -3.000;   33.000
448.664;   67.100;  109.000;  322.000
448.785;   15.400;  265.000;   83.000
448.907;  -89.300; -614.000; -353.000
449.028;  -10.100; -771.000; -471.000
449.150;  204.600;  492.000;  589.000
449.272; -307.900;-1044.000; -913.000
449.393;  115.000;  612.000;  694.000
449.515; -212.100; -634.000; -581.000
449.636;  -50.100; -264.000; -155.000
449.758;  205.700;  763.000;  622.000
449.879; -103.600; -498.000; -396.000
450.001; -100.300; -149.000;  -49.000
450.122;    8.400;  -95.000;  162.000
450.244;   39.300;   37.000;  364.000
450.365; -102.500; -495.000; -301.000
450.486;   10.900;   80.000;  268.000
450.608;  134.700;  393.000;  326.000
450.729;  211.500;  578.000;  645.000
450.850;   65.600; -574.000; -466.000
450.972; 1557.400; -552.000; -389.000
451.093; 9646.300;  190.000;  588.000
451.214; 3649.100; -516.000; -337.000
451.336;  729.200;  773.000;  579.000
451.457;  201.600;  264.000;  393.000
451.578;  -18.400; -118.000;  -74.000
451.699; -154.200; -546.000; -540.000
451.821;  -80.400; -284.000;  -50.000
451.942;   95.000;  278.000;  285.000
452.063;  152.700;  228.000;  419.000
452.184; 1188.100;  -54.000;  -49.000
452.305; 2120.400;  103.000;  170.000
452.427;  234.500; -549.000; -301.000
452.548;   34.500;   23.000;   79.000
452.669;  -15.000; -257.000;  -89.000
452.790;    3.500;    3.000;  -18.000
452.911;   69.100;  195.000;  259.000
453.032;  -70.200; -289.000;  -60.000
453.153;  -13.900;  -29.000;   81.000
453.274;  186.000;  737.000;  868.000
453.395;   -2.000;  -51.000;  175.000
453.516;  349.100; 1317.000; 1388.000
453.637;  -62.500; -205.000; -150.000
453.758;  -40.800;   15.000;   69.000
453.879; -183.500; -462.000; -250.000
454.000;  250.600; 1086.000;  948.000
454.121; -177.500; -554.000; -326.000
454.242; -192.900; -599.000; -383.000
454.362;  -19.800;  -99.000;  114.000
454.483;    9.600; -309.000; -229.000
454.604;  189.800;  512.000;  580.000
454.725; -186.900; -627.000; -555.000
454.846; -177.900; -474.000; -406.000
454.967;   55.800;  230.000;  539.000
455.087;   -6.400;  179.000;  153.000
455.208;  127.600;  554.000;  856.000
455.329;  -24.800;  -22.000;   82.000
455.450;  174.200;  473.000;  633.000
455.570; -107.600; -234.000; -211.000
455.691;   -5.800;  201.000;  407.000
455.812; -106.200; -270.000;  -92.000
455.932;  -52.700;  107.000;  -97.000
456.053;  -95.600;   36.000;   24.000
456.173; -159.600; -433.000; -355.000
456.294; -197.100; -476.000; -303.000
456.415;  -48.200;  -73.000;   70.000
456.535;  -14.600;  297.000;  273.000
456.656;    7.500;  132.000;  240.000
456.776;  -45.300;    3.000;  298.000
456.897;   60.800;  308.000;  513.000
457.017;  -77.800; -153.000;   -3.000
457.138; -138.100; -402.000; -249.000
457.258;   37.500;  263.000;  224.000
457.379;   51.700;  509.000;  521.000
457.499;   29.100;  443.000;  432.000
457.620; -200.000; -407.000; -231.000
457.740; -111.700; -132.000;  -11.000
457.860;  -29.100;   87.000;   44.000
457.981;   18.000;  132.000;  124.000
458.101; -100.800;  -89.000;   40.000
458.221;   36.200;  336.000;  402.000
458.342;  -62.400;   -4.000;  -37.000
458.462;  133.000;  617.000;  352.000
458.582;  -13.500; -302.000; -294.000
458.703;   84.200;  303.000;  154.000
458.823;   23.400;   22.000;  163.000
458.943;  150.600;  341.000;  467.000
459.063;   51.200; 1124.000;  192.000
459.183;    4.200;  328.000;  313.000
459.304;   90.000;  315.000;  517.000
459.424;  -45.500; -246.000;  -89.000
459.544;  816.000;  388.000;  764.000
459.664; 1699.100;  499.000;  506.000
459.784;  629.200; 1004.000; 1175.000
459.904;  186.900;  867.000;  744.000
460.024;  230.300;  867.000;  684.000
460.144;   98.400;  449.000;  554.000
460.264;   51.300;  515.000;  327.000
460.385;  -82.600; -145.000; -119.000
460.505;  170.000;  905.000;  858.000
460.625; -133.800;  -17.000;  -68.000
460.745;   34.500;  396.000;  541.000
460.864;    7.700;  153.000;  469.000
460.984;  112.400;  499.000;  573.000
461.104;  401.400; 1656.000; 1775.000
461.224;  123.900;  657.000;  650.000
461.344;   31.400;  431.000;  360.000
461.464;   10.000;  258.000;  513.000
461.584;   57.900;  283.000;  466.000
461.704;  -56.000;   58.000;  108.000
461.824;  -36.400;  238.000;  259.000
461.943;  -23.800;  191.000;  130.000
462.063;  -81.900;    2.000;  324.000
462.183;  124.800;  639.000;  717.000
462.303;  319.500; 1678.000; 1230.000
462.422;  193.900;  781.000;  840.000
462.542;   10.100;  271.000;  391.000
462.662;  169.000;  353.000;  380.000
462.782;  545.200;  833.000;  572.000
462.901;  997.400;  545.000;  717.000
463.021;  636.300; 1702.000; 1638.000
463.141;   71.600;  337.000;  770.000
463.260;   39.900;  614.000;  474.000
463.380;   88.700;  902.000;  884.000
463.499;   31.500;  342.000;  332.000
463.619;   15.000;  581.000;  559.000
463.738;  303.500; 1644.000;  903.000
463.858;  123.800;  657.000;  811.000
463.978;  -12.000;  542.000;  396.000
464.097;  206.400;  921.000; 1114.000
464.217;  315.600; 1196.000; 1143.000
464.336;  299.400; 1068.000; 1130.000
464.455;   17.000;  328.000;  659.000
464.575;  161.500;  597.000;  602.000
464.694;  435.900; 1204.000; 1179.000
464.814;  328.400; 1190.000; 1138.000
464.933;  230.900; 1095.000; 1027.000
465.052;  261.400; 1412.000; 1054.000
465.172;  261.300;  922.000;  799.000
465.291;  318.100; 1376.000; 1320.000
465.410;  126.500;  462.000;  735.000
465.530;  244.700; 1355.000; 1310.000
465.649;  225.700; 1209.000; 1273.000
465.768;  372.800; 1673.000; 1508.000
465.888;  194.900;  941.000; 1174.000
466.007;  285.000; 1335.000; 1440.000
466.126;  118.900;  721.000;  641.000
466.245;  190.900; 1176.000; 1187.000
466.364;  149.200;  950.000; 1060.000
466.484;  172.900; 1024.000; 1213.000
466.603;  166.400; 1101.000; 1222.000
466.722;  305.100; 1490.000; 1769.000
466.841;  232.400; 1151.000; 1401.000
466.960;  168.400; 1069.000;  972.000
467.079;  390.400; 1971.000; 1786.000
467.198;  161.700; 1238.000; 1181.000
467.317;  249.500; 1768.000; 1162.000
467.436;  196.000; 1709.000; 1261.000
467.555;  335.000; 1796.000; 1746.000
467.674;  194.500; 1227.000; 1329.000
467.793;  175.500; 1376.000; 1374.000
467.912;  260.800; 1658.000; 1539.000
468.031;  361.500; 2038.000; 1930.000
468.150;  387.800; 1842.000; 1837.000
468.269;  501.400; 2313.000; 2090.000
468.388;  479.300; 2168.000; 2339.000
468.507;  624.400; 2884.000; 2903.000
468.626;  631.100; 2555.000; 2541.000
468.744;  368.300; 2018.000; 2174.000
468.863;  489.000; 2312.000; 2523.000
468.982;  283.600; 1503.000; 1555.000
469.101;  527.000; 2788.000; 2692.000
469.220;  396.100; 2333.000; 2176.000
469.338;  551.300; 2935.000; 3051.000
469.457;  516.500; 2719.000; 2545.000
469.576;  800.000; 3953.000; 3784.000
469.695;  599.500; 2877.000; 3066.000
469.813;  979.300; 4148.000; 4192.000
469.932;  941.700; 4255.000; 4485.000
470.051;  984.000; 4075.000; 4161.000
470.169; 1846.100; 4470.000; 4338.000
470.288; 3014.600; 4700.000; 4809.000
470.406; 1700.100; 5059.000; 5194.000
470.525; 1400.400; 6101.000; 5787.000
470.644; 1414.600; 6847.000; 6794.000
470.762; 1718.900; 8397.000; 7873.000
470.881; 1892.000; 8651.000; 8464.000
470.999; 2209.400; 9685.000; 9151.000
471.118; 2355.400;11174.000;10711.000

