
Integration time [ms]: 200.000
Averaging Nr. [scans]: 10
Smoothing Nr. [pixels]: 0
Data measured with spectrometer [name]: 2101012U2
Wave   ;Sample   ;Dark     ;Reference
[nm]   ;[counts] ;[counts] ;[counts] 

197.733;  134.400;  516.000;  404.000
197.879; -177.400; -610.000; -634.000
198.025; -126.400; -475.000; -420.000
198.171; -163.000; -602.000; -612.000
198.317;  -59.000; -401.000; -316.000
198.463; -112.900; -655.000; -404.000
198.609;   53.300;  181.000; -137.000
198.755; -168.100; -644.000; -410.000
198.901; -121.600; -505.000; -424.000
199.047; -111.300; -615.000; -488.000
199.193;  -71.400; -230.000; -468.000
199.339;  -72.500; -222.000; -369.000
199.485;  100.000;  330.000;  271.000
199.631;   24.300;  227.000;  310.000
199.777; -110.700; -466.000; -398.000
199.923; -130.300; -610.000; -424.000
200.069;   55.100; -141.000;  -58.000
200.215;  154.900;  128.000;  453.000
200.361;  102.700;  243.000;  477.000
200.507; -137.600; -600.000; -373.000
200.653;  -47.300; -371.000; -194.000
200.798;  -73.200; -215.000; -125.000
200.944;  -20.700; -146.000;  -41.000
201.090;   81.900;   61.000;  222.000
201.236;    4.300; -116.000; -158.000
201.382;  272.000;  874.000;  903.000
201.528;   18.300;  -58.000;  -48.000
201.674; -122.500; -386.000; -293.000
201.819; -132.200; -540.000; -439.000
201.965; -163.100; -699.000; -447.000
202.111;  -40.200; -273.000; -226.000
202.257;  -79.000; -250.000; -238.000
202.402;   12.800;   13.000;  -36.000
202.548;  -35.100; -169.000; -116.000
202.694;  160.800;  410.000; -183.000
202.840; -158.300; -603.000; -531.000
202.985; -157.100; -681.000; -639.000
203.131; -202.300; -832.000; -666.000
203.277;  -29.900; -199.000; -262.000
203.423;  -99.600; -434.000; -520.000
203.568;  -66.300; -462.000; -237.000
203.714; -132.300; -535.000; -542.000
203.860; -138.300; -682.000; -641.000
204.005;   47.300;  112.000;  167.000
204.151;  174.400;  561.000;  556.000
204.296; -106.200; -354.000; -221.000
204.442; -144.000; -600.000; -547.000
204.588; -152.500; -592.000; -579.000
204.733;   47.100;  178.000;  168.000
204.879; -254.200;-1018.000; -822.000
205.025;   18.500;  -99.000;  126.000
205.170;    8.600;  -17.000;   94.000
205.316;  188.400;  438.000;  661.000
205.461; -178.200; -698.000; -554.000
205.607;  187.200;  609.000;  665.000
205.752; -137.700; -626.000; -551.000
205.898;  -95.900; -501.000; -391.000
206.043; -137.300; -578.000; -506.000
206.189;  -60.100; -243.000; -285.000
206.334;  185.700;  554.000;  606.000
206.480;  172.900;  409.000;  239.000
206.625; -189.100; -529.000; -552.000
206.771; -104.300; -451.000; -373.000
206.916;  -38.000; -210.000; -537.000
207.062; -129.200; -545.000; -591.000
207.207; -103.800; -546.000; -443.000
207.353;  149.800;  185.000;  460.000
207.498;   86.100;  196.000;   85.000
207.643;  -97.000; -501.000; -370.000
207.789; -270.500;-1069.000; -910.000
207.934; -183.200; -665.000; -713.000
208.080;  -28.400; -154.000;   66.000
208.225;  -12.100;  -22.000;  -57.000
208.370; -178.100; -727.000; -619.000
208.516; -154.700; -741.000; -487.000
208.661;  -71.900; -127.000;  -69.000
208.806;  -50.100; -165.000; -171.000
208.952; -234.100;-1044.000; -731.000
209.097;  170.200;  378.000;  349.000
209.242;  -83.300; -307.000; -382.000
209.387;  114.300;  392.000;  350.000
209.533; -107.800; -321.000; -350.000
209.678;  174.700;  472.000;  543.000
209.823; -106.200; -408.000; -310.000
209.969; -197.500; -860.000; -757.000
210.114; -207.300; -907.000; -719.000
210.259; -239.000; -939.000; -889.000
210.404;  -17.700; -171.000;  103.000
210.549;   41.500;  108.000;    3.000
210.695;  -31.900;   -3.000;  -95.000
210.840;   64.700;   94.000;   67.000
210.985; -105.100; -484.000; -303.000
211.130;  162.600;  268.000;  406.000
211.275;   38.000;  207.000;  199.000
211.420;  -81.700; -300.000; -289.000
211.566; -111.700; -536.000; -489.000
211.711;   96.200;  218.000;  157.000
211.856; -125.000; -545.000; -519.000
212.001;   18.300;  151.000;   44.000
212.146;    5.000;  153.000;   49.000
212.291;  -28.600; -210.000; -186.000
212.436;  -45.800; -280.000;   -6.000
212.581; -157.100; -685.000; -653.000
212.726; -145.200; -487.000; -538.000
212.871;  -67.500; -552.000; -217.000
213.016; -307.100;-1172.000;-1029.000
213.161;  156.400;  406.000;  291.000
213.306; -153.400; -435.000; -577.000
213.451; -175.900; -778.000; -689.000
213.596; -102.800; -455.000; -347.000
213.741;  -94.900; -448.000; -538.000
213.886; -154.700; -498.000; -517.000
214.031;  -12.500; -294.000; -124.000
214.176;  -98.200; -408.000; -341.000
214.321;  -18.400; -296.000; -157.000
214.466;  -43.100; -163.000;  -43.000
214.611;   43.100;  -61.000;  -10.000
214.756; -258.300; -948.000; -858.000
214.901;  -33.100; -388.000; -226.000
215.046; -248.300; -797.000; -825.000
215.191;   63.900;  128.000;   35.000
215.336;  -11.200; -157.000;  -19.000
215.480; -137.300; -684.000; -505.000
215.625;  -22.300; -175.000;  -19.000
215.770; -141.400; -757.000; -662.000
215.915;   -4.600;   -5.000;  -97.000
216.060;    5.200; -113.000;  -21.000
216.205; -216.200; -731.000; -779.000
216.349; -111.700; -470.000; -533.000
216.494; -256.700; -939.000; -867.000
216.639; -215.300; -823.000; -888.000
216.784; -190.800; -577.000; -525.000
216.929;   92.800;  392.000;  281.000
217.073;   -7.800; -244.000;  -31.000
217.218;   20.800;   78.000;  -47.000
217.363; -175.700; -656.000; -618.000
217.507; -167.800; -623.000; -588.000
217.652; -246.800; -845.000; -874.000
217.797; -173.400; -708.000; -659.000
217.942; -234.500; -856.000; -720.000
218.086;  154.100;  608.000;  539.000
218.231;  -46.800; -174.000;  -26.000
218.376;  -79.300; -337.000; -229.000
218.520;    1.100;  -41.000;   96.000
218.665;  -62.500; -338.000; -204.000
218.810;  -68.000; -275.000; -233.000
218.954;   54.100;  201.000;   35.000
219.099; -226.500; -713.000; -963.000
219.243; -145.000; -589.000; -554.000
219.388;  -64.200; -264.000; -136.000
219.532;  -19.600; -116.000; -116.000
219.677; -132.900; -564.000; -521.000
219.822;   27.800;   33.000;   89.000
219.966;   55.500;   17.000;  -99.000
220.111;  -72.000; -328.000;  -40.000
220.255; -186.500; -797.000; -750.000
220.400;  -20.500; -180.000; -146.000
220.544; -139.500; -516.000; -450.000
220.689; -103.300; -422.000; -451.000
220.833;  -56.000; -123.000;  -58.000
220.978;  -84.000; -393.000; -563.000
221.122;   65.300;  319.000;  307.000
221.267; -222.400; -906.000; -837.000
221.411;  -97.600; -478.000; -394.000
221.555;   14.700; -104.000;  -23.000
221.700;  -94.200; -329.000; -222.000
221.844;   86.800;  255.000;  272.000
221.989; -106.500; -328.000; -311.000
222.133;  -66.500; -289.000; -307.000
222.277;   -7.000;    5.000;   78.000
222.422;   42.100;  227.000;  113.000
222.566;  -85.300; -381.000; -214.000
222.711;  -93.000; -414.000; -479.000
222.855; -163.100; -643.000; -586.000
222.999; -143.500; -642.000; -717.000
223.144;  -47.900; -195.000; -194.000
223.288;  160.200;  423.000;  251.000
223.432;   53.100;  184.000;  230.000
223.576;   58.700;  152.000;  -21.000
223.721;   83.500;  364.000;  273.000
223.865; -124.300; -472.000; -475.000
224.009;  563.900; 1673.000; 1631.000
224.153; -161.800; -660.000; -671.000
224.298; -130.800; -531.000; -489.000
224.442;    4.100;  -74.000;  -33.000
224.586;  -30.200; -169.000; -106.000
224.730; -215.700; -858.000; -670.000
224.875; -219.000; -739.000; -688.000
225.019;   52.500;  102.000;  188.000
225.163;  140.400;  208.000;  341.000
225.307;   60.000;   97.000;  -91.000
225.451;   90.200;  360.000;  481.000
225.595;   64.300;  264.000;  176.000
225.739;   -6.600; -170.000;  -94.000
225.884;   34.900;   86.000;    5.000
226.028; -191.800; -760.000; -626.000
226.172;  -67.500; -260.000; -273.000
226.316; -249.500; -941.000; -902.000
226.460; -126.200; -645.000; -493.000
226.604;  -91.600; -406.000; -400.000
226.748; -205.300; -836.000; -733.000
226.892;  -51.500; -227.000; -181.000
227.036;  -75.100; -537.000; -447.000
227.180; -126.200; -551.000; -375.000
227.324; -136.600; -561.000; -580.000
227.468; -211.300; -819.000; -717.000
227.612;   43.700;  242.000;  -28.000
227.756; -226.400; -845.000; -698.000
227.900;  131.800;  342.000;  441.000
228.044; -104.900; -509.000; -290.000
228.188;  148.200;  448.000;  568.000
228.332; -168.300; -546.000; -472.000
228.476;  -14.700; -223.000; -149.000
228.620;  -39.700; -210.000; -150.000
228.764;  152.000;  431.000;  349.000
228.908;  -56.800; -155.000;   30.000
229.052; -103.400; -615.000; -528.000
229.195;   11.300; -172.000;   13.000
229.339;  -41.800; -235.000; -305.000
229.483;  -58.800;    5.000; -162.000
229.627;   -5.900; -156.000;  139.000
229.771;  -80.300; -218.000; -294.000
229.915;   33.100;  230.000;   79.000
230.059; -205.700; -648.000; -663.000
230.202;  -76.800; -370.000; -317.000
230.346;  -13.500; -107.000;  107.000
230.490; -122.400; -489.000; -521.000
230.634; -199.600; -736.000; -553.000
230.777;  184.600;  478.000;  509.000
230.921;  -85.600; -450.000; -359.000
231.065;  -56.600; -246.000; -286.000
231.209;   78.400;  261.000;  265.000
231.352;   43.500;   54.000;   40.000
231.496;   54.900;  568.000;  188.000
231.640; -136.300; -693.000; -621.000
231.783;  163.900;  546.000;  525.000
231.927;  -77.600; -294.000; -365.000
232.071; -223.100; -962.000; -736.000
232.214; -217.600; -980.000; -764.000
232.358; -200.300; -683.000; -599.000
232.502;   33.500;  -19.000;    7.000
232.645; -289.400;-1090.000; -927.000
232.789;  -11.500; -257.000; -218.000
232.933;  -82.300; -407.000; -224.000
233.076; -248.200;-1038.000; -897.000
233.220; -189.000; -752.000; -777.000
233.363; -133.400; -669.000; -477.000
233.507;  164.200;  371.000;  129.000
233.650; -169.600; -764.000; -834.000
233.794;  120.800;  438.000;  461.000
233.938; -119.000; -530.000; -362.000
234.081;  -22.600;  -93.000;   31.000
234.225; -112.500; -631.000; -539.000
234.368; -205.600; -773.000; -723.000
234.512;  -50.800; -385.000; -299.000
234.655; -163.100; -582.000; -555.000
234.798; -123.200; -493.000; -466.000
234.942; -262.800; -884.000;-1002.000
235.085; -153.200; -651.000; -443.000
235.229; -133.400; -405.000; -410.000
235.372;  -96.400; -247.000; -191.000
235.516;  -99.100; -397.000; -321.000
235.659;   62.100;   92.000;  121.000
235.802;   -1.800;  -38.000;  -22.000
235.946;   68.500;  335.000;  215.000
236.089;   84.000;  126.000;  250.000
236.233;  150.500;  275.000;  298.000
236.376; -122.100; -235.000; -378.000
236.519;  -55.000; -297.000; -319.000
236.663;  -65.600; -215.000; -117.000
236.806; -274.100;-1029.000; -999.000
236.949;  151.800;  543.000;  431.000
237.092;  163.900;  412.000;  391.000
237.236; -139.600; -589.000; -502.000
237.379;  147.400;  352.000;  428.000
237.522; -247.000; -879.000; -768.000
237.666;   -6.500; -271.000;   18.000
237.809; -248.800; -851.000; -823.000
237.952;   85.100;  469.000;  271.000
238.095; -120.800; -447.000; -442.000
238.238;  222.200;  688.000;  700.000
238.382;   14.200;  166.000;  103.000
238.525; -114.500; -598.000; -511.000
238.668; -302.300;-1060.000; -985.000
238.811; -144.400; -638.000; -643.000
238.954; -116.400; -483.000; -334.000
239.097;  232.300;  617.000;  664.000
239.241;   65.100;  394.000;  326.000
239.384;  -40.800; -254.000; -214.000
239.527; -123.400; -424.000; -224.000
239.670; -260.700; -994.000;-1091.000
239.813; -245.100; -696.000; -658.000
239.956;  184.100;  579.000;  473.000
240.099; -185.400; -778.000; -725.000
240.242;  144.400;  428.000;  432.000
240.385;   74.100;  466.000;  450.000
240.528; -127.500; -706.000; -473.000
240.671;   25.900;  189.000;  134.000
240.814;  -80.200; -441.000; -158.000
240.957; -194.400; -767.000; -578.000
241.100; -164.200; -779.000; -755.000
241.243; -279.100;-1234.000; -893.000
241.386; -118.100; -508.000; -379.000
241.529; -161.500; -735.000; -547.000
241.672; -110.600; -566.000; -495.000
241.815; -215.900; -832.000; -808.000
241.958;  -30.700; -125.000; -182.000
242.101; -134.100; -545.000; -390.000
242.244;  -56.300; -270.000; -325.000
242.387;  -88.900; -304.000; -246.000
242.530;  168.700;  470.000;  134.000
242.673;  -47.700; -381.000; -309.000
242.815; -202.700; -925.000; -899.000
242.958; -116.300; -482.000; -381.000
243.101;   62.200;  132.000;  187.000
243.244; -156.100; -564.000; -521.000
243.387;  -84.600; -313.000; -316.000
243.530; -184.400; -657.000; -674.000
243.672;   44.400;   43.000;  -92.000
243.815; -108.500; -355.000; -283.000
243.958;   34.400;   98.000;  -26.000
244.101;    7.700;   59.000;  -16.000
244.243;   17.200;  -47.000;  101.000
244.386; -234.700; -761.000; -630.000
244.529;  -23.200; -132.000; -139.000
244.672; -307.900;-1154.000; -951.000
244.814; -200.200; -621.000; -794.000
244.957; -106.600; -380.000; -304.000
245.100; -131.300; -489.000; -489.000
245.242; -100.300; -387.000; -374.000
245.385;   27.100;  -59.000;  -39.000
245.528; -238.800; -871.000; -705.000
245.670;  231.500;  612.000;  634.000
245.813; -167.400; -599.000; -547.000
245.956;  -50.500; -324.000; -275.000
246.098; -134.600; -508.000; -650.000
246.241;   63.000;  194.000;   48.000
246.383;  -13.400; -119.000;  -73.000
246.526; -127.200; -454.000; -525.000
246.669; -212.200; -889.000; -780.000
246.811;   65.600;  172.000;   -1.000
246.954; -131.300; -512.000; -426.000
247.096;  -10.300;  -84.000;   -6.000
247.239; -128.300; -482.000; -445.000
247.381; -114.400; -647.000; -488.000
247.524;  200.300;  645.000;  679.000
247.666;   32.800;   58.000;   11.000
247.809; -216.300; -887.000; -691.000
247.951;   28.400;  -75.000;  138.000
248.094;   79.600;  432.000;  308.000
248.236; -314.700;-1262.000;-1238.000
248.378;   19.300; -356.000;  -81.000
248.521;  -31.600; -334.000; -337.000
248.663;  -56.100; -236.000; -267.000
248.806;  -25.500; -300.000; -266.000
248.948; -157.300; -886.000; -763.000
249.090;  -64.200; -428.000; -398.000
249.233;  -94.700; -344.000; -381.000
249.375; -113.700; -474.000; -451.000
249.518;   -3.500;  -83.000; -133.000
249.660;   14.700; -103.000;    3.000
249.802; -320.800;-1303.000;-1189.000
249.945; -120.300; -612.000; -540.000
250.087; -202.100; -834.000; -768.000
250.229;  -95.200; -362.000; -480.000
250.371; -122.100; -494.000; -439.000
250.514;  -59.000; -310.000; -244.000
250.656; -112.200;   69.000;  102.000
250.798; -224.400; -849.000; -800.000
250.940;  -73.100; -322.000; -322.000
251.083;  -39.800; -335.000; -111.000
251.225;  137.400;  338.000;  310.000
251.367;  -55.500; -274.000; -373.000
251.509;  -62.700; -265.000; -210.000
251.651; -171.100; -731.000; -671.000
251.794;  140.400;  538.000;  632.000
251.936; -209.900; -821.000; -747.000
252.078; -132.300; -540.000; -461.000
252.220; -133.800; -645.000; -477.000
252.362;  179.200;  344.000;  462.000
252.504; -146.100; -677.000; -584.000
252.646; -213.100; -875.000; -722.000
252.788;   15.300;   14.000; -128.000
252.931;  -55.500; -257.000; -253.000
253.073;  -58.700; -376.000; -317.000
253.215;  -12.200;  141.000;  122.000
253.357;   11.500;   82.000; -153.000
253.499;  -97.400; -374.000; -234.000
253.641; -132.600; -749.000; -594.000
253.783; -179.000; -609.000; -527.000
253.925; -140.000; -586.000; -591.000
254.067; -217.900; -744.000; -667.000
254.209;  -28.700; -391.000; -259.000
254.351; -243.800; -865.000; -883.000
254.493; -113.500; -441.000; -417.000
254.635; -233.100; -936.000; -818.000
254.777; -158.400; -752.000; -687.000
254.918; -137.900; -512.000; -430.000
255.060;  -91.300; -551.000; -395.000
255.202; -115.800; -473.000; -261.000
255.344; -130.100; -658.000; -455.000
255.486; -152.700; -471.000; -406.000
255.628; -184.500; -780.000; -781.000
255.770; -184.700; -676.000; -536.000
255.912; -113.000; -559.000; -468.000
256.053; -168.200; -730.000; -508.000
256.195;  346.300; 1008.000;  903.000
256.337; -168.300; -861.000; -595.000
256.479;  139.700;  532.000;  416.000
256.621;  -95.300; -394.000; -212.000
256.762; -181.500; -789.000; -742.000
256.904;  120.500;  485.000;  487.000
257.046;  -87.700; -381.000; -271.000
257.188;  -82.500; -351.000; -264.000
257.329; -144.800; -525.000; -464.000
257.471; -242.400; -939.000; -807.000
257.613; -105.100; -584.000; -498.000
257.755; -283.800;-1073.000; -982.000
257.896;   87.100;  286.000;  392.000
258.038; -123.200; -403.000; -352.000
258.180;  -41.500; -354.000; -279.000
258.321; -159.000; -581.000; -457.000
258.463;   43.300;  -71.000;  133.000
258.605; -138.200; -562.000; -570.000
258.746; -179.200; -886.000; -772.000
258.888; -301.200;-1026.000;-1020.000
259.029;   69.200;  121.000;   -8.000
259.171; -170.500; -614.000; -550.000
259.313;   15.700;  -49.000;  -47.000
259.454; -157.700; -536.000; -414.000
259.596;  -60.600; -483.000; -390.000
259.737; -142.200; -590.000; -474.000
259.879;  105.900;  217.000;  311.000
260.020;  207.600;  901.000;  636.000
260.162;  -29.300; -146.000; -253.000
260.303; -207.000; -768.000; -687.000
260.445; -145.800; -609.000; -613.000
260.586;   90.300;  392.000;  157.000
260.728;  -63.900; -360.000; -248.000
260.869;  -98.800; -350.000; -343.000
261.011;  197.600;  706.000;  537.000
261.152; -106.500; -479.000; -319.000
261.293; -157.800; -576.000; -595.000
261.435;  -55.900; -219.000; -184.000
261.576;  -61.800; -455.000; -325.000
261.718;  164.300;  420.000;  470.000
261.859; -270.900; -940.000; -949.000
262.000; -257.100; -951.000;-1016.000
262.142;  -10.700;  -52.000;  -60.000
262.283; -195.900; -808.000; -691.000
262.424; -134.400; -666.000; -625.000
262.566; -302.900;-1161.000; -983.000
262.707; -208.800; -840.000; -830.000
262.848; -243.500; -769.000; -726.000
262.990;  -61.300; -362.000; -345.000
263.131;  192.000;  650.000;  681.000
263.272;    8.000;  -61.000;  -41.000
263.413; -156.500; -589.000; -561.000
263.555; -108.700; -669.000; -143.000
263.696; -157.200; -550.000; -641.000
263.837; -107.800; -449.000; -551.000
263.978;  -13.200;   -5.000;  -77.000
264.119;  -55.800; -283.000; -264.000
264.261; -228.000; -847.000; -630.000
264.402;   18.300;   33.000;   40.000
264.543; -125.100; -509.000; -524.000
264.684;    0.600;   61.000;  -50.000
264.825; -110.700; -816.000; -538.000
264.966;   29.100;  -84.000;  -67.000
265.107; -211.900; -646.000; -670.000
265.248; -222.500; -825.000; -812.000
265.390;   14.800;  152.000;   -9.000
265.531;  -49.600; -238.000; -107.000
265.672; -154.400; -557.000; -630.000
265.813;  143.400;  563.000;  439.000
265.954; -255.300; -959.000; -940.000
266.095;   -4.700; -372.000; -322.000
266.236; -181.800; -686.000; -548.000
266.377;  -66.200; -243.000; -297.000
266.518; -115.600; -619.000; -547.000
266.659;  110.400;  170.000;  268.000
266.800;   21.000;   83.000;   85.000
266.941; -132.000; -487.000; -478.000
267.082;   78.300;  354.000;   99.000
267.223;  -71.300; -344.000; -273.000
267.364; -216.400; -892.000; -686.000
267.504;   25.600;    3.000;  135.000
267.645;   25.500;  160.000;   67.000
267.786;  -40.300; -147.000;  -86.000
267.927; -114.400; -473.000; -379.000
268.068;  -28.100; -186.000;  -61.000
268.209;  -90.900; -175.000; -413.000
268.350; -109.300; -388.000; -532.000
268.490; -176.900; -648.000; -521.000
268.631;   84.800;  127.000;  225.000
268.772; -195.100; -874.000; -647.000
268.913;  -81.500; -328.000; -476.000
269.054;   -7.700; -117.000;   12.000
269.194;  -52.600; -418.000; -402.000
269.335; -306.600;-1137.000;-1074.000
269.476;  -19.600;   33.000;  -35.000
269.617;  -75.100; -347.000; -392.000
269.757; -162.900; -713.000; -646.000
269.898; -203.800; -856.000; -613.000
270.039; -104.700; -415.000; -405.000
270.180; -263.500; -952.000; -816.000
270.320;   -9.000; -190.000; -250.000
270.461;  -66.000; -277.000; -249.000
270.602;  -21.400; -186.000; -156.000
270.742; -238.600; -868.000; -943.000
270.883;  -99.000; -442.000; -390.000
271.023;  -58.400; -358.000; -357.000
271.164; -128.500; -607.000; -528.000
271.305; -181.400; -666.000; -654.000
271.445; -136.400; -722.000; -683.000
271.586; -135.200; -462.000; -283.000
271.726;  -67.400; -397.000; -322.000
271.867; -111.600; -594.000; -534.000
272.008;  344.100; -473.000; -285.000
272.148;  267.300;  462.000;  468.000
272.289;   57.200; -113.000; -181.000
272.429;   67.100;   19.000;  185.000
272.570; -172.000; -633.000; -737.000
272.710; -164.300; -825.000; -775.000
272.851;  -12.800;  113.000; -130.000
272.991; -323.000;-1173.000;-1077.000
273.131;  -94.900; -419.000; -459.000
273.272; -184.000; -683.000; -723.000
273.412;   36.500; -143.000;  -31.000
273.553;  -97.300; -488.000; -507.000
273.693;  294.200;  913.000;  858.000
273.834; -170.600; -894.000; -692.000
273.974; -142.500; -664.000; -615.000
274.114; -175.400; -772.000; -560.000
274.255;  187.800;  414.000;  373.000
274.395;   46.600; -180.000; -125.000
274.535;  122.500;  199.000;  350.000
274.676;   85.500;  225.000;   94.000
274.816;   57.900;  110.000;   34.000
274.956; -160.000; -624.000; -690.000
275.097; -115.800;-1014.000; -922.000
275.237; -197.300; -913.000; -803.000
275.377; -175.700; -778.000; -689.000
275.517; -276.600; -878.000; -937.000
275.658;  -98.400; -590.000; -555.000
275.798; -146.300; -606.000; -413.000
275.938;   79.800;  215.000;  323.000
276.078; -144.400; -626.000; -395.000
276.218;   32.500;   99.000;  104.000
276.359; -246.800;-1026.000;-1024.000
276.499; -127.400; -605.000; -446.000
276.639;  -10.600; -305.000; -151.000
276.779;  -71.300; -475.000; -357.000
276.919; -188.700; -783.000; -624.000
277.059;    9.100; -261.000; -212.000
277.199;  -65.000; -357.000; -259.000
277.340;  152.100;  287.000;  175.000
277.480; -221.100; -840.000; -693.000
277.620;  103.200;  192.000;   16.000
277.760; -378.100;-1533.000;-1294.000
277.900;   53.400;  113.000;   33.000
278.040;   80.100;  137.000;  159.000
278.180;  100.800;  270.000;  170.000
278.320;   30.200;   21.000;   56.000
278.460; -108.000; -443.000; -469.000
278.600; -161.800; -708.000; -598.000
278.740;  144.200;  448.000;  224.000
278.880; -113.600; -768.000; -791.000
279.020;   54.700; -194.000; -144.000
279.160; -167.600; -672.000; -595.000
279.300; -217.100; -926.000; -873.000
279.440; -176.200; -709.000; -622.000
279.579;  -55.300;-1014.000; -929.000
279.719;  -70.700; -410.000; -394.000
279.859;  151.800;   -4.000;   41.000
279.999;   77.700; -208.000;  101.000
280.139;  -10.000; -435.000; -387.000
280.279; -124.500; -708.000; -745.000
280.419;    5.500; -229.000; -147.000
280.559;  -47.200; -259.000; -180.000
280.698; -159.500; -790.000; -639.000
280.838; -182.000; -778.000; -800.000
280.978; -167.600; -846.000; -790.000
281.118; -197.500; -811.000; -704.000
281.257;   52.400;   24.000;    6.000
281.397; -215.000;-1094.000; -960.000
281.537; -159.200; -599.000; -712.000
281.677;  -10.000; -150.000; -101.000
281.816; -162.300; -700.000; -630.000
281.956;  -56.600; -193.000; -257.000
282.096;  -91.800; -539.000; -396.000
282.235; -215.800; -672.000; -638.000
282.375;  -25.600; -243.000;  -98.000
282.515; -170.900; -715.000; -707.000
282.654;   55.400;   29.000;  106.000
282.794;  111.800;  388.000;  244.000
282.934;  -73.700; -530.000; -491.000
283.073; -247.000;-1030.000; -857.000
283.213;  -71.400; -460.000; -467.000
283.353;  -59.300; -408.000; -349.000
283.492;  -24.500; -264.000; -296.000
283.632;  -58.200; -254.000; -168.000
283.771; -176.300; -859.000; -730.000
283.911;  -67.100; -369.000; -260.000
284.050; -190.900; -794.000; -748.000
284.190; -334.200;-1229.000;-1096.000
284.329; -257.300;-1055.000; -964.000
284.469; -125.000; -516.000; -591.000
284.608;  -99.000; -559.000; -598.000
284.748; -127.600; -614.000; -570.000
284.887;   32.600;  -87.000;  -20.000
285.027; -240.600; -844.000; -892.000
285.166;  -34.900; -192.000; -249.000
285.306;   56.300; -116.000;  -33.000
285.445;  -46.500; -229.000; -343.000
285.584; -153.700; -630.000; -494.000
285.724;  -79.700; -282.000; -322.000
285.863; -233.800; -857.000; -507.000
286.002;  -82.700; -366.000; -276.000
286.142; -173.200; -715.000; -622.000
286.281; -129.300; -525.000; -493.000
286.420; -124.200; -554.000; -417.000
286.560;  226.600;  653.000;  623.000
286.699; -254.800; -958.000; -912.000
286.838; -133.500; -590.000; -591.000
286.978; -133.400; -533.000; -537.000
287.117; -277.400;-1085.000; -950.000
287.256;  -37.700; -228.000; -211.000
287.395;  -72.500; -197.000; -378.000
287.535;  -71.700; -370.000; -298.000
287.674; -122.300; -509.000; -484.000
287.813;  160.100;  661.000;  533.000
287.952; -215.500;-1010.000; -871.000
288.091; -272.600;-1049.000; -915.000
288.231;   85.400;   13.000;   15.000
288.370; -336.100;-1217.000;-1200.000
288.509; -140.400; -728.000; -645.000
288.648; -155.800; -770.000; -548.000
288.787;  -39.500; -243.000;  -87.000
288.926; -120.700; -454.000; -475.000
289.065;  265.900;  859.000;  672.000
289.204;  -59.500; -377.000; -217.000
289.344; -130.400; -791.000; -690.000
289.483;   58.500;  416.000;  304.000
289.622;  -19.900; -291.000; -149.000
289.761;   15.500; -309.000; -166.000
289.900; -197.600; -785.000; -626.000
290.039;    2.200;  -12.000;  -95.000
290.178;  -66.100; -274.000; -180.000
290.317; -122.200; -618.000; -479.000
290.456;  -82.200; -463.000; -451.000
290.595; -273.100; -961.000; -833.000
290.734; -256.700; -904.000; -891.000
290.873;  -90.400; -456.000; -420.000
291.011; -195.900; -833.000; -843.000
291.150; -190.900; -770.000; -682.000
291.289;   11.400; -343.000; -110.000
291.428; -184.600; -599.000; -480.000
291.567;  -66.500; -370.000; -442.000
291.706;   33.000;  109.000;  154.000
291.845; -130.900; -597.000; -505.000
291.984; -324.100;-1234.000;-1061.000
292.122;  176.200;  602.000;  582.000
292.261;  100.200;  620.000;  463.000
292.400;   48.400; -144.000;  211.000
292.539; -241.800; -959.000; -813.000
292.678;  -33.500; -325.000; -300.000
292.816; -302.500;-1136.000; -965.000
292.955; -157.600; -844.000; -684.000
293.094;  -11.500; -173.000; -337.000
293.233;  -84.900; -556.000; -400.000
293.371;  -38.800; -225.000;  -84.000
293.510; -196.900; -866.000; -780.000
293.649; -227.400; -959.000; -924.000
293.787; -136.400;-1083.000;-1012.000
293.926;   14.000; -113.000;  -32.000
294.065;  -15.500; -379.000; -290.000
294.203;  112.400;  298.000;  406.000
294.342;   97.900;   74.000;  156.000
294.481;11823.900;51180.000; -836.000
294.619;  -33.100; -425.000; -582.000
294.758; -283.800;-1230.000;-1137.000
294.896;  169.800; -125.000;    5.000
295.035; -214.600;-1040.000;-1006.000
295.174; -207.900;-1082.000; -954.000
295.312;  -72.300; -323.000; -203.000
295.451;   15.200; -307.000; -428.000
295.589;  -70.400; -389.000; -518.000
295.728;   83.400; -292.000; -165.000
295.866;   23.700;  -36.000;  -51.000
296.005;  -74.500; -584.000; -341.000
296.143;  -86.000; -558.000; -596.000
296.282; -189.500; -957.000; -881.000
296.420; -113.400; -657.000; -557.000
296.559; -167.500; -892.000; -633.000
296.697;   46.300; -847.000; -665.000
296.835;  113.300;-1141.000;-1002.000
296.974;  141.700;  -23.000;   39.000
297.112;   29.200; -443.000; -504.000
297.251; -117.800; -815.000; -755.000
297.389;  181.800; -576.000; -438.000
297.527;  121.400; -145.000;  -83.000
297.666;  -87.000; -486.000; -438.000
297.804;  -75.100; -404.000; -264.000
297.942;   18.600; -136.000; -161.000
298.081;   37.700; -183.000;   63.000
298.219;  167.000;  -17.000;  -19.000
298.357;   83.500; -144.000;  -71.000
298.495;   54.700; -810.000; -812.000
298.634;  196.100;  245.000;  219.000
298.772;  164.200; -220.000; -338.000
298.910;  -66.900; -309.000; -182.000
299.048;   -3.600; -130.000; -153.000
299.187;  -30.600; -350.000; -250.000
299.325;   49.300;   52.000;  122.000
299.463;  125.700; -389.000; -299.000
299.601;  239.800; -327.000; -271.000
299.739; -198.000; -908.000; -883.000
299.877; -120.200; -791.000; -703.000
300.016; -117.800;-1095.000; -935.000
300.154;  340.400;  -19.000; -161.000
300.292;  119.700; -428.000; -348.000
300.430;   87.800; -408.000; -291.000
300.568; -200.000; -940.000; -874.000
300.706;  -68.900; -366.000; -469.000
300.844; -145.700;-1108.000; -979.000
300.982;  239.700;  246.000;  282.000
301.120; -224.300; -965.000; -866.000
301.258; -112.200; -812.000; -705.000
301.396;   54.100;  104.000;  -41.000
301.534;  158.500; -218.000; -293.000
301.672;   34.700; -664.000; -521.000
301.810;   57.400; -613.000; -545.000
301.948;  263.400;   53.000;  149.000
302.086; 1053.200; -250.000;  -32.000
302.224; 1691.200; -610.000; -585.000
302.362;   69.500; -558.000; -622.000
302.500;  -19.100; -923.000; -893.000
302.638;  231.300;  128.000;  245.000
302.776;   32.100; -352.000; -408.000
302.913;  133.400;  447.000;  236.000
303.051;   20.000;  -86.000;  -23.000
303.189;  136.900;   90.000;  118.000
303.327;  -61.100; -341.000; -256.000
303.465; -133.700; -832.000; -588.000
303.603; -150.800; -805.000; -604.000
303.740;  217.300;  417.000;  241.000
303.878;   59.300; -800.000; -759.000
304.016; -137.000; -915.000; -790.000
304.154; -242.400;-1123.000;-1152.000
304.291;  -26.800; -505.000; -554.000
304.429;   63.600;  102.000;   74.000
304.567; -231.500; -908.000; -893.000
304.705;  -79.500; -408.000; -515.000
304.842;  191.000; -616.000; -540.000
304.980;  147.900;  215.000;   35.000
305.118;  130.600; -367.000; -365.000
305.255; -113.200; -945.000; -927.000
305.393;  137.200;  178.000;  239.000
305.531; -178.700;-1173.000; -956.000
305.668; -102.200; -663.000; -582.000
305.806;  212.200; -358.000; -439.000
305.943;  187.200; -629.000; -637.000
306.081;  131.900; -378.000; -267.000
306.219; -169.500; -863.000; -748.000
306.356;   55.700;  158.000;   27.000
306.494;  290.200;  981.000;  761.000
306.631;   50.500;  -11.000;  -55.000
306.769;   63.100; -613.000; -485.000
306.906;  -12.400; -284.000; -258.000
307.044; -108.500; -473.000; -488.000
307.181;  -94.300; -410.000; -332.000
307.319;  148.000;  112.000;   87.000
307.456; -305.600;-1191.000;-1153.000
307.594; -170.800; -980.000; -727.000
307.731;   11.500; -371.000; -164.000
307.868;   32.100;  -15.000;   20.000
308.006; -228.000; -961.000; -847.000
308.143;  -69.200; -618.000; -330.000
308.281;  423.400;  -37.000; -254.000
308.418;   36.000; -748.000; -640.000
308.555;  -61.900; -400.000; -250.000
308.693;  -96.700; -577.000; -573.000
308.830; -189.200; -712.000; -657.000
308.967;   28.200; -215.000;  -95.000
309.105;  -20.900; -507.000; -396.000
309.242;  133.200; -468.000; -367.000
309.379;  741.500; -577.000; -655.000
309.517;  -63.000; -936.000; -948.000
309.654; -187.800; -910.000; -734.000
309.791;  -98.900; -662.000; -580.000
309.928; -191.400; -977.000; -914.000
310.065;  419.700;  819.000;  697.000
310.203;   -9.200; -825.000; -850.000
310.340;   20.100; -465.000; -321.000
310.477; -121.500; -412.000; -516.000
310.614;  -97.200; -383.000; -473.000
310.751;  -85.500; -427.000; -518.000
310.889;   24.000;    1.000;   11.000
311.026; -274.000;-1161.000; -939.000
311.163;  -46.000; -386.000; -380.000
311.300; -106.900; -512.000; -479.000
311.437; -115.700; -658.000; -619.000
311.574; -277.500;-1226.000; -985.000
311.711; -116.400; -595.000; -433.000
311.848;  -37.600; -380.000; -388.000
311.985;   66.600;  270.000;   93.000
312.122; -197.200; -932.000; -762.000
312.259; -211.900; -941.000; -994.000
312.396; -117.700; -508.000; -551.000
312.533; -133.200; -812.000; -790.000
312.670; -241.400;-1070.000; -898.000
312.807;   -7.100; -352.000; -367.000
312.944; -155.800; -513.000; -611.000
313.081;   -8.000; -150.000; -415.000
313.218; -176.500;-1111.000; -867.000
313.355;   62.600; -531.000; -449.000
313.492;   15.000; -455.000; -292.000
313.629;  295.100;  815.000;  735.000
313.766; -308.000;-1176.000;-1008.000
313.902;    8.800; -186.000;   21.000
314.039;  -61.400; -372.000; -289.000
314.176;  102.000;  286.000;  192.000
314.313; -142.100; -569.000; -473.000
314.450; -102.600; -788.000; -684.000
314.587; -106.700; -468.000; -480.000
314.723;   39.000;  -78.000;  130.000
314.860;   90.900;  318.000;  332.000
314.997;  103.400;  223.000;  142.000
315.134;  -44.000; -385.000; -368.000
315.270;  -12.000; -480.000; -496.000
315.407; -266.300;-1094.000; -967.000
315.544;  -65.500; -657.000; -538.000
315.681;  -67.500; -681.000; -565.000
315.817;   96.100; -133.000; -176.000
315.954;   21.400; -613.000; -392.000
316.091; -205.100;-1045.000;-1023.000
316.227;  -13.000;  -71.000; -179.000
316.364;   67.700;   23.000;    6.000
316.500;  -52.400; -113.000; -300.000
316.637;  -50.500; -181.000; -302.000
316.774; -131.800; -625.000; -358.000
316.910; -171.100; -598.000; -629.000
317.047;  -98.500; -487.000; -351.000
317.183;  -50.100; -435.000; -566.000
317.320;   -6.500; -367.000; -321.000
317.456;  -95.300; -733.000; -805.000
317.593; -129.900; -598.000; -641.000
317.729;   41.600;  168.000;  -67.000
317.866; -352.500;-1434.000;-1285.000
318.002; -135.000; -708.000; -948.000
318.139; -148.800; -883.000; -867.000
318.275; -197.800;-1003.000; -738.000
318.412;  -94.500; -517.000; -336.000
318.548;  -27.600; -751.000; -720.000
318.685; -141.900; -985.000; -888.000
318.821; -146.100; -762.000; -735.000
318.957;   40.300;   34.000;  -23.000
319.094;  140.100;  297.000;  154.000
319.230; -112.900; -756.000; -742.000
319.367;  235.600; -471.000; -520.000
319.503;  123.500; -538.000; -436.000
319.639; -166.400; -877.000; -793.000
319.775; -107.300; -750.000; -685.000
319.912;  -59.400; -424.000; -519.000
320.048; -183.600;-1184.000;-1184.000
320.184;  173.800;   59.000;   70.000
320.321;  -87.000; -497.000; -467.000
320.457;  173.300;  475.000;  662.000
320.593;  -83.800; -375.000; -382.000
320.729; -153.600; -732.000; -734.000
320.866; -116.800; -577.000; -635.000
321.002; -130.200; -759.000; -809.000
321.138;    9.600; -135.000; -211.000
321.274;  168.000; -148.000; -115.000
321.410;  -56.500; -585.000; -353.000
321.546;  -52.900;-1011.000; -911.000
321.683;  145.900;  400.000;  185.000
321.819;   31.700;  -48.000; -117.000
321.955; -173.900; -743.000; -722.000
322.091;  -34.700; -585.000; -540.000
322.227;    2.600; -382.000; -202.000
322.363;    0.800; -320.000; -215.000
322.499;  -45.600; -343.000; -331.000
322.635;  347.800;  636.000;  443.000
322.771;  101.500; -139.000;   12.000
322.907;  217.800;  129.000;  327.000
323.043;   -2.200; -115.000; -206.000
323.179;  -38.000; -394.000; -363.000
323.315;   42.800; -401.000; -371.000
323.451;  252.000; -328.000; -236.000
323.587;  138.800;  -60.000;  -77.000
323.723;   18.100; -682.000; -601.000
323.859;    9.700; -258.000;  -76.000
323.995;  -34.700; -467.000; -409.000
324.131; -194.000; -967.000; -892.000
324.267;  -48.100; -254.000; -276.000
324.402; -227.700; -960.000; -983.000
324.538;  -11.200; -279.000; -104.000
324.674;   51.500;  164.000;   77.000
324.810;  301.300;  226.000;  308.000
324.946;   66.000; -810.000; -658.000
325.082; -100.700; -568.000; -475.000
325.217;    5.500;  -62.000;   16.000
325.353; -145.000; -764.000; -659.000
325.489; -108.300; -540.000; -506.000
325.625;  -93.900; -579.000; -525.000
325.760;  178.500;  517.000;  376.000
325.896;  -18.700; -515.000; -702.000
326.032;  -48.200; -403.000; -352.000
326.168;  -62.400; -462.000; -369.000
326.303;  -97.600; -352.000; -461.000
326.439;   11.900; -336.000; -276.000
326.575;   13.400; -190.000;  -29.000
326.710;   54.800; -156.000;  -30.000
326.846;   -8.300;  146.000;  103.000
326.982; -163.800; -530.000; -548.000
327.117; -117.500; -481.000; -442.000
327.253; -123.300; -745.000; -742.000
327.388; -232.600;-1137.000;-1153.000
327.524;  -42.100; -811.000; -578.000
327.659;  -11.800;  -58.000;  -22.000
327.795;  -23.300;   69.000;   45.000
327.931; -145.200; -723.000; -499.000
328.066;  -35.900; -417.000; -276.000
328.202;   10.800;   12.000; -129.000
328.337;  258.500;  957.000;  713.000
328.473;   10.400;  -12.000;  -74.000
328.608;   -1.500; -256.000; -267.000
328.743; -109.500; -799.000; -664.000
328.879;  125.100;  214.000;  114.000
329.014;  -94.300; -102.000; -122.000
329.150; -127.400; -358.000; -483.000
329.285; -112.900; -465.000; -466.000
329.421;  -24.200; -548.000; -246.000
329.556;    7.000;  -36.000;   85.000
329.691; -161.700; -633.000; -615.000
329.827; -135.800; -626.000; -480.000
329.962;  -43.500;  131.000; -301.000
330.097; -144.900; -673.000; -585.000
330.233;  -44.500; -410.000; -223.000
330.368; -214.200; -839.000; -628.000
330.503;   27.300;    3.000;   98.000
330.638;   43.100;  -93.000; -125.000
330.774;  -87.600; -609.000; -530.000
330.909;  -31.500; -434.000; -244.000
331.044; -131.200; -714.000; -708.000
331.179; -301.900;-1217.000;-1109.000
331.315;   87.000;   77.000;   20.000
331.450;   89.100;  157.000;  285.000
331.585; -129.600; -805.000; -706.000
331.720; -117.800; -510.000; -460.000
331.855;   33.800;  -35.000; -102.000
331.990;  482.000;   62.000;  138.000
332.126;  287.400; -110.000;   71.000
332.261;   18.400; -379.000; -265.000
332.396;   38.000; -135.000; -242.000
332.531; -124.400;-1074.000;-1031.000
332.666;  117.300; -519.000; -363.000
332.801; -162.200; -726.000; -807.000
332.936;   15.200; -192.000; -122.000
333.071; -263.400; -870.000; -817.000
333.206;  107.000;  307.000;  379.000
333.341;  118.900;  344.000;  418.000
333.476; -142.900; -627.000; -623.000
333.611;  -40.600; -251.000; -173.000
333.746;  -51.500; -381.000; -464.000
333.881; -177.200; -973.000; -935.000
334.016; -187.200; -936.000; -917.000
334.151; -212.900; -746.000; -702.000
334.286;  123.600;  152.000;  186.000
334.421;    8.100; -125.000; -178.000
334.556; -118.200; -611.000; -567.000
334.690; -163.000; -631.000; -577.000
334.825;  189.600;  381.000;   83.000
334.960; -107.800; -285.000; -413.000
335.095;   92.500;  135.000;  -91.000
335.230; -164.000; -722.000; -738.000
335.365; -235.100;-1084.000; -990.000
335.499; -264.600;-1108.000;-1037.000
335.634;  118.800;    9.000;  534.000
335.769; -186.600; -755.000; -720.000
335.904;  -75.900; -603.000; -561.000
336.038; -100.500; -735.000; -657.000
336.173; -225.500;-1206.000;-1194.000
336.308;   52.900; -116.000; -189.000
336.443;   62.000; -544.000; -634.000
336.577; -116.600; -936.000; -787.000
336.712;  148.700;   -4.000;  -12.000
336.847;  -39.300; -724.000; -607.000
336.981;  161.500; -272.000; -208.000
337.116;  552.400;  615.000;  501.000
337.250;  281.900; -434.000; -421.000
337.385;  492.300; -297.000; -208.000
337.520;  217.400; -632.000; -603.000
337.654;  -18.800; -215.000; -126.000
337.789; -213.800; -989.000; -933.000
337.923;  -16.600; -104.000; -205.000
338.058; -113.000; -673.000; -738.000
338.192;  -57.200; -611.000; -488.000
338.327;   63.600;  -18.000; -155.000
338.461;  -98.700; -299.000; -469.000
338.596; -142.500; -780.000; -638.000
338.730; -145.300; -767.000; -803.000
338.865;  217.200;  -46.000; -140.000
338.999;  -85.300; -846.000; -702.000
339.134;  -54.000; -634.000; -536.000
339.268;   45.200; -741.000; -603.000
339.403;  718.200; -740.000; -775.000
339.537;  253.300; -894.000; -820.000
339.671; -178.900; -829.000; -813.000
339.806;  -85.500; -556.000; -512.000
339.940;   79.600; -261.000; -235.000
340.074; -169.100; -685.000; -510.000
340.209;  -16.300; -351.000; -230.000
340.343; -141.400; -517.000; -573.000
340.477;  353.500;  998.000; 1036.000
340.612;  -63.500;-1033.000; -900.000
340.746;  299.000; -199.000; -243.000
340.880; -118.800; -924.000; -785.000
341.014;    9.500;  -45.000; -154.000
341.149; -181.800; -756.000; -718.000
341.283; -164.900; -839.000; -754.000
341.417; -151.700;-1124.000; -938.000
341.551;  270.800; -768.000; -708.000
341.685;  -69.100; -633.000; -611.000
341.820;  -64.200; -562.000; -493.000
341.954;  -54.200; -218.000; -349.000
342.088; -236.200;-1102.000;-1019.000
342.222;  136.200;  565.000;  618.000
342.356;  -77.000; -395.000; -335.000
342.490; -166.100; -880.000; -841.000
342.624;  -55.200; -339.000; -242.000
342.758;   14.300; -364.000; -312.000
342.892; -127.600; -710.000; -585.000
343.026;  -22.800;  -58.000; -116.000
343.160;  -54.100; -426.000; -376.000
343.294; -129.600; -474.000; -337.000
343.428;    5.900; -488.000; -448.000
343.562;    7.200; -172.000;  -23.000
343.696;   -2.700; -385.000; -314.000
343.830;  -43.500; -362.000; -356.000
343.964;   43.100; -231.000; -168.000
344.098; 1672.200;  199.000;   70.000
344.232; 1381.400; -266.000; -127.000
344.366;  174.800; -567.000; -453.000
344.500;  165.100; -665.000; -744.000
344.634;   77.400; -324.000; -164.000
344.768;   28.000; -531.000; -341.000
344.902;  110.600;  278.000;  256.000
345.035; -111.600; -556.000; -496.000
345.169; -227.600; -933.000; -656.000
345.303;  -30.100; -308.000; -482.000
345.437; -114.300; -826.000; -717.000
345.571;  -87.500; -675.000; -594.000
345.704;  -82.500; -309.000; -532.000
345.838;   24.800; -331.000; -284.000
345.972;  -50.600; -543.000; -495.000
346.106;  378.500; -179.000; -190.000
346.239;  829.000; -312.000; -243.000
346.373;   60.800; -343.000; -302.000
346.507; -230.900; -950.000; -962.000
346.640;  258.000;  -30.000;   13.000
346.774;  -33.600; -650.000; -797.000
346.908;   24.400; -138.000;  -11.000
347.041; -159.900; -646.000; -593.000
347.175;   66.600;  259.000;   27.000
347.309; -109.300; -698.000; -628.000
347.442; -151.000; -883.000; -732.000
347.576;  515.000;  670.000;  668.000
347.709;  396.500; -123.000;  -52.000
347.843; -172.500; -933.000; -825.000
347.976;  110.700;  235.000;  294.000
348.110; -319.400;-1268.000;-1186.000
348.243; -136.400; -679.000; -772.000
348.377;   47.700;  -26.000;   60.000
348.510;  147.600;  403.000;  540.000
348.644;  -41.000;  -37.000; -159.000
348.777;   62.400;  180.000;  191.000
348.911;  -53.700; -142.000; -112.000
349.044;  368.100;  471.000;  448.000
349.178;  290.400;-1069.000;-1006.000
349.311;  294.100;  141.000;  255.000
349.444;   17.800; -927.000; -813.000
349.578;   -2.300; -347.000; -200.000
349.711; -172.000; -959.000; -862.000
349.845;   14.800; -661.000; -591.000
349.978; -266.500;-1224.000;-1137.000
350.111; -127.700; -546.000; -612.000
350.244; -106.500; -596.000; -700.000
350.378;   61.400; -392.000; -393.000
350.511;  -46.600; -393.000; -426.000
350.644; -177.100; -808.000; -806.000
350.778;   57.900;  168.000;  104.000
350.911;   80.200;  134.000;  140.000
351.044; -120.900; -685.000; -615.000
351.177;  -21.000; -321.000; -281.000
351.310;   27.600;    3.000; -131.000
351.444; -143.300; -888.000; -788.000
351.577;  264.000;  140.000;   90.000
351.710;  241.600;  593.000;  417.000
351.843;  -30.300; -165.000;  -77.000
351.976;   80.400;  149.000;  -79.000
352.109; -139.200; -621.000; -612.000
352.242;  -27.300; -464.000; -419.000
352.376;  -67.300; -580.000; -636.000
352.509;  295.200; -437.000; -356.000
352.642;   14.100; -654.000; -604.000
352.775;  156.700; -141.000;  -98.000
352.908; -181.600; -933.000; -904.000
353.041; -173.400; -814.000; -824.000
353.174; -103.900; -551.000; -424.000
353.307;  -96.800; -753.000; -764.000
353.440;  208.500;  541.000;  453.000
353.573; -167.900; -957.000;-1008.000
353.706;  -74.700; -384.000; -558.000
353.839;   -3.500; -264.000; -220.000
353.971; -139.000; -657.000; -512.000
354.104; -144.200; -896.000; -835.000
354.237;  -45.600; -627.000; -662.000
354.370; -124.100; -846.000; -879.000
354.503; -337.000;-1231.000;-1308.000
354.636;  -34.500; -529.000; -348.000
354.769; -224.800; -937.000; -860.000
354.902;   17.100; -230.000; -139.000
355.034;  -17.400; -164.000; -220.000
355.167;   20.100; -262.000; -162.000
355.300; -131.700;-1061.000; -880.000
355.433; 1944.700;  -71.000;  -14.000
355.565; 2904.400; -402.000; -384.000
355.698;  753.300; -356.000; -296.000
355.831;    5.600; -882.000; -801.000
355.964;  196.000; -285.000; -170.000
356.096; -163.800; -856.000; -843.000
356.229;   40.500; -523.000; -530.000
356.362;  629.900; -373.000; -266.000
356.494; 1211.300; -229.000; -162.000
356.627;  913.900;  269.000;  377.000
356.760; 1307.500;  120.000;   53.000
356.892; 1849.100; -286.000; -601.000
357.025; 1258.600;  403.000;  389.000
357.157; 1119.300; -167.000; -179.000
357.290; 1295.600; -856.000; -713.000
357.423;  408.000; -667.000; -556.000
357.555;  229.600; -217.000; -228.000
357.688;  230.700; -483.000; -364.000
357.820;  764.800; -870.000; -877.000
357.953; 6428.700; -563.000; -589.000
358.085; 1397.400; -632.000; -612.000
358.218; 2006.200;-1131.000; -932.000
358.350;  419.400;  -58.000;  312.000
358.483; -200.700;-1300.000;-1187.000
358.615;   -6.900;-1182.000;-1078.000
358.747; -105.500;-1187.000;-1058.000
358.880;   96.500; -810.000; -744.000
359.012;   27.700; -376.000; -202.000
359.145;   -8.200; -480.000; -511.000
359.277;  125.700; -962.000; -913.000
359.409; 5340.600;  536.000;  231.000
359.542; 1314.600; -738.000; -688.000
359.674;  185.900;   46.000;   13.000
359.806;  -74.200; -565.000; -438.000
359.939;  -48.600; -617.000; -516.000
360.071;   -1.800; -583.000; -579.000
360.203;    6.800; -411.000; -364.000
360.335;  151.000;  164.000;  -16.000
360.468;  378.600; -249.000; -307.000
360.600; 4311.300; -547.000; -454.000
360.732; 5346.900; -546.000; -423.000
360.864;  734.300;-1216.000;-1044.000
360.996;  516.800; -516.000; -554.000
361.129;   72.600; -389.000; -598.000
361.261;   98.600;  110.000; -113.000
361.393;  -12.700; -252.000; -214.000
361.525;  103.000;   94.000;  244.000
361.657;  -82.500; -821.000; -703.000
361.789;   80.100; -139.000; -155.000
361.921;  418.400; -642.000; -593.000
362.053;  581.600;  524.000;  541.000
362.185;  126.200;  288.000;   72.000
362.318; -125.800; -709.000; -705.000
362.450;  275.000;  294.000;  444.000
362.582;  196.500; -913.000; -870.000
362.714;  -46.800; -353.000; -332.000
362.846; -133.500; -606.000; -490.000
362.978; -250.900; -941.000; -811.000
363.109;   97.700; -161.000; -260.000
363.241;  833.400; -739.000; -749.000
363.373;  819.100; -649.000; -564.000
363.505; 1338.100; -186.000;  -91.000
363.637;  338.000; -787.000; -601.000
363.769; -212.100;-1067.000;-1080.000
363.901;  -56.200; -596.000; -654.000
364.033; -211.300;-1103.000;-1062.000
364.165;   52.200; -283.000; -283.000
364.296;  172.700; -316.000; -177.000
364.428;  180.100;-1344.000;-1220.000
364.560; -142.300; -679.000; -661.000
364.692;  -68.900; -738.000; -835.000
364.824;  481.600; -588.000; -456.000
364.955;  875.600; -402.000; -564.000
365.087; 1760.700;-1097.000; -852.000
365.219;   95.100; -686.000; -816.000
365.351;  -80.400; -526.000; -572.000
365.482;  172.200;  300.000;  240.000
365.614;  -40.000; -402.000; -314.000
365.746; -132.000; -729.000; -752.000
365.877; -141.200; -706.000; -672.000
366.009;  554.600;  -35.000;  -62.000
366.141; -129.500;-1249.000;-1134.000
366.272; -156.100; -803.000; -719.000
366.404; -161.800;-1005.000; -874.000
366.535;   60.100; -139.000;  -12.000
366.667; -168.400; -644.000; -649.000
366.799;   89.800;  353.000;  203.000
366.930; -214.700; -862.000; -996.000
367.062;  317.400; -639.000; -613.000
367.193;  282.100; -872.000; -842.000
367.325;  -81.100; -580.000; -684.000
367.456;  137.500; -246.000;   31.000
367.588;  345.700; -371.000; -318.000
367.719;  102.700;  -44.000;  -45.000
367.851;   31.800; -222.000; -241.000
367.982;  -73.800; -875.000; -732.000
368.113;  221.600; -475.000; -358.000
368.245; -184.800; -960.000; -841.000
368.376;    4.200; -254.000; -302.000
368.508;  -10.500; -188.000; -263.000
368.639; -242.500;-1166.000;-1034.000
368.770;   -6.000; -670.000; -589.000
368.902;  -60.900; -836.000; -926.000
369.033; -191.300; -906.000; -855.000
369.164;  -41.600; -720.000; -653.000
369.296; -168.400; -452.000; -601.000
369.427;   57.300; -209.000; -144.000
369.558;  -45.100; -593.000; -377.000
369.689; -136.300; -721.000; -569.000
369.821; -217.600; -951.000; -845.000
369.952;    6.700;   42.000; -108.000
370.083;  -61.100; -229.000; -108.000
370.214; -111.700; -735.000; -650.000
370.345;   53.700;   65.000;   81.000
370.477; -122.500; -810.000; -790.000
370.608;  405.200; -328.000; -264.000
370.739;  -71.200;-1233.000;-1292.000
370.870;  -47.900;-1102.000; -923.000
371.001;  175.400; -378.000; -467.000
371.132;  -99.200; -754.000; -735.000
371.263;    2.500;  -42.000; -148.000
371.394; -223.900; -841.000; -748.000
371.525;  128.400;  345.000;  225.000
371.657; -142.000; -808.000; -670.000
371.788;  199.900;  103.000;  199.000
371.919;  353.200; -384.000; -304.000
372.050; 6390.500;  -91.000; -156.000
372.181; 1863.500; -188.000; -294.000
372.311;  675.700;   42.000; -127.000
372.442;   78.700; -457.000; -451.000
372.573;   -1.200; -444.000; -340.000
372.704; -201.100;-1008.000; -980.000
372.835;  198.700; -228.000; -289.000
372.966;  -97.400; -646.000; -554.000
373.097;  -87.000; -575.000; -711.000
373.228;  -37.400; -717.000; -542.000
373.359;  264.900; -824.000; -536.000
373.490; 1679.300; -881.000; -727.000
373.620; 1990.000;-1001.000; -803.000
373.751; 3216.400; -332.000; -396.000
373.882; 1325.500; -663.000; -733.000
374.013;  111.000; -449.000; -262.000
374.143;  -40.900; -581.000; -659.000
374.274; -174.700; -987.000; -908.000
374.405;  352.100; -388.000; -276.000
374.536;  799.100; -526.000; -387.000
374.666; 1958.100; -759.000; -807.000
374.797;  378.400; -817.000; -868.000
374.928; 1508.200; -710.000; -560.000
375.058; 1561.400; -535.000; -500.000
375.189;  195.200;  -59.000;  -93.000
375.320; -186.600; -928.000;-1034.000
375.450;  -33.800; -625.000; -616.000
375.581;  -53.600; -526.000; -436.000
375.712;  -13.100; -574.000; -250.000
375.842;  574.200; -438.000; -415.000
375.973;  350.000; -554.000; -513.000
376.103;  -62.300; -665.000; -648.000
376.234; -111.800; -531.000; -552.000
376.364;  -35.900; -944.000; -867.000
376.495;  661.100;  925.000;  529.000
376.625;   26.300; -472.000; -485.000
376.756;  160.500; -709.000; -678.000
376.886; -133.600;-1178.000;-1026.000
377.017;  162.200;-1048.000;-1061.000
377.147;  682.200; -786.000; -782.000
377.278;  189.400;  174.000;  228.000
377.408; -227.200; -801.000; -815.000
377.538; -163.100; -707.000; -693.000
377.669; -121.500; -537.000; -613.000
377.799; -132.600; -645.000; -635.000
377.929;  -67.500; -610.000; -428.000
378.060; -185.900; -781.000; -847.000
378.190;  -66.000; -726.000; -531.000
378.320;  -68.500; -401.000; -406.000
378.451;    8.200; -131.000;  -22.000
378.581;   36.400;  -67.000; -110.000
378.711;  348.000; 1035.000;  866.000
378.841;   16.100; -533.000; -675.000
378.972; -127.200; -871.000; -751.000
379.102;   19.700; -652.000; -579.000
379.232;   10.500; -126.000;  -73.000
379.362; -165.900;-1001.000; -885.000
379.492;   50.300; -373.000; -424.000
379.623;  275.500;    0.000;  111.000
379.753; -151.700;-1107.000; -974.000
379.883;  417.200;   59.000;  156.000
380.013;   42.500;-1081.000;-1017.000
380.143; -175.700;-1097.000;-1056.000
380.273; -157.000; -985.000; -861.000
380.403;   43.800; -344.000; -257.000
380.533;  -43.700; -651.000; -664.000
380.663;  183.100;  173.000;  128.000
380.793; -177.000;-1027.000;-1074.000
380.923;   14.100; -103.000;  -34.000
381.053; -131.200; -613.000; -623.000
381.183;   12.100; -106.000; -248.000
381.313;   75.900; -656.000; -470.000
381.443;  100.900; -692.000; -473.000
381.573;  402.700; -402.000; -409.000
381.703;  494.400;-1249.000;-1095.000
381.833; -244.000;-1454.000;-1336.000
381.963;  247.200; -134.000;  -87.000
382.093; 2559.200; -925.000; -909.000
382.223;  707.600; -713.000; -602.000
382.353;   -4.400; -801.000; -608.000
382.482;  718.500;-1091.000; -964.000
382.612; 1392.000; -872.000; -644.000
382.742;  773.000; -695.000; -622.000
382.872;  502.400; -565.000; -551.000
383.002;  154.500;  347.000; -132.000
383.131;   26.800; -226.000; -160.000
383.261;  -25.200; -706.000; -768.000
383.391;  593.200; -552.000; -377.000
383.521; 6190.200;  451.000;  263.000
383.650; 1366.200; -947.000; -904.000
383.780;   40.500; -783.000; -656.000
383.910;  314.500;  880.000;  802.000
384.039;   69.800; -794.000; -656.000
384.169;  406.600;-1205.000;-1017.000
384.299;   -4.200; -650.000; -662.000
384.428; -121.800; -764.000; -680.000
384.558;  -25.600; -308.000; -275.000
384.687;  -53.700; -414.000; -334.000
384.817;   94.800;   75.000;   -2.000
384.947;   99.800; -234.000; -141.000
385.076;  595.100;  982.000;  912.000
385.206;  233.200;  369.000;  480.000
385.335;  -39.000; -549.000; -417.000
385.465;  -87.000; -655.000; -663.000
385.594;  279.700;  -53.000;  -44.000
385.724;  775.500; -868.000; -838.000
385.853;  254.600; -296.000; -270.000
385.982; 2463.200; -743.000; -787.000
386.112; 3627.500;-1052.000; -871.000
386.241;  303.700; -307.000; -312.000
386.371;   82.700; -174.000;  -87.000
386.500;   58.600; -825.000; -789.000
386.629;   83.400; -874.000; -817.000
386.759;  188.300;  -43.000;   68.000
386.888;   81.300; -170.000; -250.000
387.017;  -83.500; -648.000; -620.000
387.147;  -99.000; -771.000; -798.000
387.276;   32.200; -410.000; -397.000
387.405;   87.300; -398.000; -342.000
387.535;  -42.300; -452.000; -361.000
387.664;  -77.700; -692.000; -620.000
387.793;  156.400; -198.000; -113.000
387.922;  934.100;  255.000;  200.000
388.052;   89.400; -576.000; -423.000
388.181;   64.100; -342.000; -472.000
388.310;   47.500; -889.000; -710.000
388.439;  -36.200; -749.000; -742.000
388.568;  387.900;  365.000;  244.000
388.697; 1866.300; -756.000; -653.000
388.826;  356.300; -768.000; -666.000
388.956;  149.300; -285.000; -307.000
389.085;  -17.900; -347.000; -287.000
389.214; -160.400; -842.000; -872.000
389.343;  -66.500; -645.000; -413.000
389.472;  889.000;  126.000;  149.000
389.601; 1021.000;   91.000;    0.000
389.730;   61.600; -568.000; -687.000
389.859;  201.100;  226.000;   46.000
389.988;  395.600; -423.000; -408.000
390.117;  286.300; -168.000; -146.000
390.246;   19.500; -331.000; -320.000
390.375;  223.100; -673.000; -626.000
390.504;  -80.200; -703.000; -621.000
390.633; -144.700; -672.000; -726.000
390.761;  -67.900; -732.000; -645.000
390.890;   91.900;   -4.000; -130.000
391.019;  -23.200; -421.000; -441.000
391.148; -193.000; -826.000; -855.000
391.277;  -92.900; -576.000; -493.000
391.406; -121.800; -821.000; -805.000
391.534;  122.100;  574.000; -301.000
391.663;  -85.900; -583.000; -645.000
391.792; -111.900; -673.000; -701.000
391.921;  218.600;   -3.000;   15.000
392.050;  341.600; -287.000; -228.000
392.178;  -82.600;-1206.000;-1061.000
392.307;  296.600; -758.000; -712.000
392.436;  109.800; -427.000; -641.000
392.564;   98.000;  166.000;   -6.000
392.693; -126.500; -860.000; -682.000
392.822;  382.700; -529.000; -534.000
392.950;  170.100; -880.000; -714.000
393.079;  626.900; -188.000; -328.000
393.208;   43.700; -488.000; -511.000
393.336;   31.400; -170.000; -145.000
393.465;  -33.400; -317.000; -199.000
393.593;   93.500;   62.000;   79.000
393.722; -244.300;-1121.000; -916.000
393.850;  -22.600; -188.000;  -61.000
393.979; -222.900; -926.000; -805.000
394.107;  -88.900; -517.000; -537.000
394.236;  -14.200; -570.000; -507.000
394.364;  547.000;  383.000;  206.000
394.493;  833.200; -911.000; -767.000
394.621;   43.400; -955.000; -916.000
394.750; 1458.500; -873.000; -923.000
394.878; 5888.000; -247.000; -149.000
395.007; 7526.100; -721.000; -807.000
395.135;  542.900; -790.000; -721.000
395.263; -124.400;-1038.000;-1040.000
395.392;   59.100;  -25.000; -107.000
395.520; -111.100; -818.000; -679.000
395.648; -125.600; -865.000; -915.000
395.777;   -0.700; -366.000; -405.000
395.905;  -21.100; -449.000; -564.000
396.033;   98.800;  217.000;  172.000
396.162; 1455.000; -399.000; -453.000
396.290; 1183.300;  -17.000;   -2.000
396.418;  261.300; -555.000; -514.000
396.546; -101.500; -571.000; -466.000
396.674; -147.700; -850.000; -878.000
396.803;   96.400;  -72.000;  -23.000
396.931;  240.300; -179.000; -199.000
397.059;  102.400;-1026.000; -989.000
397.187; -147.800;-1026.000; -975.000
397.315; -176.100; -884.000; -649.000
397.443; -115.300; -592.000; -443.000
397.572; -146.700; -578.000; -424.000
397.700;    4.500; -607.000; -614.000
397.828;  124.500;  120.000;  -90.000
397.956;  -16.900; -508.000; -478.000
398.084;  -79.600; -767.000; -626.000
398.212;  134.300;  137.000;  124.000
398.340;   89.800;  -56.000;  159.000
398.468;  118.300; -390.000; -169.000
398.596; -240.600; -993.000; -953.000
398.724; -177.900; -762.000; -767.000
398.852; -276.000;-1024.000; -976.000
398.980;  -45.400; -560.000; -560.000
399.108;  -28.800; -982.000; -735.000
399.236;  129.400;   13.000;    8.000
399.363;  101.700;  222.000;  196.000
399.491;  -63.300; -404.000; -398.000
399.619; -193.900; -829.000; -800.000
399.747; -117.500; -859.000; -771.000
399.875;  222.500;  220.000;  234.000
400.003;  -66.100; -359.000; -284.000
400.130; -118.200; -421.000; -341.000
400.258;   10.600;  -83.000;   38.000
400.386;  -83.500; -352.000; -168.000
400.514;  -32.700; -526.000; -587.000
400.641; -104.000; -928.000; -802.000
400.769; -221.100; -979.000; -888.000
400.897; -153.500; -838.000; -793.000
401.025;   13.500; -166.000; -152.000
401.152;   80.500;  220.000;   38.000
401.280;  -98.600; -430.000; -429.000
401.408; -177.300; -712.000; -576.000
401.535; -137.000; -735.000; -758.000
401.663; -347.300;-1134.000;-1054.000
401.790; -129.300; -514.000; -525.000
401.918;  154.300;  436.000;  405.000
402.046;   25.500;  134.000;  122.000
402.173;   -5.900;  -18.000;    7.000
402.301;  -56.400; -519.000; -397.000
402.428;  142.300;  528.000;  383.000
402.556; -222.900;-1188.000; -913.000
402.683;   -7.200;  -20.000;   -1.000
402.811;   43.100;  -37.000; -206.000
402.938;   45.700;   20.000;   27.000
403.066;  364.400; -574.000; -558.000
403.193;  564.800;  299.000;  239.000
403.321;  464.800; -396.000; -574.000
403.448;  605.800;   83.000;   27.000
403.575;  321.300;  -90.000;  -46.000
403.703; -114.000; -732.000; -557.000
403.830;  -51.200; -531.000; -496.000
403.957; -224.800;-1117.000;-1023.000
404.085;   94.400;  -61.000; -172.000
404.212;  247.000;  -50.000;   63.000
404.339;  562.800; -566.000; -306.000
404.467;11647.300; -612.000; -524.000
404.594; 7103.100; -287.000; -227.000
404.721; 1621.900; -869.000; -764.000
404.848;  239.700; -113.000; -202.000
404.976; -148.400; -856.000; -783.000
405.103;   55.800;  -14.000;  -82.000
405.230;   69.600;  190.000;  226.000
405.357;  123.500;  117.000;   44.000
405.484;  581.200;  -49.000;    5.000
405.612;  133.300; -548.000; -563.000
405.739;  -67.800; -488.000; -243.000
405.866;  266.300;  669.000;  385.000
405.993;  -43.700; -398.000; -102.000
406.120; -208.400; -801.000; -887.000
406.247;  -28.800; -323.000; -342.000
406.374;  904.600;  540.000;  629.000
406.501;  190.800; -632.000; -702.000
406.628; -113.500; -621.000; -589.000
406.755; -127.300; -803.000; -620.000
406.882;    1.500; -228.000; -277.000
407.009; -146.400; -719.000; -628.000
407.136;  170.300; -480.000; -401.000
407.263;  269.500; -939.000; -829.000
407.390;  -93.600; -692.000; -614.000
407.517; -267.900;-1139.000;-1187.000
407.644;  -38.300; -332.000; -256.000
407.771;  -74.900; -249.000; -287.000
407.898;   98.000;  168.000;  328.000
408.025;  -54.300; -421.000; -313.000
408.151;   36.200;   82.000;  153.000
408.278;  -55.800; -267.000; -216.000
408.405; -170.600; -931.000; -899.000
408.532; -117.700; -549.000; -542.000
408.659; -191.600; -677.000; -648.000
408.785; -348.600;-1298.000;-1170.000
408.912;  -49.300; -412.000; -296.000
409.039; -156.500; -610.000; -686.000
409.166; -155.400; -591.000; -555.000
409.292; -127.600; -571.000; -534.000
409.419; -170.600; -665.000; -649.000
409.546; -127.700; -431.000; -192.000
409.672; -118.200; -713.000; -545.000
409.799;   53.100;  -36.000;   34.000
409.926;  -10.900; -180.000; -179.000
410.052; -301.000;-1127.000;-1091.000
410.179;  -55.500; -368.000; -392.000
410.305; -129.200; -375.000; -493.000
410.432;   -8.300; -220.000; -333.000
410.558; -105.500; -305.000; -380.000
410.685; -165.800; -688.000; -431.000
410.812; -144.800; -409.000; -588.000
410.938; -223.800; -964.000; -808.000
411.065; -140.800; -671.000; -645.000
411.191;   32.000; -189.000; -174.000
411.317; -173.300; -823.000; -742.000
411.444;  -43.900; -317.000; -246.000
411.570;  -86.400; -339.000; -294.000
411.697; -192.700; -758.000; -752.000
411.823; -298.100; -989.000; -999.000
411.949;    5.900;  -56.000;   17.000
412.076; -150.100; -539.000; -519.000
412.202; -156.000; -758.000; -757.000
412.329; -185.500; -798.000; -752.000
412.455; -163.500; -821.000; -657.000
412.581;   28.100;  -15.000;  172.000
412.707; -115.700; -540.000; -457.000
412.834;  106.800;  156.000;  219.000
412.960; -119.700; -785.000; -784.000
413.086; -170.700; -743.000; -701.000
413.212;  336.200;  604.000;  578.000
413.339;  -87.400; -685.000; -701.000
413.465;   51.900; -364.000; -310.000
413.591; -159.300; -757.000; -474.000
413.717;  -36.400; -358.000; -366.000
413.843; -236.400; -839.000; -861.000
413.969;  -50.100;  -47.000; -292.000
414.096; -157.100; -679.000; -679.000
414.222;   58.600;  -33.000;   85.000
414.348;   -8.600; -652.000; -385.000
414.474;  231.100;   38.000;  -52.000
414.600;   27.000; -126.000; -144.000
414.726;   18.800;  -96.000;  -55.000
414.852;  -64.400; -365.000; -342.000
414.978;  143.400;  104.000;  -18.000
415.104;  145.400;   38.000;   80.000
415.230;  117.300; -329.000; -330.000
415.356;   91.500; -409.000; -514.000
415.482;  454.900;   13.000;  -35.000
415.608;  612.700; -247.000; -323.000
415.734; 2028.100;   67.000;   38.000
415.860;40778.600; -875.000; -767.000
415.986;26570.700; -685.000; -607.000
416.111; 2200.100; -798.000; -652.000
416.237;  524.900; -424.000; -571.000
416.363; 2452.300; -765.000; -733.000
416.489; 8015.500; -324.000; -251.000
416.615;  854.900; -707.000; -742.000
416.741;    2.300; -677.000; -784.000
416.866; -129.500; -673.000; -736.000
416.992; -179.900; -801.000; -818.000
417.118;    1.700;  -41.000;  -80.000
417.244;  -78.100; -798.000; -531.000
417.369;  -91.800; -801.000; -612.000
417.495;   44.700; -325.000; -254.000
417.621; -102.700;-1015.000; -803.000
417.746;   71.500; -579.000; -572.000
417.872;  172.400; -254.000; -144.000
417.998;  181.600; -515.000; -530.000
418.123; 2352.300;-1073.000; -845.000
418.249;10572.400; -512.000; -601.000
418.374; 1305.600; -916.000; -824.000
418.500;  263.100; -383.000; -482.000
418.626;  311.900;   70.000;  -59.000
418.751;  302.700; -549.000; -448.000
418.877;  437.600; -637.000; -643.000
419.002; 3956.800; -688.000; -560.000
419.128;24756.400; -930.000; -721.000
419.253; 5477.500; -967.000; -837.000
419.379;  800.200; -391.000; -338.000
419.504;  829.300;  325.000;  415.000
419.629; 1070.600; -393.000; -212.000
419.755; 7601.500; -317.000; -254.000
419.880;40653.600;  -98.000;   67.000
420.006;22874.900; -280.000; -221.000
420.131;55490.300; -662.000; -775.000
420.256; 7205.100; -315.000; -316.000
420.382; 1078.200; -665.000; -687.000
420.507;  180.400; -649.000; -778.000
420.632;  287.300; -337.000; -339.000
420.758;  451.000; -251.000; -425.000
420.883; -124.000; -876.000; -672.000
421.008; -144.100; -775.000; -619.000
421.133;  -72.800; -509.000; -467.000
421.259;   -7.900; -325.000; -259.000
421.384; -169.900; -834.000; -693.000
421.509;  -51.600;-1052.000; -862.000
421.634; 2004.100; -936.000; -820.000
421.759;  768.000; -359.000; -327.000
421.885;  -64.500; -717.000; -656.000
422.010; -113.600; -673.000; -542.000
422.135; -257.000; -695.000; -727.000
422.260;  139.400;  340.000;  280.000
422.385;  -41.100;   12.000;  -98.000
422.510;  101.800;  151.000;  -26.000
422.635;  146.500;  -87.000;  -43.000
422.760;  241.800; -766.000; -791.000
422.885;  160.400;  -57.000;  -80.000
423.010;    5.800; -112.000; -169.000
423.135; -117.100; -481.000; -561.000
423.260;   47.400; -150.000; -245.000
423.385;  208.400;  476.000;  222.000
423.510;  125.700;   71.000;  -22.000
423.635;  212.600;  133.000;   45.000
423.760;  224.500;  383.000;  328.000
423.885;  171.800;  336.000;  391.000
424.010;  103.000;  -68.000;  -13.000
424.135;   38.200;    5.000;  -33.000
424.259;  -92.500; -654.000; -457.000
424.384;  -61.600; -279.000; -272.000
424.509;   49.400; -260.000; -186.000
424.634; -120.900; -761.000; -623.000
424.759;   17.800; -688.000; -544.000
424.883;   33.400; -506.000; -527.000
425.008;  414.000; -502.000; -410.000
425.133; 4104.700; -679.000; -653.000
425.258; 1680.500; -517.000; -381.000
425.382; 1944.500; -867.000; -774.000
425.507; 4423.600; -487.000; -543.000
425.632;  756.400; -802.000; -663.000
425.756;  968.800; -256.000; -146.000
425.881;13809.500; -831.000; -857.000
426.006;33426.300; -604.000; -355.000
426.130; 4670.600; -696.000; -508.000
426.255;  717.500; -611.000; -491.000
426.379;  372.000; -189.000; -577.000
426.504;  869.000;  660.000;  544.000
426.629; 8415.300; -519.000; -466.000
426.753; 5262.700;   64.000;  -46.000
426.878;  610.500; -252.000; -288.000
427.002;  403.800; -651.000; -668.000
427.127; 3396.800;  -35.000; -158.000
427.251;22439.100;  372.000;  401.000
427.375; 5659.400; -191.000; -173.000
427.500; 4050.500; -616.000; -610.000
427.624; 1256.200; -234.000; -400.000
427.749;  219.400; -216.000; -225.000
427.873;  -51.300; -499.000; -412.000
427.997;   26.400; -222.000; -230.000
428.122;  272.100;  795.000;  703.000
428.246;  246.200;  433.000;  434.000
428.371; -175.500; -869.000; -773.000
428.495; -126.400; -624.000; -646.000
428.619;   50.500; -186.000; -117.000
428.743;  132.800;   65.000;  132.000
428.868;   63.200; -732.000; -643.000
428.992; 2519.700; -219.000; -326.000
429.116;  925.300; -329.000; -357.000
429.240;  522.100;  419.000;  426.000
429.365;   34.400; -454.000; -574.000
429.489;  -21.000; -638.000; -647.000
429.613;  112.100; -236.000; -177.000
429.737;  175.200; -563.000; -432.000
429.861;  632.700; -247.000; -133.000
429.985;11545.900; -425.000; -305.000
430.109;11584.200; -770.000; -908.000
430.234; 1349.400;   76.000;  -50.000
430.358;  202.300; -250.000; -160.000
430.482;  -97.500; -672.000; -564.000
430.606;  -61.600; -655.000; -375.000
430.730;  109.700; -437.000; -388.000
430.854;  241.500; -909.000; -835.000
430.978;  -72.800; -795.000; -764.000
431.102; -106.900; -499.000; -422.000
431.226; -130.000; -874.000; -815.000
431.350;  161.300;  345.000;  422.000
431.474;  -51.400; -661.000; -373.000
431.597; -241.800;-1060.000; -848.000
431.721;  -94.500; -276.000; -267.000
431.845; -159.700; -704.000; -472.000
431.969; -115.600; -304.000; -349.000
432.093; -135.700; -395.000; -317.000
432.217;   53.800;   32.000;   82.000
432.341; -113.000; -523.000; -518.000
432.464;  119.500;   96.000;   40.000
432.588;  431.700; -401.000; -329.000
432.712;  227.500;  -52.000;  -52.000
432.836;  162.200;  213.000;  263.000
432.959;   64.000; -372.000; -311.000
433.083;  260.200;   11.000;    2.000
433.207;  829.000;  285.000;  930.000
433.330;10522.400; -391.000; -200.000
433.454;11927.500; -654.000; -638.000
433.578; 7013.400;  583.000;  278.000
433.701; 1187.300; -623.000; -675.000
433.825;  292.400; -292.000; -299.000
433.949;  327.200;   28.000;  -72.000
434.072;  133.900; -410.000; -323.000
434.196;   45.400; -309.000; -117.000
434.319; 7890.600;25482.000;25124.000
434.443; 1588.100; -656.000; -603.000
434.566; 5202.300;  281.000;   62.000
434.690;  825.700; -637.000; -383.000
434.813;  159.000; -251.000; -173.000
434.937; -101.000; -569.000; -696.000
435.060;  -35.600; -423.000; -332.000
435.184;  586.900; -492.000; -217.000
435.307;  354.300;  159.000;  102.000
435.431;   48.800;  -40.000;   24.000
435.554;  -60.500; -399.000; -240.000
435.677;  -84.600; -350.000; -258.000
435.801;   -5.700;  -25.000;   49.000
435.924;   43.500;    1.000;  -67.000
436.048; -203.400;-1019.000; -732.000
436.171;  -49.800; -240.000;  -66.000
436.294;   19.200; -248.000; -229.000
436.417;  254.400; -963.000; -849.000
436.541; -128.300; -814.000; -840.000
436.664;  -30.900; -242.000; -316.000
436.787;   34.200;   13.000;  113.000
436.910; -138.700; -792.000; -422.000
437.034;  118.800;  142.000;  143.000
437.157;  191.100;  -11.000;    0.000
437.280;  -45.300; -392.000; -292.000
437.403; -139.200; -982.000; -869.000
437.526; 1152.700; -903.000; -865.000
437.649; 3751.600; -505.000; -332.000
437.772;  444.900; -692.000; -540.000
437.896;  271.800;  700.000;  544.000
438.019; -176.500; -758.000; -503.000
438.142;  -67.900; -596.000; -506.000
438.265;   -7.400; -639.000; -670.000
438.388; 1085.000; -520.000; -410.000
438.511;  141.300; -597.000; -394.000
438.634;  -46.500; -247.000; -125.000
438.757; -181.600; -693.000; -619.000
438.880;   54.800;  -34.000;  -57.000
439.003;  -96.100; -417.000; -437.000
439.126;  -57.500; -287.000; -167.000
439.248;  -64.100;  -98.000; -139.000
439.371;   -9.400;    9.000;  -53.000
439.494;  156.800;  510.000;  439.000
439.617;  -22.900;   65.000;  -88.000
439.740; -317.900; -968.000; -816.000
439.863; -224.000; -755.000; -595.000
439.986; -203.000; -476.000; -431.000
440.108;  -21.700; -161.000; -112.000
440.231; -248.000; -950.000; -836.000
440.354;  -24.200;  -64.000; -150.000
440.477;   82.900; -566.000; -542.000
440.599;   65.800; -200.000; -225.000
440.722; -146.500; -709.000; -586.000
440.845;  269.500;  751.000;  928.000
440.968; -124.200; -415.000; -311.000
441.090;  -34.000; -199.000;  -33.000
441.213; -263.400;-1021.000; -825.000
441.336;  -49.400; -159.000;   -5.000
441.458;  -82.600; -549.000; -396.000
441.581; -110.200; -628.000; -629.000
441.703;  -84.400; -152.000;   13.000
441.826; -151.200; -557.000; -400.000
441.948;  -28.900;   56.000;   51.000
442.071;  183.000;  555.000;  424.000
442.193; -157.300; -531.000; -485.000
442.316;   91.700;  152.000;   97.000
442.438;  177.300; -233.000;  -10.000
442.561;  187.300;  272.000;  262.000
442.683; 1040.500; -809.000; -522.000
442.806; 1947.300;   -8.000;   74.000
442.928;   22.000; -859.000; -604.000
443.051; -113.900; -577.000; -373.000
443.173; -123.600; -341.000; -339.000
443.295; -105.700; -263.000; -371.000
443.418;  -88.300; -321.000;  -29.000
443.540;   73.300; -106.000;   -4.000
443.662; -169.600; -563.000; -465.000
443.785;   66.200;  335.000;  199.000
443.907; -173.100; -362.000; -208.000
444.029; -179.300; -767.000; -494.000
444.152; -221.600; -644.000; -554.000
444.274;   10.700;  -18.000;  -24.000
444.396; -162.400; -461.000; -221.000
444.518; -182.100; -691.000; -454.000
444.640; -124.700; -268.000; -111.000
444.763;   44.500;  388.000;  249.000
444.885; -172.500; -432.000; -392.000
445.007;   28.700;   35.000;   86.000
445.129; -159.700; -610.000; -515.000
445.251; -137.500; -372.000; -439.000
445.373; -182.600; -537.000; -386.000
445.495;   67.300;  242.000;  350.000
445.617;  166.700;  853.000;  753.000
445.739;  -44.900; -215.000;  -97.000
445.861;  -15.700; -245.000; -112.000
445.984;  -12.800; -267.000; -101.000
446.105;  394.000; -418.000; -251.000
446.227; 1086.600; -176.000;  -19.000
446.349;    1.500; -358.000; -249.000
446.471; -128.400; -615.000; -448.000
446.593;  -63.400; -316.000;   19.000
446.715;   61.600;  -67.000;   41.000
446.837;  187.800;  697.000;  832.000
446.959; -123.100; -457.000; -478.000
447.081; -195.700; -628.000; -518.000
447.203;  230.200;  862.000;  834.000
447.325;  -91.000; -270.000;   42.000
447.446;   87.200;  286.000;  530.000
447.568; -221.800; -921.000; -803.000
447.690;  -77.300; -236.000; -245.000
447.812; -246.600; -798.000; -519.000
447.933;   36.700;  155.000;  127.000
448.055;  -39.100; -306.000; -261.000
448.177;  303.100;   31.000;   79.000
448.299;  129.600; -935.000; -727.000
448.420;  105.800;  -25.000;  159.000
448.542;   -4.600;   -3.000;   33.000
448.664;   43.400;  109.000;  322.000
448.785;  -12.500;  265.000;   83.000
448.907; -117.200; -614.000; -353.000
449.028;  -38.300; -771.000; -471.000
449.150;  231.900;  492.000;  589.000
449.272; -286.800;-1044.000; -913.000
449.393;  145.600;  612.000;  694.000
449.515; -183.400; -634.000; -581.000
449.636;  -18.000; -264.000; -155.000
449.758;  215.700;  763.000;  622.000
449.879; -111.500; -498.000; -396.000
450.001;  -93.900; -149.000;  -49.000
450.122;    1.800;  -95.000;  162.000
450.244;   32.600;   37.000;  364.000
450.365;  -90.200; -495.000; -301.000
450.486;   10.600;   80.000;  268.000
450.608;  135.800;  393.000;  326.000
450.729;  240.200;  578.000;  645.000
450.850;  106.400; -574.000; -466.000
450.972; 1640.500; -552.000; -389.000
451.093; 9951.400;  190.000;  588.000
451.214; 3797.900; -516.000; -337.000
451.336;  806.700;  773.000;  579.000
451.457;  192.300;  264.000;  393.000
451.578;  -22.700; -118.000;  -74.000
451.699; -169.500; -546.000; -540.000
451.821;  -55.500; -284.000;  -50.000
451.942;   93.400;  278.000;  285.000
452.063;  181.000;  228.000;  419.000
452.184; 1233.500;  -54.000;  -49.000
452.305; 2203.500;  103.000;  170.000
452.427;  261.500; -549.000; -301.000
452.548;   41.800;   23.000;   79.000
452.669;  -33.300; -257.000;  -89.000
452.790;  -16.200;    3.000;  -18.000
452.911;   51.500;  195.000;  259.000
453.032;  -58.600; -289.000;  -60.000
453.153;  -35.600;  -29.000;   81.000
453.274;  224.300;  737.000;  868.000
453.395;  -31.400;  -51.000;  175.000
453.516;  376.100; 1317.000; 1388.000
453.637;  -42.700; -205.000; -150.000
453.758;  -23.500;   15.000;   69.000
453.879; -154.700; -462.000; -250.000
454.000;  281.100; 1086.000;  948.000
454.121; -162.500; -554.000; -326.000
454.242; -187.300; -599.000; -383.000
454.362;  -20.600;  -99.000;  114.000
454.483;  -23.300; -309.000; -229.000
454.604;  203.500;  512.000;  580.000
454.725; -185.000; -627.000; -555.000
454.846; -221.200; -474.000; -406.000
454.967;   70.200;  230.000;  539.000
455.087;  -18.300;  179.000;  153.000
455.208;  125.200;  554.000;  856.000
455.329;  -63.800;  -22.000;   82.000
455.450;  136.600;  473.000;  633.000
455.570; -106.100; -234.000; -211.000
455.691;   10.200;  201.000;  407.000
455.812; -130.400; -270.000;  -92.000
455.932;  -51.700;  107.000;  -97.000
456.053; -104.200;   36.000;   24.000
456.173; -123.000; -433.000; -355.000
456.294; -192.400; -476.000; -303.000
456.415;  -20.600;  -73.000;   70.000
456.535;   11.400;  297.000;  273.000
456.656;  -17.100;  132.000;  240.000
456.776;  -83.800;    3.000;  298.000
456.897;   77.900;  308.000;  513.000
457.017; -115.700; -153.000;   -3.000
457.138; -113.500; -402.000; -249.000
457.258;    7.800;  263.000;  224.000
457.379;   75.700;  509.000;  521.000
457.499;   32.500;  443.000;  432.000
457.620; -155.400; -407.000; -231.000
457.740; -119.900; -132.000;  -11.000
457.860;  -29.100;   87.000;   44.000
457.981;  -49.400;  132.000;  124.000
458.101;  -55.400;  -89.000;   40.000
458.221;   34.100;  336.000;  402.000
458.342;   -9.700;   -4.000;  -37.000
458.462;  107.400;  617.000;  352.000
458.582;  -19.700; -302.000; -294.000
458.703;   91.800;  303.000;  154.000
458.823;   17.900;   22.000;  163.000
458.943;  125.500;  341.000;  467.000
459.063;   43.900; 1124.000;  192.000
459.183;   54.800;  328.000;  313.000
459.304;  108.800;  315.000;  517.000
459.424;  -70.400; -246.000;  -89.000
459.544;  753.400;  388.000;  764.000
459.664; 1734.400;  499.000;  506.000
459.784;  639.600; 1004.000; 1175.000
459.904;  193.300;  867.000;  744.000
460.024;  207.900;  867.000;  684.000
460.144;   57.800;  449.000;  554.000
460.264;   97.300;  515.000;  327.000
460.385; -112.000; -145.000; -119.000
460.505;  163.500;  905.000;  858.000
460.625; -148.800;  -17.000;  -68.000
460.745;   61.800;  396.000;  541.000
460.864;    0.000;  153.000;  469.000
460.984;   83.400;  499.000;  573.000
461.104;  379.400; 1656.000; 1775.000
461.224;  144.700;  657.000;  650.000
461.344;    4.900;  431.000;  360.000
461.464;   34.200;  258.000;  513.000
461.584;   65.800;  283.000;  466.000
461.704;  -36.200;   58.000;  108.000
461.824;  -32.700;  238.000;  259.000
461.943;  -21.400;  191.000;  130.000
462.063;  -70.100;    2.000;  324.000
462.183;  163.500;  639.000;  717.000
462.303;  279.400; 1678.000; 1230.000
462.422;  163.300;  781.000;  840.000
462.542;   -9.500;  271.000;  391.000
462.662;  179.000;  353.000;  380.000
462.782;  604.800;  833.000;  572.000
462.901; 1017.100;  545.000;  717.000
463.021;  595.300; 1702.000; 1638.000
463.141;   52.800;  337.000;  770.000
463.260;   47.900;  614.000;  474.000
463.380;  124.900;  902.000;  884.000
463.499;   -8.700;  342.000;  332.000
463.619;   16.900;  581.000;  559.000
463.738;  308.200; 1644.000;  903.000
463.858;  104.400;  657.000;  811.000
463.978;   34.300;  542.000;  396.000
464.097;  176.300;  921.000; 1114.000
464.217;  331.300; 1196.000; 1143.000
464.336;  312.200; 1068.000; 1130.000
464.455;    5.500;  328.000;  659.000
464.575;  163.900;  597.000;  602.000
464.694;  357.700; 1204.000; 1179.000
464.814;  361.700; 1190.000; 1138.000
464.933;  209.200; 1095.000; 1027.000
465.052;  268.300; 1412.000; 1054.000
465.172;  218.400;  922.000;  799.000
465.291;  353.500; 1376.000; 1320.000
465.410;   91.500;  462.000;  735.000
465.530;  266.900; 1355.000; 1310.000
465.649;  250.100; 1209.000; 1273.000
465.768;  359.500; 1673.000; 1508.000
465.888;  176.600;  941.000; 1174.000
466.007;  303.100; 1335.000; 1440.000
466.126;   69.900;  721.000;  641.000
466.245;  171.100; 1176.000; 1187.000
466.364;  128.100;  950.000; 1060.000
466.484;  212.800; 1024.000; 1213.000
466.603;  169.600; 1101.000; 1222.000
466.722;  350.200; 1490.000; 1769.000
466.841;  202.500; 1151.000; 1401.000
466.960;  177.600; 1069.000;  972.000
467.079;  317.000; 1971.000; 1786.000
467.198;  193.700; 1238.000; 1181.000
467.317;  253.500; 1768.000; 1162.000
467.436;  234.100; 1709.000; 1261.000
467.555;  341.100; 1796.000; 1746.000
467.674;  205.300; 1227.000; 1329.000
467.793;  176.700; 1376.000; 1374.000
467.912;  267.400; 1658.000; 1539.000
468.031;  359.200; 2038.000; 1930.000
468.150;  378.000; 1842.000; 1837.000
468.269;  489.000; 2313.000; 2090.000
468.388;  483.900; 2168.000; 2339.000
468.507;  600.500; 2884.000; 2903.000
468.626;  631.700; 2555.000; 2541.000
468.744;  362.600; 2018.000; 2174.000
468.863;  501.400; 2312.000; 2523.000
468.982;  272.200; 1503.000; 1555.000
469.101;  534.000; 2788.000; 2692.000
469.220;  392.100; 2333.000; 2176.000
469.338;  639.000; 2935.000; 3051.000
469.457;  444.100; 2719.000; 2545.000
469.576;  828.500; 3953.000; 3784.000
469.695;  591.200; 2877.000; 3066.000
469.813;  927.500; 4148.000; 4192.000
469.932;  904.300; 4255.000; 4485.000
470.051;  940.000; 4075.000; 4161.000
470.169; 1851.400; 4470.000; 4338.000
470.288; 3052.100; 4700.000; 4809.000
470.406; 1750.200; 5059.000; 5194.000
470.525; 1338.400; 6101.000; 5787.000
470.644; 1418.100; 6847.000; 6794.000
470.762; 1760.200; 8397.000; 7873.000
470.881; 1921.000; 8651.000; 8464.000
470.999; 2176.800; 9685.000; 9151.000
471.118; 2337.300;11174.000;10711.000

