
Integration time [ms]: 100.000
Averaging Nr. [scans]: 40
Smoothing Nr. [pixels]: 0
Data measured with spectrometer [name]: 2101012U2
Wave   ;Sample   ;Dark     ;Reference
[nm]   ;[counts] ;[counts] ;[counts] 

197.733;   56.550;  516.000;  404.000
197.879;  -78.400; -610.000; -634.000
198.025;  -46.075; -475.000; -420.000
198.171;  -63.525; -602.000; -612.000
198.317;  -32.675; -401.000; -316.000
198.463;  -46.050; -655.000; -404.000
198.609;   27.875;  181.000; -137.000
198.755;  -74.450; -644.000; -410.000
198.901;  -57.575; -505.000; -424.000
199.047;  -58.975; -615.000; -488.000
199.193;  -23.000; -230.000; -468.000
199.339;  -41.425; -222.000; -369.000
199.485;   46.800;  330.000;  271.000
199.631;   30.375;  227.000;  310.000
199.777;  -43.575; -466.000; -398.000
199.923;  -55.675; -610.000; -424.000
200.069;  -10.200; -141.000;  -58.000
200.215;   57.600;  128.000;  453.000
200.361;   38.875;  243.000;  477.000
200.507;  -58.875; -600.000; -373.000
200.653;  -27.000; -371.000; -194.000
200.798;  -32.500; -215.000; -125.000
200.944;   -1.100; -146.000;  -41.000
201.090;   37.325;   61.000;  222.000
201.236;    0.650; -116.000; -158.000
201.382;  110.625;  874.000;  903.000
201.528;   -3.000;  -58.000;  -48.000
201.674;  -40.925; -386.000; -293.000
201.819;  -66.125; -540.000; -439.000
201.965;  -74.925; -699.000; -447.000
202.111;  -15.600; -273.000; -226.000
202.257;  -40.050; -250.000; -238.000
202.402;    4.525;   13.000;  -36.000
202.548;  -26.650; -169.000; -116.000
202.694;   86.750;  410.000; -183.000
202.840;  -68.325; -603.000; -531.000
202.985;  -75.225; -681.000; -639.000
203.131;  -92.275; -832.000; -666.000
203.277;  -10.200; -199.000; -262.000
203.423;  -33.475; -434.000; -520.000
203.568;  -33.325; -462.000; -237.000
203.714;  -48.575; -535.000; -542.000
203.860;  -77.425; -682.000; -641.000
204.005;   14.025;  112.000;  167.000
204.151;   76.350;  561.000;  556.000
204.296;  -38.125; -354.000; -221.000
204.442;  -64.875; -600.000; -547.000
204.588;  -77.475; -592.000; -579.000
204.733;   19.450;  178.000;  168.000
204.879; -125.525;-1018.000; -822.000
205.025;    4.625;  -99.000;  126.000
205.170;    2.125;  -17.000;   94.000
205.316;   83.400;  438.000;  661.000
205.461;  -73.575; -698.000; -554.000
205.607;   83.725;  609.000;  665.000
205.752;  -77.000; -626.000; -551.000
205.898;  -43.525; -501.000; -391.000
206.043;  -53.450; -578.000; -506.000
206.189;  -47.100; -243.000; -285.000
206.334;   75.475;  554.000;  606.000
206.480;   70.550;  409.000;  239.000
206.625;  -77.350; -529.000; -552.000
206.771;  -37.925; -451.000; -373.000
206.916;  -28.825; -210.000; -537.000
207.062;  -60.775; -545.000; -591.000
207.207;  -55.900; -546.000; -443.000
207.353;   43.150;  185.000;  460.000
207.498;   25.850;  196.000;   85.000
207.643;  -55.875; -501.000; -370.000
207.789; -115.225;-1069.000; -910.000
207.934;  -86.000; -665.000; -713.000
208.080;  -21.300; -154.000;   66.000
208.225;   -6.975;  -22.000;  -57.000
208.370;  -72.575; -727.000; -619.000
208.516;  -63.600; -741.000; -487.000
208.661;  -27.600; -127.000;  -69.000
208.806;  -26.225; -165.000; -171.000
208.952; -117.950;-1044.000; -731.000
209.097;   67.575;  378.000;  349.000
209.242;  -43.825; -307.000; -382.000
209.387;   85.075;  392.000;  350.000
209.533;  -50.450; -321.000; -350.000
209.678;   75.025;  472.000;  543.000
209.823;  -42.600; -408.000; -310.000
209.969;  -99.125; -860.000; -757.000
210.114;  -88.825; -907.000; -719.000
210.259; -110.650; -939.000; -889.000
210.404;  -11.075; -171.000;  103.000
210.549;    8.250;  108.000;    3.000
210.695;  -15.525;   -3.000;  -95.000
210.840;   35.450;   94.000;   67.000
210.985;  -58.025; -484.000; -303.000
211.130;   73.825;  268.000;  406.000
211.275;   19.525;  207.000;  199.000
211.420;  -34.325; -300.000; -289.000
211.566;  -73.275; -536.000; -489.000
211.711;   16.925;  218.000;  157.000
211.856;  -58.975; -545.000; -519.000
212.001;   15.425;  151.000;   44.000
212.146;   22.050;  153.000;   49.000
212.291;  -17.150; -210.000; -186.000
212.436;  -25.000; -280.000;   -6.000
212.581;  -77.550; -685.000; -653.000
212.726;  -75.475; -487.000; -538.000
212.871;  -47.575; -552.000; -217.000
213.016; -140.725;-1172.000;-1029.000
213.161;   51.300;  406.000;  291.000
213.306;  -69.100; -435.000; -577.000
213.451;  -81.625; -778.000; -689.000
213.596;  -32.500; -455.000; -347.000
213.741;  -45.700; -448.000; -538.000
213.886;  -61.925; -498.000; -517.000
214.031;  -14.900; -294.000; -124.000
214.176;  -46.075; -408.000; -341.000
214.321;  -18.125; -296.000; -157.000
214.466;  -10.675; -163.000;  -43.000
214.611;    8.675;  -61.000;  -10.000
214.756; -108.850; -948.000; -858.000
214.901;  -16.825; -388.000; -226.000
215.046; -107.050; -797.000; -825.000
215.191;   11.125;  128.000;   35.000
215.336;   -9.725; -157.000;  -19.000
215.480;  -61.950; -684.000; -505.000
215.625;  -12.725; -175.000;  -19.000
215.770;  -94.725; -757.000; -662.000
215.915;  -13.675;   -5.000;  -97.000
216.060;    0.800; -113.000;  -21.000
216.205;  -84.975; -731.000; -779.000
216.349;  -71.950; -470.000; -533.000
216.494; -126.775; -939.000; -867.000
216.639; -112.875; -823.000; -888.000
216.784;  -79.000; -577.000; -525.000
216.929;   41.425;  392.000;  281.000
217.073;   -7.600; -244.000;  -31.000
217.218;   14.625;   78.000;  -47.000
217.363;  -78.425; -656.000; -618.000
217.507;  -68.675; -623.000; -588.000
217.652; -109.325; -845.000; -874.000
217.797;  -71.775; -708.000; -659.000
217.942; -111.975; -856.000; -720.000
218.086;   70.675;  608.000;  539.000
218.231;  -13.875; -174.000;  -26.000
218.376;  -28.350; -337.000; -229.000
218.520;   -4.800;  -41.000;   96.000
218.665;  -30.725; -338.000; -204.000
218.810;  -46.300; -275.000; -233.000
218.954;   13.325;  201.000;   35.000
219.099;  -89.525; -713.000; -963.000
219.243;  -70.150; -589.000; -554.000
219.388;  -14.900; -264.000; -136.000
219.532;   -1.350; -116.000; -116.000
219.677;  -85.775; -564.000; -521.000
219.822;    7.425;   33.000;   89.000
219.966;   12.400;   17.000;  -99.000
220.111;  -38.775; -328.000;  -40.000
220.255;  -73.975; -797.000; -750.000
220.400;   -7.900; -180.000; -146.000
220.544;  -58.900; -516.000; -450.000
220.689;  -53.600; -422.000; -451.000
220.833;  -15.950; -123.000;  -58.000
220.978;  -32.875; -393.000; -563.000
221.122;   23.250;  319.000;  307.000
221.267; -102.275; -906.000; -837.000
221.411;  -63.350; -478.000; -394.000
221.555;   -7.700; -104.000;  -23.000
221.700;  -45.925; -329.000; -222.000
221.844;   38.075;  255.000;  272.000
221.989;  -54.800; -328.000; -311.000
222.133;  -35.750; -289.000; -307.000
222.277;  -16.550;    5.000;   78.000
222.422;   11.475;  227.000;  113.000
222.566;  -24.175; -381.000; -214.000
222.711;  -47.500; -414.000; -479.000
222.855;  -69.575; -643.000; -586.000
222.999;  -89.900; -642.000; -717.000
223.144;  -28.200; -195.000; -194.000
223.288;   46.825;  423.000;  251.000
223.432;   26.300;  184.000;  230.000
223.576;   24.375;  152.000;  -21.000
223.721;   41.975;  364.000;  273.000
223.865;  -64.550; -472.000; -475.000
224.009;  264.800; 1673.000; 1631.000
224.153;  -69.250; -660.000; -671.000
224.298;  -44.950; -531.000; -489.000
224.442;   -4.250;  -74.000;  -33.000
224.586;    2.075; -169.000; -106.000
224.730;  -90.625; -858.000; -670.000
224.875; -101.350; -739.000; -688.000
225.019;   18.950;  102.000;  188.000
225.163;   57.800;  208.000;  341.000
225.307;    5.900;   97.000;  -91.000
225.451;   26.825;  360.000;  481.000
225.595;   24.350;  264.000;  176.000
225.739;  -17.025; -170.000;  -94.000
225.884;    9.975;   86.000;    5.000
226.028;  -90.700; -760.000; -626.000
226.172;  -32.250; -260.000; -273.000
226.316; -107.850; -941.000; -902.000
226.460;  -69.825; -645.000; -493.000
226.604;  -36.500; -406.000; -400.000
226.748;  -85.600; -836.000; -733.000
226.892;  -23.350; -227.000; -181.000
227.036;  -53.925; -537.000; -447.000
227.180;  -50.925; -551.000; -375.000
227.324;  -44.700; -561.000; -580.000
227.468; -112.000; -819.000; -717.000
227.612;   12.175;  242.000;  -28.000
227.756;  -85.025; -845.000; -698.000
227.900;   57.400;  342.000;  441.000
228.044;  -65.700; -509.000; -290.000
228.188;   69.350;  448.000;  568.000
228.332;  -77.975; -546.000; -472.000
228.476;  -30.875; -223.000; -149.000
228.620;  -21.025; -210.000; -150.000
228.764;   60.375;  431.000;  349.000
228.908;  -17.225; -155.000;   30.000
229.052;  -64.375; -615.000; -528.000
229.195;  -21.900; -172.000;   13.000
229.339;  -29.950; -235.000; -305.000
229.483;  -23.925;    5.000; -162.000
229.627;   -2.800; -156.000;  139.000
229.771;  -49.100; -218.000; -294.000
229.915;   19.925;  230.000;   79.000
230.059;  -85.825; -648.000; -663.000
230.202;  -41.300; -370.000; -317.000
230.346;  -10.625; -107.000;  107.000
230.490;  -57.675; -489.000; -521.000
230.634;  -96.625; -736.000; -553.000
230.777;   64.425;  478.000;  509.000
230.921;  -48.375; -450.000; -359.000
231.065;  -38.725; -246.000; -286.000
231.209;   27.475;  261.000;  265.000
231.352;   19.550;   54.000;   40.000
231.496;   13.475;  568.000;  188.000
231.640;  -70.550; -693.000; -621.000
231.783;   58.175;  546.000;  525.000
231.927;  -49.025; -294.000; -365.000
232.071; -125.800; -962.000; -736.000
232.214; -102.775; -980.000; -764.000
232.358;  -93.225; -683.000; -599.000
232.502;    5.750;  -19.000;    7.000
232.645; -136.250;-1090.000; -927.000
232.789;  -21.775; -257.000; -218.000
232.933;  -32.100; -407.000; -224.000
233.076; -107.175;-1038.000; -897.000
233.220; -100.425; -752.000; -777.000
233.363;  -81.925; -669.000; -477.000
233.507;   49.000;  371.000;  129.000
233.650;  -96.175; -764.000; -834.000
233.794;   42.725;  438.000;  461.000
233.938;  -56.775; -530.000; -362.000
234.081;  -22.250;  -93.000;   31.000
234.225;  -64.125; -631.000; -539.000
234.368;  -99.000; -773.000; -723.000
234.512;  -35.550; -385.000; -299.000
234.655;  -73.450; -582.000; -555.000
234.798;  -65.200; -493.000; -466.000
234.942; -107.025; -884.000;-1002.000
235.085;  -61.775; -651.000; -443.000
235.229;  -64.900; -405.000; -410.000
235.372;  -51.025; -247.000; -191.000
235.516;  -47.950; -397.000; -321.000
235.659;   24.925;   92.000;  121.000
235.802;  -15.525;  -38.000;  -22.000
235.946;   30.875;  335.000;  215.000
236.089;   30.200;  126.000;  250.000
236.233;   56.000;  275.000;  298.000
236.376;  -41.500; -235.000; -378.000
236.519;  -37.350; -297.000; -319.000
236.663;  -19.325; -215.000; -117.000
236.806; -119.525;-1029.000; -999.000
236.949;   46.950;  543.000;  431.000
237.092;   57.950;  412.000;  391.000
237.236;  -76.125; -589.000; -502.000
237.379;   50.375;  352.000;  428.000
237.522; -111.575; -879.000; -768.000
237.666;  -14.175; -271.000;   18.000
237.809; -117.775; -851.000; -823.000
237.952;   40.525;  469.000;  271.000
238.095;  -62.125; -447.000; -442.000
238.238;   69.200;  688.000;  700.000
238.382;    4.450;  166.000;  103.000
238.525;  -75.925; -598.000; -511.000
238.668; -126.075;-1060.000; -985.000
238.811;  -75.950; -638.000; -643.000
238.954;  -64.100; -483.000; -334.000
239.097;  104.400;  617.000;  664.000
239.241;   34.525;  394.000;  326.000
239.384;  -31.200; -254.000; -214.000
239.527;  -53.725; -424.000; -224.000
239.670; -130.325; -994.000;-1091.000
239.813; -107.775; -696.000; -658.000
239.956;   69.450;  579.000;  473.000
240.099;  -97.300; -778.000; -725.000
240.242;   64.150;  428.000;  432.000
240.385;   46.050;  466.000;  450.000
240.528;  -73.250; -706.000; -473.000
240.671;    5.025;  189.000;  134.000
240.814;  -37.675; -441.000; -158.000
240.957;  -84.000; -767.000; -578.000
241.100;  -85.325; -779.000; -755.000
241.243; -131.500;-1234.000; -893.000
241.386;  -68.100; -508.000; -379.000
241.529;  -79.875; -735.000; -547.000
241.672;  -60.975; -566.000; -495.000
241.815; -104.875; -832.000; -808.000
241.958;  -22.275; -125.000; -182.000
242.101;  -70.375; -545.000; -390.000
242.244;  -40.000; -270.000; -325.000
242.387;  -37.225; -304.000; -246.000
242.530;   61.575;  470.000;  134.000
242.673;  -45.125; -381.000; -309.000
242.815; -114.025; -925.000; -899.000
242.958;  -64.375; -482.000; -381.000
243.101;   18.800;  132.000;  187.000
243.244;  -71.925; -564.000; -521.000
243.387;  -41.800; -313.000; -316.000
243.530;  -92.400; -657.000; -674.000
243.672;    5.525;   43.000;  -92.000
243.815;  -52.925; -355.000; -283.000
243.958;    0.200;   98.000;  -26.000
244.101;   -0.600;   59.000;  -16.000
244.243;  -16.425;  -47.000;  101.000
244.386; -112.525; -761.000; -630.000
244.529;  -32.125; -132.000; -139.000
244.672; -145.050;-1154.000; -951.000
244.814;  -88.500; -621.000; -794.000
244.957;  -59.975; -380.000; -304.000
245.100;  -68.575; -489.000; -489.000
245.242;  -60.100; -387.000; -374.000
245.385;  -10.000;  -59.000;  -39.000
245.528; -110.550; -871.000; -705.000
245.670;   77.075;  612.000;  634.000
245.813;  -80.375; -599.000; -547.000
245.956;  -23.325; -324.000; -275.000
246.098;  -59.600; -508.000; -650.000
246.241;   -3.000;  194.000;   48.000
246.383;  -15.250; -119.000;  -73.000
246.526;  -60.250; -454.000; -525.000
246.669; -109.850; -889.000; -780.000
246.811;   23.975;  172.000;   -1.000
246.954;  -63.375; -512.000; -426.000
247.096;  -27.325;  -84.000;   -6.000
247.239;  -60.375; -482.000; -445.000
247.381;  -66.575; -647.000; -488.000
247.524;   84.525;  645.000;  679.000
247.666;   -2.800;   58.000;   11.000
247.809; -110.225; -887.000; -691.000
247.951;  -16.150;  -75.000;  138.000
248.094;   23.850;  432.000;  308.000
248.236; -148.200;-1262.000;-1238.000
248.378;  -20.400; -356.000;  -81.000
248.521;  -21.450; -334.000; -337.000
248.663;  -33.275; -236.000; -267.000
248.806;  -16.350; -300.000; -266.000
248.948;  -99.775; -886.000; -763.000
249.090;  -52.600; -428.000; -398.000
249.233;  -50.125; -344.000; -381.000
249.375;  -68.500; -474.000; -451.000
249.518;  -10.975;  -83.000; -133.000
249.660;   -7.975; -103.000;    3.000
249.802; -173.850;-1303.000;-1189.000
249.945;  -77.450; -612.000; -540.000
250.087;  -91.325; -834.000; -768.000
250.229;  -50.600; -362.000; -480.000
250.371;  -62.450; -494.000; -439.000
250.514;  -45.525; -310.000; -244.000
250.656;  -49.650;   69.000;  102.000
250.798; -114.150; -849.000; -800.000
250.940;  -62.800; -322.000; -322.000
251.083;  -23.400; -335.000; -111.000
251.225;   53.250;  338.000;  310.000
251.367;  -42.850; -274.000; -373.000
251.509;  -23.950; -265.000; -210.000
251.651;  -77.625; -731.000; -671.000
251.794;   58.925;  538.000;  632.000
251.936; -100.275; -821.000; -747.000
252.078;  -69.525; -540.000; -461.000
252.220;  -60.300; -645.000; -477.000
252.362;   47.125;  344.000;  462.000
252.504;  -76.700; -677.000; -584.000
252.646; -102.725; -875.000; -722.000
252.788;  -12.325;   14.000; -128.000
252.931;  -42.200; -257.000; -253.000
253.073;  -39.800; -376.000; -317.000
253.215;  -11.450;  141.000;  122.000
253.357;  -27.275;   82.000; -153.000
253.499;  -53.700; -374.000; -234.000
253.641;  -90.525; -749.000; -594.000
253.783;  -83.850; -609.000; -527.000
253.925;  -81.475; -586.000; -591.000
254.067; -101.525; -744.000; -667.000
254.209;  -29.825; -391.000; -259.000
254.351; -124.800; -865.000; -883.000
254.493;  -65.675; -441.000; -417.000
254.635; -123.000; -936.000; -818.000
254.777;  -87.650; -752.000; -687.000
254.918;  -56.775; -512.000; -430.000
255.060;  -61.800; -551.000; -395.000
255.202;  -67.000; -473.000; -261.000
255.344;  -71.100; -658.000; -455.000
255.486;  -66.800; -471.000; -406.000
255.628;  -95.250; -780.000; -781.000
255.770;  -84.075; -676.000; -536.000
255.912;  -52.475; -559.000; -468.000
256.053;  -78.950; -730.000; -508.000
256.195;  134.550; 1008.000;  903.000
256.337;  -89.525; -861.000; -595.000
256.479;   62.500;  532.000;  416.000
256.621;  -32.650; -394.000; -212.000
256.762;  -89.000; -789.000; -742.000
256.904;   43.875;  485.000;  487.000
257.046;  -47.100; -381.000; -271.000
257.188;  -45.700; -351.000; -264.000
257.329;  -62.550; -525.000; -464.000
257.471; -107.525; -939.000; -807.000
257.613;  -64.425; -584.000; -498.000
257.755; -131.275;-1073.000; -982.000
257.896;   32.475;  286.000;  392.000
258.038;  -66.900; -403.000; -352.000
258.180;  -49.175; -354.000; -279.000
258.321;  -76.700; -581.000; -457.000
258.463;   -8.500;  -71.000;  133.000
258.605;  -84.600; -562.000; -570.000
258.746;  -93.025; -886.000; -772.000
258.888; -125.175;-1026.000;-1020.000
259.029;   16.300;  121.000;   -8.000
259.171;  -84.400; -614.000; -550.000
259.313;   -1.550;  -49.000;  -47.000
259.454;  -78.600; -536.000; -414.000
259.596;  -53.425; -483.000; -390.000
259.737;  -61.350; -590.000; -474.000
259.879;   22.250;  217.000;  311.000
260.020;   79.525;  901.000;  636.000
260.162;  -32.225; -146.000; -253.000
260.303; -129.950; -768.000; -687.000
260.445;  -89.050; -609.000; -613.000
260.586;   22.975;  392.000;  157.000
260.728;  -51.150; -360.000; -248.000
260.869;  -62.725; -350.000; -343.000
261.011;   59.475;  706.000;  537.000
261.152;  -48.825; -479.000; -319.000
261.293;  -73.475; -576.000; -595.000
261.435;  -30.875; -219.000; -184.000
261.576;  -48.075; -455.000; -325.000
261.718;   31.025;  420.000;  470.000
261.859; -130.950; -940.000; -949.000
262.000; -125.925; -951.000;-1016.000
262.142;  -14.175;  -52.000;  -60.000
262.283; -103.875; -808.000; -691.000
262.424;  -92.000; -666.000; -625.000
262.566; -148.850;-1161.000; -983.000
262.707; -110.000; -840.000; -830.000
262.848; -113.200; -769.000; -726.000
262.990;  -51.625; -362.000; -345.000
263.131;   70.000;  650.000;  681.000
263.272;   -8.650;  -61.000;  -41.000
263.413;  -98.700; -589.000; -561.000
263.555;  -59.400; -669.000; -143.000
263.696;  -83.400; -550.000; -641.000
263.837;  -50.525; -449.000; -551.000
263.978;    0.525;   -5.000;  -77.000
264.119;  -38.325; -283.000; -264.000
264.261; -109.675; -847.000; -630.000
264.402;    3.075;   33.000;   40.000
264.543;  -81.700; -509.000; -524.000
264.684;  -16.075;   61.000;  -50.000
264.825;  -96.300; -816.000; -538.000
264.966;   -5.250;  -84.000;  -67.000
265.107; -109.700; -646.000; -670.000
265.248; -118.125; -825.000; -812.000
265.390;  -12.525;  152.000;   -9.000
265.531;  -21.800; -238.000; -107.000
265.672;  -75.825; -557.000; -630.000
265.813;   50.050;  563.000;  439.000
265.954; -133.350; -959.000; -940.000
266.095;   -9.550; -372.000; -322.000
266.236;  -99.150; -686.000; -548.000
266.377;  -35.175; -243.000; -297.000
266.518;  -57.825; -619.000; -547.000
266.659;   29.075;  170.000;  268.000
266.800;   -1.700;   83.000;   85.000
266.941;  -76.000; -487.000; -478.000
267.082;   21.775;  354.000;   99.000
267.223;  -61.700; -344.000; -273.000
267.364; -104.350; -892.000; -686.000
267.504;  -14.875;    3.000;  135.000
267.645;   -5.775;  160.000;   67.000
267.786;  -26.975; -147.000;  -86.000
267.927;  -65.875; -473.000; -379.000
268.068;  -12.425; -186.000;  -61.000
268.209;  -46.775; -175.000; -413.000
268.350;  -60.300; -388.000; -532.000
268.490;  -91.025; -648.000; -521.000
268.631;   22.975;  127.000;  225.000
268.772; -104.550; -874.000; -647.000
268.913;  -48.400; -328.000; -476.000
269.054;   -9.700; -117.000;   12.000
269.194;  -44.400; -418.000; -402.000
269.335; -152.800;-1137.000;-1074.000
269.476;  -18.650;   33.000;  -35.000
269.617;  -57.675; -347.000; -392.000
269.757;  -92.950; -713.000; -646.000
269.898;  -96.575; -856.000; -613.000
270.039;  -77.500; -415.000; -405.000
270.180; -130.650; -952.000; -816.000
270.320;  -33.575; -190.000; -250.000
270.461;  -51.150; -277.000; -249.000
270.602;  -19.425; -186.000; -156.000
270.742; -124.625; -868.000; -943.000
270.883;  -63.500; -442.000; -390.000
271.023;  -67.350; -358.000; -357.000
271.164;  -64.175; -607.000; -528.000
271.305;  -93.650; -666.000; -654.000
271.445;  -98.600; -722.000; -683.000
271.586;  -62.350; -462.000; -283.000
271.726;  -51.475; -397.000; -322.000
271.867;  -74.050; -594.000; -534.000
272.008;   40.550; -473.000; -285.000
272.148;   89.875;  462.000;  468.000
272.289;   -6.625; -113.000; -181.000
272.429;    4.950;   19.000;  185.000
272.570; -100.425; -633.000; -737.000
272.710; -106.275; -825.000; -775.000
272.851;  -33.325;  113.000; -130.000
272.991; -163.175;-1173.000;-1077.000
273.131;  -66.500; -419.000; -459.000
273.272;  -92.750; -683.000; -723.000
273.412;   -5.575; -143.000;  -31.000
273.553;  -73.350; -488.000; -507.000
273.693;  113.950;  913.000;  858.000
273.834; -117.100; -894.000; -692.000
273.974;  -76.425; -664.000; -615.000
274.114;  -90.275; -772.000; -560.000
274.255;   55.025;  414.000;  373.000
274.395;  -22.400; -180.000; -125.000
274.535;   20.775;  199.000;  350.000
274.676;   27.025;  225.000;   94.000
274.816;    1.000;  110.000;   34.000
274.956;  -74.850; -624.000; -690.000
275.097;  -96.425;-1014.000; -922.000
275.237; -114.550; -913.000; -803.000
275.377; -112.850; -778.000; -689.000
275.517; -152.350; -878.000; -937.000
275.658;  -67.825; -590.000; -555.000
275.798;  -72.850; -606.000; -413.000
275.938;   15.850;  215.000;  323.000
276.078;  -87.200; -626.000; -395.000
276.218;   10.350;   99.000;  104.000
276.359; -123.775;-1026.000;-1024.000
276.499;  -68.575; -605.000; -446.000
276.639;  -33.000; -305.000; -151.000
276.779;  -48.575; -475.000; -357.000
276.919; -104.625; -783.000; -624.000
277.059;  -32.800; -261.000; -212.000
277.199;  -46.875; -357.000; -259.000
277.340;   21.000;  287.000;  175.000
277.480; -105.725; -840.000; -693.000
277.620;   20.575;  192.000;   16.000
277.760; -185.750;-1533.000;-1294.000
277.900;    0.475;  113.000;   33.000
278.040;    3.375;  137.000;  159.000
278.180;   20.075;  270.000;  170.000
278.320;   -0.300;   21.000;   56.000
278.460;  -80.025; -443.000; -469.000
278.600;  -95.425; -708.000; -598.000
278.740;   40.200;  448.000;  224.000
278.880; -114.600; -768.000; -791.000
279.020;  -33.125; -194.000; -144.000
279.160;  -90.275; -672.000; -595.000
279.300; -118.275; -926.000; -873.000
279.440;  -91.325; -709.000; -622.000
279.579;  -89.300;-1014.000; -929.000
279.719;  -73.250; -410.000; -394.000
279.859;   21.525;   -4.000;   41.000
279.999;   -6.600; -208.000;  101.000
280.139;  -38.725; -435.000; -387.000
280.279;  -89.650; -708.000; -745.000
280.419;  -26.550; -229.000; -147.000
280.559;  -39.175; -259.000; -180.000
280.698;  -97.575; -790.000; -639.000
280.838; -110.100; -778.000; -800.000
280.978; -102.775; -846.000; -790.000
281.118; -116.050; -811.000; -704.000
281.257;    4.800;   24.000;    6.000
281.397; -131.525;-1094.000; -960.000
281.537; -101.175; -599.000; -712.000
281.677;  -30.650; -150.000; -101.000
281.816;  -98.675; -700.000; -630.000
281.956;  -32.725; -193.000; -257.000
282.096;  -65.425; -539.000; -396.000
282.235; -101.275; -672.000; -638.000
282.375;  -26.600; -243.000;  -98.000
282.515; -105.850; -715.000; -707.000
282.654;   11.500;   29.000;  106.000
282.794;   18.875;  388.000;  244.000
282.934;  -62.225; -530.000; -491.000
283.073; -122.500;-1030.000; -857.000
283.213;  -66.400; -460.000; -467.000
283.353;  -59.175; -408.000; -349.000
283.492;  -47.825; -264.000; -296.000
283.632;  -48.250; -254.000; -168.000
283.771;  -95.500; -859.000; -730.000
283.911;  -58.850; -369.000; -260.000
284.050; -105.725; -794.000; -748.000
284.190; -137.125;-1229.000;-1096.000
284.329; -144.625;-1055.000; -964.000
284.469;  -85.700; -516.000; -591.000
284.608;  -69.400; -559.000; -598.000
284.748;  -73.500; -614.000; -570.000
284.887;  -12.975;  -87.000;  -20.000
285.027; -113.600; -844.000; -892.000
285.166;  -34.450; -192.000; -249.000
285.306;  -14.250; -116.000;  -33.000
285.445;  -38.550; -229.000; -343.000
285.584;  -93.675; -630.000; -494.000
285.724;  -33.550; -282.000; -322.000
285.863; -112.575; -857.000; -507.000
286.002;  -50.400; -366.000; -276.000
286.142; -101.050; -715.000; -622.000
286.281;  -67.800; -525.000; -493.000
286.420;  -81.400; -554.000; -417.000
286.560;   76.800;  653.000;  623.000
286.699; -122.350; -958.000; -912.000
286.838;  -72.650; -590.000; -591.000
286.978;  -88.225; -533.000; -537.000
287.117; -126.900;-1085.000; -950.000
287.256;  -31.525; -228.000; -211.000
287.395;  -59.650; -197.000; -378.000
287.535;  -52.225; -370.000; -298.000
287.674;  -65.850; -509.000; -484.000
287.813;   40.575;  661.000;  533.000
287.952; -114.550;-1010.000; -871.000
288.091; -144.250;-1049.000; -915.000
288.231;    2.075;   13.000;   15.000
288.370; -159.925;-1217.000;-1200.000
288.509;  -95.475; -728.000; -645.000
288.648;  -89.625; -770.000; -548.000
288.787;  -46.625; -243.000;  -87.000
288.926;  -76.225; -454.000; -475.000
289.065;   97.650;  859.000;  672.000
289.204;  -53.900; -377.000; -217.000
289.344; -111.000; -791.000; -690.000
289.483;    0.300;  416.000;  304.000
289.622;  -31.325; -291.000; -149.000
289.761;  -25.300; -309.000; -166.000
289.900; -106.275; -785.000; -626.000
290.039;  -14.275;  -12.000;  -95.000
290.178;  -41.525; -274.000; -180.000
290.317;  -88.975; -618.000; -479.000
290.456;  -59.200; -463.000; -451.000
290.595; -127.975; -961.000; -833.000
290.734; -133.750; -904.000; -891.000
290.873;  -58.775; -456.000; -420.000
291.011; -120.350; -833.000; -843.000
291.150; -112.150; -770.000; -682.000
291.289;  -38.175; -343.000; -110.000
291.428;  -87.175; -599.000; -480.000
291.567;  -61.950; -370.000; -442.000
291.706;  -12.050;  109.000;  154.000
291.845;  -93.275; -597.000; -505.000
291.984; -156.800;-1234.000;-1061.000
292.122;   60.550;  602.000;  582.000
292.261;   54.375;  620.000;  463.000
292.400;   10.900; -144.000;  211.000
292.539; -116.950; -959.000; -813.000
292.678;  -39.150; -325.000; -300.000
292.816; -158.600;-1136.000; -965.000
292.955;  -98.600; -844.000; -684.000
293.094;  -22.650; -173.000; -337.000
293.233;  -59.300; -556.000; -400.000
293.371;  -34.900; -225.000;  -84.000
293.510; -101.500; -866.000; -780.000
293.649; -123.600; -959.000; -924.000
293.787; -105.600;-1083.000;-1012.000
293.926;  -23.625; -113.000;  -32.000
294.065;  -40.550; -379.000; -290.000
294.203;   33.950;  298.000;  406.000
294.342;   10.025;   74.000;  156.000
294.481; 5115.025;51180.000; -836.000
294.619;  -37.425; -425.000; -582.000
294.758; -156.925;-1230.000;-1137.000
294.896;    0.475; -125.000;    5.000
295.035; -143.250;-1040.000;-1006.000
295.174; -128.025;-1082.000; -954.000
295.312;  -45.100; -323.000; -203.000
295.451;  -38.975; -307.000; -428.000
295.589;  -76.200; -389.000; -518.000
295.728;   -1.300; -292.000; -165.000
295.866;  -19.900;  -36.000;  -51.000
296.005;  -73.175; -584.000; -341.000
296.143;  -73.400; -558.000; -596.000
296.282;  -99.125; -957.000; -881.000
296.420;  -85.850; -657.000; -557.000
296.559;  -97.325; -892.000; -633.000
296.697;  -63.950; -847.000; -665.000
296.835; -101.975;-1141.000;-1002.000
296.974;   16.375;  -23.000;   39.000
297.112;  -37.275; -443.000; -504.000
297.251; -100.650; -815.000; -755.000
297.389;  -19.325; -576.000; -438.000
297.527;    9.425; -145.000;  -83.000
297.666;  -62.900; -486.000; -438.000
297.804;  -48.400; -404.000; -264.000
297.942;  -13.925; -136.000; -161.000
298.081;   -5.475; -183.000;   63.000
298.219;    4.325;  -17.000;  -19.000
298.357;   -8.975; -144.000;  -71.000
298.495;  -69.700; -810.000; -812.000
298.634;    6.125;  245.000;  219.000
298.772;  -29.375; -220.000; -338.000
298.910;  -57.325; -309.000; -182.000
299.048;  -31.900; -130.000; -153.000
299.187;  -35.050; -350.000; -250.000
299.325;    1.900;   52.000;  122.000
299.463;  -20.575; -389.000; -299.000
299.601;    9.550; -327.000; -271.000
299.739; -128.025; -908.000; -883.000
299.877; -102.250; -791.000; -703.000
300.016;  -96.350;-1095.000; -935.000
300.154;   16.100;  -19.000; -161.000
300.292;  -30.925; -428.000; -348.000
300.430;  -21.425; -408.000; -291.000
300.568; -127.300; -940.000; -874.000
300.706;  -57.275; -366.000; -469.000
300.844; -128.425;-1108.000; -979.000
300.982;   62.025;  246.000;  282.000
301.120; -135.775; -965.000; -866.000
301.258;  -96.650; -812.000; -705.000
301.396;   -3.050;  104.000;  -41.000
301.534;  -26.150; -218.000; -293.000
301.672;  -78.100; -664.000; -521.000
301.810;  -74.825; -613.000; -545.000
301.948;   26.175;   53.000;  149.000
302.086;  206.600; -250.000;  -32.000
302.224;  225.475; -610.000; -585.000
302.362;  -76.650; -558.000; -622.000
302.500; -104.025; -923.000; -893.000
302.638;   39.775;  128.000;  245.000
302.776;  -38.825; -352.000; -408.000
302.913;   21.550;  447.000;  236.000
303.051;  -15.150;  -86.000;  -23.000
303.189;    9.800;   90.000;  118.000
303.327;  -45.525; -341.000; -256.000
303.465;  -92.600; -832.000; -588.000
303.603;  -98.300; -805.000; -604.000
303.740;   61.425;  417.000;  241.000
303.878;  -76.700; -800.000; -759.000
304.016; -110.650; -915.000; -790.000
304.154; -149.400;-1123.000;-1152.000
304.291;  -53.100; -505.000; -554.000
304.429;   10.125;  102.000;   74.000
304.567; -132.850; -908.000; -893.000
304.705;  -60.900; -408.000; -515.000
304.842;  -13.550; -616.000; -540.000
304.980;    9.075;  215.000;   35.000
305.118;  -27.575; -367.000; -365.000
305.255; -117.150; -945.000; -927.000
305.393;   47.350;  178.000;  239.000
305.531; -121.075;-1173.000; -956.000
305.668;  -84.625; -663.000; -582.000
305.806;    9.225; -358.000; -439.000
305.943;  -12.100; -629.000; -637.000
306.081;  -33.175; -378.000; -267.000
306.219;  -97.800; -863.000; -748.000
306.356;   15.575;  158.000;   27.000
306.494;   96.325;  981.000;  761.000
306.631;   -4.900;  -11.000;  -55.000
306.769;  -42.075; -613.000; -485.000
306.906;  -30.500; -284.000; -258.000
307.044;  -66.675; -473.000; -488.000
307.181;  -64.625; -410.000; -332.000
307.319;   16.425;  112.000;   87.000
307.456; -163.425;-1191.000;-1153.000
307.594; -105.975; -980.000; -727.000
307.731;  -20.550; -371.000; -164.000
307.868;  -18.100;  -15.000;   20.000
308.006; -143.725; -961.000; -847.000
308.143;  -63.600; -618.000; -330.000
308.281;   43.550;  -37.000; -254.000
308.418;  -72.400; -748.000; -640.000
308.555;  -68.000; -400.000; -250.000
308.693;  -68.500; -577.000; -573.000
308.830;  -89.825; -712.000; -657.000
308.967;  -15.050; -215.000;  -95.000
309.105;  -32.900; -507.000; -396.000
309.242;   -9.400; -468.000; -367.000
309.379;   42.475; -577.000; -655.000
309.517; -109.575; -936.000; -948.000
309.654;  -91.900; -910.000; -734.000
309.791;  -64.775; -662.000; -580.000
309.928; -105.975; -977.000; -914.000
310.065;  131.100;  819.000;  697.000
310.203;  -67.200; -825.000; -850.000
310.340;  -41.100; -465.000; -321.000
310.477;  -81.300; -412.000; -516.000
310.614;  -64.425; -383.000; -473.000
310.751;  -56.825; -427.000; -518.000
310.889;  -16.700;    1.000;   11.000
311.026; -138.850;-1161.000; -939.000
311.163;  -45.525; -386.000; -380.000
311.300;  -74.500; -512.000; -479.000
311.437;  -68.600; -658.000; -619.000
311.574; -138.700;-1226.000; -985.000
311.711;  -48.775; -595.000; -433.000
311.848;  -36.175; -380.000; -388.000
311.985;    2.025;  270.000;   93.000
312.122; -116.150; -932.000; -762.000
312.259; -110.350; -941.000; -994.000
312.396;  -67.075; -508.000; -551.000
312.533;  -87.300; -812.000; -790.000
312.670; -125.200;-1070.000; -898.000
312.807;  -38.525; -352.000; -367.000
312.944;  -59.600; -513.000; -611.000
313.081;  -27.225; -150.000; -415.000
313.218;  -72.325;-1111.000; -867.000
313.355;  -28.450; -531.000; -449.000
313.492;   -0.700; -455.000; -292.000
313.629;  121.650;  815.000;  735.000
313.766; -138.375;-1176.000;-1008.000
313.902;   -4.825; -186.000;   21.000
314.039;  -44.575; -372.000; -289.000
314.176;   18.475;  286.000;  192.000
314.313;  -74.850; -569.000; -473.000
314.450;  -72.625; -788.000; -684.000
314.587;  -50.725; -468.000; -480.000
314.723;   16.850;  -78.000;  130.000
314.860;   33.675;  318.000;  332.000
314.997;   23.250;  223.000;  142.000
315.134;  -32.025; -385.000; -368.000
315.270;  -23.600; -480.000; -496.000
315.407; -115.300;-1094.000; -967.000
315.544;  -41.775; -657.000; -538.000
315.681;  -52.250; -681.000; -565.000
315.817;   32.125; -133.000; -176.000
315.954;   29.250; -613.000; -392.000
316.091; -127.600;-1045.000;-1023.000
316.227;  -33.500;  -71.000; -179.000
316.364;   -3.475;   23.000;    6.000
316.500;  -41.925; -113.000; -300.000
316.637;  -42.950; -181.000; -302.000
316.774;  -87.375; -625.000; -358.000
316.910;  -88.850; -598.000; -629.000
317.047;  -68.075; -487.000; -351.000
317.183;  -65.725; -435.000; -566.000
317.320;   39.475; -367.000; -321.000
317.456;  -37.625; -733.000; -805.000
317.593;  -94.150; -598.000; -641.000
317.729;   -1.525;  168.000;  -67.000
317.866; -184.600;-1434.000;-1285.000
318.002; -100.700; -708.000; -948.000
318.139; -111.375; -883.000; -867.000
318.275; -110.400;-1003.000; -738.000
318.412;  -69.200; -517.000; -336.000
318.548;  -69.075; -751.000; -720.000
318.685;  -92.650; -985.000; -888.000
318.821;  -93.650; -762.000; -735.000
318.957;  -24.175;   34.000;  -23.000
319.094;   32.775;  297.000;  154.000
319.230;  -92.575; -756.000; -742.000
319.367;   -3.350; -471.000; -520.000
319.503;  -33.725; -538.000; -436.000
319.639;  -97.375; -877.000; -793.000
319.775;  -91.300; -750.000; -685.000
319.912;  -54.100; -424.000; -519.000
320.048; -102.475;-1184.000;-1184.000
320.184;   78.425;   59.000;   70.000
320.321;  -50.875; -497.000; -467.000
320.457;   63.475;  475.000;  662.000
320.593;  -68.375; -375.000; -382.000
320.729; -104.375; -732.000; -734.000
320.866;  -78.425; -577.000; -635.000
321.002;  -93.375; -759.000; -809.000
321.138;  -34.150; -135.000; -211.000
321.274;   14.275; -148.000; -115.000
321.410;  -63.450; -585.000; -353.000
321.546; -113.375;-1011.000; -911.000
321.683;   27.400;  400.000;  185.000
321.819;  -33.625;  -48.000; -117.000
321.955; -130.650; -743.000; -722.000
322.091;  -71.900; -585.000; -540.000
322.227;  -38.875; -382.000; -202.000
322.363;  -32.000; -320.000; -215.000
322.499;  -56.650; -343.000; -331.000
322.635;  106.025;  636.000;  443.000
322.771;   -9.200; -139.000;   12.000
322.907;   32.550;  129.000;  327.000
323.043;  -41.500; -115.000; -206.000
323.179;  -62.150; -394.000; -363.000
323.315;  -51.175; -401.000; -371.000
323.451;   17.775; -328.000; -236.000
323.587;   49.250;  -60.000;  -77.000
323.723;  -59.775; -682.000; -601.000
323.859;  -34.400; -258.000;  -76.000
323.995;  -53.975; -467.000; -409.000
324.131; -133.925; -967.000; -892.000
324.267;  -46.975; -254.000; -276.000
324.402; -133.775; -960.000; -983.000
324.538;  -33.800; -279.000; -104.000
324.674;  -10.525;  164.000;   77.000
324.810;   31.300;  226.000;  308.000
324.946;  -41.675; -810.000; -658.000
325.082;  -79.325; -568.000; -475.000
325.217;  -23.400;  -62.000;   16.000
325.353; -107.375; -764.000; -659.000
325.489;  -87.750; -540.000; -506.000
325.625;  -79.375; -579.000; -525.000
325.760;   84.100;  517.000;  376.000
325.896;    7.325; -515.000; -702.000
326.032;  -52.575; -403.000; -352.000
326.168;  -68.775; -462.000; -369.000
326.303;  -60.275; -352.000; -461.000
326.439;   -9.550; -336.000; -276.000
326.575;  -17.150; -190.000;  -29.000
326.710;  -30.675; -156.000;  -30.000
326.846;  -12.425;  146.000;  103.000
326.982;  -96.450; -530.000; -548.000
327.117;  -80.100; -481.000; -442.000
327.253;  -91.000; -745.000; -742.000
327.388; -135.400;-1137.000;-1153.000
327.524;  -81.450; -811.000; -578.000
327.659;  -21.800;  -58.000;  -22.000
327.795;  -18.900;   69.000;   45.000
327.931;  -68.875; -723.000; -499.000
328.066;  -38.275; -417.000; -276.000
328.202;   -9.600;   12.000; -129.000
328.337;   87.275;  957.000;  713.000
328.473;   30.875;  -12.000;  -74.000
328.608;  -33.000; -256.000; -267.000
328.743; -105.975; -799.000; -664.000
328.879;   11.900;  214.000;  114.000
329.014;  -27.550; -102.000; -122.000
329.150;  -82.600; -358.000; -483.000
329.285;  -71.900; -465.000; -466.000
329.421;  -38.700; -548.000; -246.000
329.556;  -22.725;  -36.000;   85.000
329.691;  -82.425; -633.000; -615.000
329.827;  -83.675; -626.000; -480.000
329.962;  -41.525;  131.000; -301.000
330.097;  -83.325; -673.000; -585.000
330.233;  -41.000; -410.000; -223.000
330.368; -123.150; -839.000; -628.000
330.503;  -31.325;    3.000;   98.000
330.638;  -18.550;  -93.000; -125.000
330.774;  -83.175; -609.000; -530.000
330.909;  -29.325; -434.000; -244.000
331.044;  -92.250; -714.000; -708.000
331.179; -162.000;-1217.000;-1109.000
331.315;   -5.825;   77.000;   20.000
331.450;   11.750;  157.000;  285.000
331.585;  -76.575; -805.000; -706.000
331.720;  -82.350; -510.000; -460.000
331.855;   -5.650;  -35.000; -102.000
331.990;  427.450;   62.000;  138.000
332.126;  229.300; -110.000;   71.000
332.261;    9.600; -379.000; -265.000
332.396;   17.175; -135.000; -242.000
332.531;  -53.875;-1074.000;-1031.000
332.666;  103.050; -519.000; -363.000
332.801;  -93.225; -726.000; -807.000
332.936;  -25.675; -192.000; -122.000
333.071; -132.100; -870.000; -817.000
333.206;    7.700;  307.000;  379.000
333.341;   23.225;  344.000;  418.000
333.476;  -75.175; -627.000; -623.000
333.611;  -33.250; -251.000; -173.000
333.746;  -53.650; -381.000; -464.000
333.881; -119.500; -973.000; -935.000
334.016; -136.275; -936.000; -917.000
334.151; -100.675; -746.000; -702.000
334.286;    1.525;  152.000;  186.000
334.421;  -26.700; -125.000; -178.000
334.556;  -84.450; -611.000; -567.000
334.690;  -92.825; -631.000; -577.000
334.825;   50.275;  381.000;   83.000
334.960;  -56.725; -285.000; -413.000
335.095;    3.125;  135.000;  -91.000
335.230;  -94.700; -722.000; -738.000
335.365; -131.350;-1084.000; -990.000
335.499; -122.275;-1108.000;-1037.000
335.634;   15.725;    9.000;  534.000
335.769;  -90.250; -755.000; -720.000
335.904;  -57.275; -603.000; -561.000
336.038;  -38.300; -735.000; -657.000
336.173; -116.200;-1206.000;-1194.000
336.308;   18.200; -116.000; -189.000
336.443;   64.250; -544.000; -634.000
336.577;  -45.650; -936.000; -787.000
336.712;   85.000;   -4.000;  -12.000
336.847;  -11.875; -724.000; -607.000
336.981;   67.000; -272.000; -208.000
337.116;  296.275;  615.000;  501.000
337.250;  116.500; -434.000; -421.000
337.385;  488.375; -297.000; -208.000
337.520;  241.100; -632.000; -603.000
337.654;  -34.600; -215.000; -126.000
337.789; -125.850; -989.000; -933.000
337.923;  -44.475; -104.000; -205.000
338.058; -107.225; -673.000; -738.000
338.192;  -66.975; -611.000; -488.000
338.327;  -24.900;  -18.000; -155.000
338.461;  -62.800; -299.000; -469.000
338.596;  -96.450; -780.000; -638.000
338.730;  -86.000; -767.000; -803.000
338.865;  158.775;  -46.000; -140.000
338.999;   10.475; -846.000; -702.000
339.134;    5.975; -634.000; -536.000
339.268;   27.575; -741.000; -603.000
339.403;  565.125; -740.000; -775.000
339.537;  268.100; -894.000; -820.000
339.671; -104.225; -829.000; -813.000
339.806;  -34.925; -556.000; -512.000
339.940;   39.375; -261.000; -235.000
340.074;  -98.175; -685.000; -510.000
340.209;  -44.700; -351.000; -230.000
340.343;  -84.275; -517.000; -573.000
340.477;  124.100;  998.000; 1036.000
340.612;   17.100;-1033.000; -900.000
340.746;  231.750; -199.000; -243.000
340.880;  -99.975; -924.000; -785.000
341.014;  -28.950;  -45.000; -154.000
341.149; -121.075; -756.000; -718.000
341.283; -110.800; -839.000; -754.000
341.417; -126.075;-1124.000; -938.000
341.551;  -43.350; -768.000; -708.000
341.685;  -73.750; -633.000; -611.000
341.820;  -49.150; -562.000; -493.000
341.954;  -59.125; -218.000; -349.000
342.088; -142.650;-1102.000;-1019.000
342.222;   33.600;  565.000;  618.000
342.356;  -78.025; -395.000; -335.000
342.490; -114.325; -880.000; -841.000
342.624;  -57.725; -339.000; -242.000
342.758;  -45.500; -364.000; -312.000
342.892;  -92.900; -710.000; -585.000
343.026;  -49.300;  -58.000; -116.000
343.160;  -68.900; -426.000; -376.000
343.294;  -80.600; -474.000; -337.000
343.428;  -73.300; -488.000; -448.000
343.562;  -38.550; -172.000;  -23.000
343.696;  -47.150; -385.000; -314.000
343.830;  -54.225; -362.000; -356.000
343.964;  -24.425; -231.000; -168.000
344.098;  297.375;  199.000;   70.000
344.232;  253.800; -266.000; -127.000
344.366;   71.875; -567.000; -453.000
344.500;  -37.850; -665.000; -744.000
344.634;  -27.700; -324.000; -164.000
344.768;  -67.900; -531.000; -341.000
344.902;   21.575;  278.000;  256.000
345.035;  -84.675; -556.000; -496.000
345.169; -133.150; -933.000; -656.000
345.303;  -67.925; -308.000; -482.000
345.437;  -99.925; -826.000; -717.000
345.571;  -60.200; -675.000; -594.000
345.704;  -70.625; -309.000; -532.000
345.838;  -25.450; -331.000; -284.000
345.972;  -59.925; -543.000; -495.000
346.106;  243.975; -179.000; -190.000
346.239;  480.400; -312.000; -243.000
346.373;  -12.175; -343.000; -302.000
346.507; -141.150; -950.000; -962.000
346.640;   29.675;  -30.000;   13.000
346.774;  -95.025; -650.000; -797.000
346.908;  -26.900; -138.000;  -11.000
347.041;  -92.675; -646.000; -593.000
347.175;   -8.850;  259.000;   27.000
347.309; -106.750; -698.000; -628.000
347.442; -115.300; -883.000; -732.000
347.576;  117.600;  670.000;  668.000
347.709;   42.550; -123.000;  -52.000
347.843; -130.025; -933.000; -825.000
347.976;   15.650;  235.000;  294.000
348.110; -172.800;-1268.000;-1186.000
348.243; -109.925; -679.000; -772.000
348.377;   13.550;  -26.000;   60.000
348.510;   38.175;  403.000;  540.000
348.644;  -60.050;  -37.000; -159.000
348.777;  -12.400;  180.000;  191.000
348.911;  -57.625; -142.000; -112.000
349.044;  101.625;  471.000;  448.000
349.178;  -40.250;-1069.000;-1006.000
349.311;  106.625;  141.000;  255.000
349.444;   35.075; -927.000; -813.000
349.578;  -38.450; -347.000; -200.000
349.711; -125.450; -959.000; -862.000
349.845;  -66.125; -661.000; -591.000
349.978; -166.150;-1224.000;-1137.000
350.111;  -90.050; -546.000; -612.000
350.244;  -95.550; -596.000; -700.000
350.378;  -57.450; -392.000; -393.000
350.511;  -71.100; -393.000; -426.000
350.644;  -97.875; -808.000; -806.000
350.778;   18.525;  168.000;  104.000
350.911;  -14.775;  134.000;  140.000
351.044; -106.250; -685.000; -615.000
351.177;  -42.425; -321.000; -281.000
351.310;  -28.450;    3.000; -131.000
351.444; -116.750; -888.000; -788.000
351.577;   33.275;  140.000;   90.000
351.710;   63.025;  593.000;  417.000
351.843;  -37.900; -165.000;  -77.000
351.976;  -25.750;  149.000;  -79.000
352.109; -101.550; -621.000; -612.000
352.242;  -59.375; -464.000; -419.000
352.376;  -84.900; -580.000; -636.000
352.509;    5.475; -437.000; -356.000
352.642; -100.875; -654.000; -604.000
352.775;    4.475; -141.000;  -98.000
352.908; -126.200; -933.000; -904.000
353.041; -113.075; -814.000; -824.000
353.174;  -66.625; -551.000; -424.000
353.307;  -96.825; -753.000; -764.000
353.440;   57.650;  541.000;  453.000
353.573; -104.650; -957.000;-1008.000
353.706;  -57.825; -384.000; -558.000
353.839;  -24.850; -264.000; -220.000
353.971;  -93.975; -657.000; -512.000
354.104; -110.475; -896.000; -835.000
354.237;  -81.075; -627.000; -662.000
354.370; -112.275; -846.000; -879.000
354.503; -181.850;-1231.000;-1308.000
354.636;  -35.450; -529.000; -348.000
354.769; -125.350; -937.000; -860.000
354.902;  -25.150; -230.000; -139.000
355.034;  -12.875; -164.000; -220.000
355.167;   -6.550; -262.000; -162.000
355.300;  -69.750;-1061.000; -880.000
355.433; 1426.850;  -71.000;  -14.000
355.565; 2256.750; -402.000; -384.000
355.698;  594.650; -356.000; -296.000
355.831;  -16.075; -882.000; -801.000
355.964;   10.675; -285.000; -170.000
356.096;  -86.850; -856.000; -843.000
356.229;   -5.150; -523.000; -530.000
356.362;  515.525; -373.000; -266.000
356.494;  916.750; -229.000; -162.000
356.627;  332.800;  269.000;  377.000
356.760;  880.025;  120.000;   53.000
356.892; 1526.925; -286.000; -601.000
357.025;  334.425;  403.000;  389.000
357.157;  228.025; -167.000; -179.000
357.290; 1237.325; -856.000; -713.000
357.423;  381.125; -667.000; -556.000
357.555;   94.700; -217.000; -228.000
357.688;  127.925; -483.000; -364.000
357.820;  158.425; -870.000; -877.000
357.953; 1483.975; -563.000; -589.000
358.085;  222.675; -632.000; -612.000
358.218;  100.050;-1131.000; -932.000
358.350;   31.750;  -58.000;  312.000
358.483; -160.300;-1300.000;-1187.000
358.615; -127.925;-1182.000;-1078.000
358.747; -146.075;-1187.000;-1058.000
358.880;  -50.850; -810.000; -744.000
359.012;  -27.450; -376.000; -202.000
359.145;  -70.050; -480.000; -511.000
359.277;  -54.950; -962.000; -913.000
359.409; 1261.475;  536.000;  231.000
359.542;  267.300; -738.000; -688.000
359.674;   16.875;   46.000;   13.000
359.806;  -66.275; -565.000; -438.000
359.939;  -41.550; -617.000; -516.000
360.071;   27.650; -583.000; -579.000
360.203;   -2.225; -411.000; -364.000
360.335;   11.100;  164.000;  -16.000
360.468;   90.450; -249.000; -307.000
360.600; 1319.650; -547.000; -454.000
360.732; 4303.575; -546.000; -423.000
360.864;  668.775;-1216.000;-1044.000
360.996;   60.725; -516.000; -554.000
361.129;  -53.525; -389.000; -598.000
361.261;  -13.600;  110.000; -113.000
361.393;  -62.625; -252.000; -214.000
361.525;  -12.300;   94.000;  244.000
361.657; -109.825; -821.000; -703.000
361.789;  -27.425; -139.000; -155.000
361.921;  -46.125; -642.000; -593.000
362.053;   84.050;  524.000;  541.000
362.185;    0.950;  288.000;   72.000
362.318; -104.650; -709.000; -705.000
362.450;   33.400;  294.000;  444.000
362.582;  -88.400; -913.000; -870.000
362.714;  -60.600; -353.000; -332.000
362.846;  -87.725; -606.000; -490.000
362.978; -136.475; -941.000; -811.000
363.109;  -34.825; -161.000; -260.000
363.241;  144.350; -739.000; -749.000
363.373;  616.425; -649.000; -564.000
363.505; 1058.575; -186.000;  -91.000
363.637;  237.250; -787.000; -601.000
363.769; -137.175;-1067.000;-1080.000
363.901;  -84.050; -596.000; -654.000
364.033; -151.250;-1103.000;-1062.000
364.165;  -23.700; -283.000; -283.000
364.296;  107.000; -316.000; -177.000
364.428;  227.200;-1344.000;-1220.000
364.560;  -64.275; -679.000; -661.000
364.692;  -83.475; -738.000; -835.000
364.824;  -14.675; -588.000; -456.000
364.955;  503.550; -402.000; -564.000
365.087; 1737.525;-1097.000; -852.000
365.219;  110.350; -686.000; -816.000
365.351;  -61.900; -526.000; -572.000
365.482;   25.175;  300.000;  240.000
365.614;  -62.550; -402.000; -314.000
365.746; -111.500; -729.000; -752.000
365.877;  -83.925; -706.000; -672.000
366.009;  415.950;  -35.000;  -62.000
366.141;  -15.675;-1249.000;-1134.000
366.272; -110.525; -803.000; -719.000
366.404; -115.050;-1005.000; -874.000
366.535;  -12.375; -139.000;  -12.000
366.667; -105.250; -644.000; -649.000
366.799;   23.850;  353.000;  203.000
366.930; -126.900; -862.000; -996.000
367.062;  203.200; -639.000; -613.000
367.193;  354.650; -872.000; -842.000
367.325;  -45.975; -580.000; -684.000
367.456;   -2.925; -246.000;   31.000
367.588;  274.500; -371.000; -318.000
367.719;   34.675;  -44.000;  -45.000
367.851;  -54.750; -222.000; -241.000
367.982; -117.000; -875.000; -732.000
368.113;  -37.400; -475.000; -358.000
368.245; -145.250; -960.000; -841.000
368.376;  -47.725; -254.000; -302.000
368.508;  -41.150; -188.000; -263.000
368.639; -161.825;-1166.000;-1034.000
368.770;  -74.600; -670.000; -589.000
368.902; -117.025; -836.000; -926.000
369.033; -123.725; -906.000; -855.000
369.164;  -33.425; -720.000; -653.000
369.296;  -98.450; -452.000; -601.000
369.427;  -45.075; -209.000; -144.000
369.558;  -80.025; -593.000; -377.000
369.689;  -82.575; -721.000; -569.000
369.821; -126.775; -951.000; -845.000
369.952;  -19.075;   42.000; -108.000
370.083;  -62.900; -229.000; -108.000
370.214; -103.600; -735.000; -650.000
370.345;  -16.225;   65.000;   81.000
370.477; -113.725; -810.000; -790.000
370.608;   16.400; -328.000; -264.000
370.739; -141.400;-1233.000;-1292.000
370.870; -124.550;-1102.000; -923.000
371.001;  -14.950; -378.000; -467.000
371.132;  -92.400; -754.000; -735.000
371.263;  -33.850;  -42.000; -148.000
371.394; -132.400; -841.000; -748.000
371.525;    1.850;  345.000;  225.000
371.657; -117.525; -808.000; -670.000
371.788;   28.850;  103.000;  199.000
371.919;    3.900; -384.000; -304.000
372.050; 1277.300;  -91.000; -156.000
372.181;  383.625; -188.000; -294.000
372.311;   99.675;   42.000; -127.000
372.442;  -45.800; -457.000; -451.000
372.573;  -69.350; -444.000; -340.000
372.704; -142.550;-1008.000; -980.000
372.835;  -22.625; -228.000; -289.000
372.966;  -79.125; -646.000; -554.000
373.097;  -96.750; -575.000; -711.000
373.228;  -96.500; -717.000; -542.000
373.359;  -59.050; -824.000; -536.000
373.490;  167.600; -881.000; -727.000
373.620;  240.150;-1001.000; -803.000
373.751;  508.525; -332.000; -396.000
373.882;  207.875; -663.000; -733.000
374.013;  -24.050; -449.000; -262.000
374.143;  -77.325; -581.000; -659.000
374.274; -126.700; -987.000; -908.000
374.405;   59.975; -388.000; -276.000
374.536;  110.425; -526.000; -387.000
374.666;  261.675; -759.000; -807.000
374.797;  -25.750; -817.000; -868.000
374.928;  175.700; -710.000; -560.000
375.058;  184.225; -535.000; -500.000
375.189;  -15.000;  -59.000;  -93.000
375.320; -127.550; -928.000;-1034.000
375.450;  -50.300; -625.000; -616.000
375.581;  -49.225; -526.000; -436.000
375.712;  -51.550; -574.000; -250.000
375.842;    6.075; -438.000; -415.000
375.973;  -26.875; -554.000; -513.000
376.103; -110.825; -665.000; -648.000
376.234; -102.250; -531.000; -552.000
376.364; -133.250; -944.000; -867.000
376.495;  158.825;  925.000;  529.000
376.625;  -66.675; -472.000; -485.000
376.756;  -61.100; -709.000; -678.000
376.886; -133.050;-1178.000;-1026.000
377.017;  149.425;-1048.000;-1061.000
377.147;  662.825; -786.000; -782.000
377.278;   77.750;  174.000;  228.000
377.408; -112.800; -801.000; -815.000
377.538;  -97.100; -707.000; -693.000
377.669; -101.125; -537.000; -613.000
377.799;  -98.900; -645.000; -635.000
377.929;  -99.600; -610.000; -428.000
378.060; -136.275; -781.000; -847.000
378.190;  -44.750; -726.000; -531.000
378.320;  -54.550; -401.000; -406.000
378.451;  -23.825; -131.000;  -22.000
378.581;  -22.925;  -67.000; -110.000
378.711;  100.925; 1035.000;  866.000
378.841;  -85.225; -533.000; -675.000
378.972; -109.725; -871.000; -751.000
379.102;  -78.250; -652.000; -579.000
379.232;  -46.425; -126.000;  -73.000
379.362; -122.375;-1001.000; -885.000
379.492;  -65.475; -373.000; -424.000
379.623;   26.875;    0.000;  111.000
379.753; -121.125;-1107.000; -974.000
379.883;   61.225;   59.000;  156.000
380.013;  -87.275;-1081.000;-1017.000
380.143; -132.175;-1097.000;-1056.000
380.273;  -97.975; -985.000; -861.000
380.403;    1.550; -344.000; -257.000
380.533;  -48.525; -651.000; -664.000
380.663;   21.525;  173.000;  128.000
380.793; -150.700;-1027.000;-1074.000
380.923;  -48.325; -103.000;  -34.000
381.053; -108.350; -613.000; -623.000
381.183;  -49.475; -106.000; -248.000
381.313;  -76.750; -656.000; -470.000
381.443;  -67.450; -692.000; -473.000
381.573;  -20.425; -402.000; -409.000
381.703;  -86.725;-1249.000;-1095.000
381.833; -192.150;-1454.000;-1336.000
381.963;    9.150; -134.000;  -87.000
382.093;  405.900; -925.000; -909.000
382.223;   82.725; -713.000; -602.000
382.353;  -86.675; -801.000; -608.000
382.482;   -6.925;-1091.000; -964.000
382.612;  172.800; -872.000; -644.000
382.742;   68.675; -695.000; -622.000
382.872;  -22.500; -565.000; -551.000
383.002;    7.575;  347.000; -132.000
383.131;  -38.950; -226.000; -160.000
383.261;  -37.250; -706.000; -768.000
383.391;  340.100; -552.000; -377.000
383.521; 5103.225;  451.000;  263.000
383.650; 1526.850; -947.000; -904.000
383.780;   44.925; -783.000; -656.000
383.910;   88.325;  880.000;  802.000
384.039;  -93.850; -794.000; -656.000
384.169;  -85.525;-1205.000;-1017.000
384.299;  -89.475; -650.000; -662.000
384.428; -107.750; -764.000; -680.000
384.558;  -79.450; -308.000; -275.000
384.687;  -72.950; -414.000; -334.000
384.817;   -9.500;   75.000;   -2.000
384.947;  -47.475; -234.000; -141.000
385.076;  149.900;  982.000;  912.000
385.206;   50.575;  369.000;  480.000
385.335;  -76.550; -549.000; -417.000
385.465; -108.575; -655.000; -663.000
385.594;   15.425;  -53.000;  -44.000
385.724;   20.625; -868.000; -838.000
385.853;   -3.550; -296.000; -270.000
385.982;  344.625; -743.000; -787.000
386.112;  634.125;-1052.000; -871.000
386.241;   10.725; -307.000; -312.000
386.371;  -20.950; -174.000;  -87.000
386.500;  -65.200; -825.000; -789.000
386.629;   -5.450; -874.000; -817.000
386.759;   66.400;  -43.000;   68.000
386.888;  -31.725; -170.000; -250.000
387.017;  -88.250; -648.000; -620.000
387.147; -121.475; -771.000; -798.000
387.276;  -65.750; -410.000; -397.000
387.405;  -52.850; -398.000; -342.000
387.535;  -91.325; -452.000; -361.000
387.664;  -65.425; -692.000; -620.000
387.793;   -8.225; -198.000; -113.000
387.922;  135.775;  255.000;  200.000
388.052;  -62.025; -576.000; -423.000
388.181;  -58.000; -342.000; -472.000
388.310; -103.625; -889.000; -710.000
388.439; -118.575; -749.000; -742.000
388.568;   40.175;  365.000;  244.000
388.697;  237.350; -756.000; -653.000
388.826;   -1.250; -768.000; -666.000
388.956;  -28.975; -285.000; -307.000
389.085;  -49.275; -347.000; -287.000
389.214; -124.550; -842.000; -872.000
389.343;  -79.125; -645.000; -413.000
389.472;  552.500;  126.000;  149.000
389.601;  643.050;   91.000;    0.000
389.730;  -16.500; -568.000; -687.000
389.859;   27.700;  226.000;   46.000
389.988;   22.750; -423.000; -408.000
390.117;   34.675; -168.000; -146.000
390.246;  -50.175; -331.000; -320.000
390.375;  -57.600; -673.000; -626.000
390.504;  -98.700; -703.000; -621.000
390.633; -120.375; -672.000; -726.000
390.761; -100.325; -732.000; -645.000
390.890;  -38.000;   -4.000; -130.000
391.019;  -74.800; -421.000; -441.000
391.148; -139.250; -826.000; -855.000
391.277;  -93.675; -576.000; -493.000
391.406; -122.175; -821.000; -805.000
391.534;    5.700;  574.000; -301.000
391.663; -103.525; -583.000; -645.000
391.792; -110.425; -673.000; -701.000
391.921;  -16.575;   -3.000;   15.000
392.050;   -1.425; -287.000; -228.000
392.178; -143.000;-1206.000;-1061.000
392.307;  -40.900; -758.000; -712.000
392.436;  -59.400; -427.000; -641.000
392.564;    0.100;  166.000;   -6.000
392.693; -109.800; -860.000; -682.000
392.822;   -1.225; -529.000; -534.000
392.950;  -46.625; -880.000; -714.000
393.079;   49.200; -188.000; -328.000
393.208;  -37.350; -488.000; -511.000
393.336;  -41.550; -170.000; -145.000
393.465;  -69.550; -317.000; -199.000
393.593;    6.250;   62.000;   79.000
393.722; -138.350;-1121.000; -916.000
393.850;  -34.150; -188.000;  -61.000
393.979; -138.425; -926.000; -805.000
394.107;  -66.750; -517.000; -537.000
394.236;  -60.625; -570.000; -507.000
394.364;   88.725;  383.000;  206.000
394.493;   59.400; -911.000; -767.000
394.621;    2.775; -955.000; -916.000
394.750; 1159.425; -873.000; -923.000
394.878; 4474.925; -247.000; -149.000
395.007; 6503.525; -721.000; -807.000
395.135;  588.050; -790.000; -721.000
395.263;  -68.675;-1038.000;-1040.000
395.392;   -7.875;  -25.000; -107.000
395.520; -124.450; -818.000; -679.000
395.648; -125.950; -865.000; -915.000
395.777;  -70.725; -366.000; -405.000
395.905;  -82.225; -449.000; -564.000
396.033;  -14.325;  217.000;  172.000
396.162;   91.550; -399.000; -453.000
396.290;  121.950;  -17.000;   -2.000
396.418;  -50.875; -555.000; -514.000
396.546; -103.150; -571.000; -466.000
396.674; -130.275; -850.000; -878.000
396.803;  -40.025;  -72.000;  -23.000
396.931;  -40.625; -179.000; -199.000
397.059; -138.075;-1026.000; -989.000
397.187; -138.575;-1026.000; -975.000
397.315; -147.900; -884.000; -649.000
397.443; -101.975; -592.000; -443.000
397.572; -105.650; -578.000; -424.000
397.700; -104.900; -607.000; -614.000
397.828;  -32.450;  120.000;  -90.000
397.956;  -44.150; -508.000; -478.000
398.084;  -25.300; -767.000; -626.000
398.212;    1.625;  137.000;  124.000
398.340;  -19.250;  -56.000;  159.000
398.468;  -54.250; -390.000; -169.000
398.596; -158.400; -993.000; -953.000
398.724; -124.350; -762.000; -767.000
398.852; -157.925;-1024.000; -976.000
398.980;  -90.950; -560.000; -560.000
399.108; -102.875; -982.000; -735.000
399.236;  -10.775;   13.000;    8.000
399.363;   -1.700;  222.000;  196.000
399.491;  -76.300; -404.000; -398.000
399.619; -120.900; -829.000; -800.000
399.747; -125.400; -859.000; -771.000
399.875;   22.800;  220.000;  234.000
400.003;  -74.375; -359.000; -284.000
400.130; -110.725; -421.000; -341.000
400.258;  -33.475;  -83.000;   38.000
400.386;  -58.125; -352.000; -168.000
400.514;  -84.875; -526.000; -587.000
400.641; -141.675; -928.000; -802.000
400.769; -138.575; -979.000; -888.000
400.897; -129.950; -838.000; -793.000
401.025;  -55.300; -166.000; -152.000
401.152;  -14.450;  220.000;   38.000
401.280;  -88.975; -430.000; -429.000
401.408; -120.975; -712.000; -576.000
401.535; -120.325; -735.000; -758.000
401.663; -187.825;-1134.000;-1054.000
401.790;  -97.325; -514.000; -525.000
401.918;   18.275;  436.000;  405.000
402.046;  -31.325;  134.000;  122.000
402.173;  -29.750;  -18.000;    7.000
402.301;  -87.600; -519.000; -397.000
402.428;   24.175;  528.000;  383.000
402.556; -155.075;-1188.000; -913.000
402.683;  -50.100;  -20.000;   -1.000
402.811;  -34.000;  -37.000; -206.000
402.938;  -27.575;   20.000;   27.000
403.066;   -6.750; -574.000; -558.000
403.193;   99.600;  299.000;  239.000
403.321;   47.125; -396.000; -574.000
403.448;  114.250;   83.000;   27.000
403.575;   45.925;  -90.000;  -46.000
403.703; -105.625; -732.000; -557.000
403.830;  -60.250; -531.000; -496.000
403.957; -121.025;-1117.000;-1023.000
404.085;   24.550;  -61.000; -172.000
404.212;  114.025;  -50.000;   63.000
404.339;  425.900; -566.000; -306.000
404.467; 8969.750; -612.000; -524.000
404.594; 5504.175; -287.000; -227.000
404.721;  953.900; -869.000; -764.000
404.848;  111.425; -113.000; -202.000
404.976;  -99.675; -856.000; -783.000
405.103;   -8.100;  -14.000;  -82.000
405.230;    2.800;  190.000;  226.000
405.357;   32.100;  117.000;   44.000
405.484;  418.500;  -49.000;    5.000
405.612;   94.200; -548.000; -563.000
405.739;  -50.350; -488.000; -243.000
405.866;   71.725;  669.000;  385.000
405.993;  -51.500; -398.000; -102.000
406.120; -133.575; -801.000; -887.000
406.247;  -80.100; -323.000; -342.000
406.374;   98.450;  540.000;  629.000
406.501;  -86.200; -632.000; -702.000
406.628; -102.425; -621.000; -589.000
406.755; -118.450; -803.000; -620.000
406.882;  -67.850; -228.000; -277.000
407.009; -107.775; -719.000; -628.000
407.136;  -59.500; -480.000; -401.000
407.263;  -66.800; -939.000; -829.000
407.390;  -99.675; -692.000; -614.000
407.517; -182.500;-1139.000;-1187.000
407.644;  -73.700; -332.000; -256.000
407.771;  -65.900; -249.000; -287.000
407.898;   -1.925;  168.000;  328.000
408.025;  -76.475; -421.000; -313.000
408.151;  -23.700;   82.000;  153.000
408.278;  -65.800; -267.000; -216.000
408.405; -132.525; -931.000; -899.000
408.532;  -88.900; -549.000; -542.000
408.659; -119.950; -677.000; -648.000
408.785; -194.850;-1298.000;-1170.000
408.912;  -73.650; -412.000; -296.000
409.039; -111.025; -610.000; -686.000
409.166; -114.225; -591.000; -555.000
409.292; -102.775; -571.000; -534.000
409.419; -109.850; -665.000; -649.000
409.546;  -86.300; -431.000; -192.000
409.672; -105.525; -713.000; -545.000
409.799;  -41.150;  -36.000;   34.000
409.926;  -54.075; -180.000; -179.000
410.052; -182.050;-1127.000;-1091.000
410.179;  -69.925; -368.000; -392.000
410.305;  -88.900; -375.000; -493.000
410.432;  -33.675; -220.000; -333.000
410.558;  -88.475; -305.000; -380.000
410.685;  -96.850; -688.000; -431.000
410.812; -110.475; -409.000; -588.000
410.938; -137.875; -964.000; -808.000
411.065; -119.725; -671.000; -645.000
411.191;  -52.375; -189.000; -174.000
411.317; -128.800; -823.000; -742.000
411.444;  -67.875; -317.000; -246.000
411.570;  -82.125; -339.000; -294.000
411.697; -124.575; -758.000; -752.000
411.823; -190.825; -989.000; -999.000
411.949;  -44.250;  -56.000;   17.000
412.076; -129.775; -539.000; -519.000
412.202; -119.300; -758.000; -757.000
412.329; -136.475; -798.000; -752.000
412.455; -124.725; -821.000; -657.000
412.581;  -39.350;  -15.000;  172.000
412.707;  -84.350; -540.000; -457.000
412.834;   -7.975;  156.000;  219.000
412.960; -113.750; -785.000; -784.000
413.086; -108.325; -743.000; -701.000
413.212;   91.000;  604.000;  578.000
413.339;  -88.750; -685.000; -701.000
413.465;  -67.825; -364.000; -310.000
413.591; -118.550; -757.000; -474.000
413.717;  -63.375; -358.000; -366.000
413.843; -131.825; -839.000; -861.000
413.969;  -62.475;  -47.000; -292.000
414.096;  -93.475; -679.000; -679.000
414.222;  -12.825;  -33.000;   85.000
414.348;  -73.350; -652.000; -385.000
414.474;   -2.850;   38.000;  -52.000
414.600;  -18.400; -126.000; -144.000
414.726;   -4.000;  -96.000;  -55.000
414.852;  -37.600; -365.000; -342.000
414.978;   31.550;  104.000;  -18.000
415.104;   58.625;   38.000;   80.000
415.230;   33.225; -329.000; -330.000
415.356;   64.800; -409.000; -514.000
415.482;  229.300;   13.000;  -35.000
415.608;  403.150; -247.000; -323.000
415.734; 1312.525;   67.000;   38.000
415.860;27402.625; -875.000; -767.000
415.986;22565.750; -685.000; -607.000
416.111; 2119.500; -798.000; -652.000
416.237;  482.575; -424.000; -571.000
416.363; 1675.900; -765.000; -733.000
416.489; 6773.800; -324.000; -251.000
416.615;  927.050; -707.000; -742.000
416.741;   70.000; -677.000; -784.000
416.866;  -70.950; -673.000; -736.000
416.992; -105.175; -801.000; -818.000
417.118;  -29.825;  -41.000;  -80.000
417.244;  -68.100; -798.000; -531.000
417.369;  -77.625; -801.000; -612.000
417.495;  -15.575; -325.000; -254.000
417.621;  -81.300;-1015.000; -803.000
417.746;    4.775; -579.000; -572.000
417.872;   73.525; -254.000; -144.000
417.998;  118.350; -515.000; -530.000
418.123; 1526.300;-1073.000; -845.000
418.249; 8530.700; -512.000; -601.000
418.374; 1450.425; -916.000; -824.000
418.500;  213.050; -383.000; -482.000
418.626;  175.975;   70.000;  -59.000
418.751;  160.475; -549.000; -448.000
418.877;  311.825; -637.000; -643.000
419.002; 2533.775; -688.000; -560.000
419.128;19485.500; -930.000; -721.000
419.253; 5554.525; -967.000; -837.000
419.379;  755.925; -391.000; -338.000
419.504;  590.175;  325.000;  415.000
419.629;  839.800; -393.000; -212.000
419.755; 5329.750; -317.000; -254.000
419.880;34867.175;  -98.000;   67.000
420.006;17500.075; -280.000; -221.000
420.131;43534.150; -662.000; -775.000
420.256; 7060.875; -315.000; -316.000
420.382;  964.900; -665.000; -687.000
420.507;  168.925; -649.000; -778.000
420.632;   43.350; -337.000; -339.000
420.758;   32.725; -251.000; -425.000
420.883;  -93.725; -876.000; -672.000
421.008; -106.600; -775.000; -619.000
421.133;  -98.775; -509.000; -467.000
421.259;  -62.275; -325.000; -259.000
421.384; -127.625; -834.000; -693.000
421.509; -120.475;-1052.000; -862.000
421.634;  158.425; -936.000; -820.000
421.759;   80.725; -359.000; -327.000
421.885;  -94.725; -717.000; -656.000
422.010;  -93.875; -673.000; -542.000
422.135; -140.700; -695.000; -727.000
422.260;   18.850;  340.000;  280.000
422.385;  -65.275;   12.000;  -98.000
422.510;   -5.300;  151.000;  -26.000
422.635;  -18.000;  -87.000;  -43.000
422.760;  -21.150; -766.000; -791.000
422.885;   36.200;  -57.000;  -80.000
423.010;  -43.425; -112.000; -169.000
423.135;  -92.475; -481.000; -561.000
423.260;  -45.900; -150.000; -245.000
423.385;   28.225;  476.000;  222.000
423.510;   -2.950;   71.000;  -22.000
423.635;   10.800;  133.000;   45.000
423.760;   41.175;  383.000;  328.000
423.885;   14.400;  336.000;  391.000
424.010;  -13.775;  -68.000;  -13.000
424.135;  -24.475;    5.000;  -33.000
424.259;  -77.475; -654.000; -457.000
424.384;  -52.200; -279.000; -272.000
424.509;  -33.075; -260.000; -186.000
424.634;  -71.250; -761.000; -623.000
424.759;  -28.025; -688.000; -544.000
424.883;    0.775; -506.000; -527.000
425.008;  187.900; -502.000; -410.000
425.133; 2864.800; -679.000; -653.000
425.258; 1546.525; -517.000; -381.000
425.382;  502.250; -867.000; -774.000
425.507; 1152.550; -487.000; -543.000
425.632;  376.050; -802.000; -663.000
425.756;  696.700; -256.000; -146.000
425.881;10084.175; -831.000; -857.000
426.006;31398.775; -604.000; -355.000
426.130; 5172.550; -696.000; -508.000
426.255;  689.300; -611.000; -491.000
426.379;  283.950; -189.000; -577.000
426.504;  517.125;  660.000;  544.000
426.629; 5628.850; -519.000; -466.000
426.753; 4447.750;   64.000;  -46.000
426.878;  567.500; -252.000; -288.000
427.002;  325.250; -651.000; -668.000
427.127; 2072.425;  -35.000; -158.000
427.251;17240.125;  372.000;  401.000
427.375; 5653.975; -191.000; -173.000
427.500; 1298.500; -616.000; -610.000
427.624;  400.650; -234.000; -400.000
427.749;   68.775; -216.000; -225.000
427.873;  -30.975; -499.000; -412.000
427.997;  -31.775; -222.000; -230.000
428.122;   68.950;  795.000;  703.000
428.246;   24.925;  433.000;  434.000
428.371; -133.525; -869.000; -773.000
428.495; -111.475; -624.000; -646.000
428.619;  -43.525; -186.000; -117.000
428.743;    4.650;   65.000;  132.000
428.868;  -84.100; -732.000; -643.000
428.992;  485.350; -219.000; -326.000
429.116;  171.325; -329.000; -357.000
429.240;   93.750;  419.000;  426.000
429.365;  -39.050; -454.000; -574.000
429.489;  -67.975; -638.000; -647.000
429.613;   27.075; -236.000; -177.000
429.737;   79.225; -563.000; -432.000
429.861;  372.475; -247.000; -133.000
429.985; 7924.950; -425.000; -305.000
430.109;10103.625; -770.000; -908.000
430.234; 1250.500;   76.000;  -50.000
430.358;  153.725; -250.000; -160.000
430.482;  -45.975; -672.000; -564.000
430.606;  -67.375; -655.000; -375.000
430.730;  -68.100; -437.000; -388.000
430.854;  -86.575; -909.000; -835.000
430.978; -102.525; -795.000; -764.000
431.102; -103.200; -499.000; -422.000
431.226; -126.350; -874.000; -815.000
431.350;   13.300;  345.000;  422.000
431.474;  -95.450; -661.000; -373.000
431.597; -160.475;-1060.000; -848.000
431.721;  -70.000; -276.000; -267.000
431.845; -122.175; -704.000; -472.000
431.969;  -68.325; -304.000; -349.000
432.093;  -87.800; -395.000; -317.000
432.217;  -16.175;   32.000;   82.000
432.341; -101.525; -523.000; -518.000
432.464;  -11.500;   96.000;   40.000
432.588;  -31.100; -401.000; -329.000
432.712;   15.700;  -52.000;  -52.000
432.836;   55.700;  213.000;  263.000
432.959;   10.800; -372.000; -311.000
433.083;  167.175;   11.000;    2.000
433.207;  560.325;  285.000;  930.000
433.330; 7631.075; -391.000; -200.000
433.454;10616.100; -654.000; -638.000
433.578; 5866.500;  583.000;  278.000
433.701; 1283.875; -623.000; -675.000
433.825;  157.250; -292.000; -299.000
433.949;   43.100;   28.000;  -72.000
434.072;  -16.575; -410.000; -323.000
434.196;  -10.275; -309.000; -117.000
434.319; 3562.625;25482.000;25124.000
434.443;  872.325; -656.000; -603.000
434.566; 4120.125;  281.000;   62.000
434.690;  898.225; -637.000; -383.000
434.813;  142.050; -251.000; -173.000
434.937;  -53.925; -569.000; -696.000
435.060;  -86.550; -423.000; -332.000
435.184;  -25.725; -492.000; -217.000
435.307;   -2.125;  159.000;  102.000
435.431;  -48.050;  -40.000;   24.000
435.554;  -88.650; -399.000; -240.000
435.677;  -79.975; -350.000; -258.000
435.801;  -58.775;  -25.000;   49.000
435.924;  -52.100;    1.000;  -67.000
436.048; -169.075;-1019.000; -732.000
436.171;  -73.500; -240.000;  -66.000
436.294;    3.225; -248.000; -229.000
436.417;  230.425; -963.000; -849.000
436.541;  -11.350; -814.000; -840.000
436.664;  -42.525; -242.000; -316.000
436.787;  -32.600;   13.000;  113.000
436.910; -126.700; -792.000; -422.000
437.034;  -29.975;  142.000;  143.000
437.157;   -0.125;  -11.000;    0.000
437.280;  -97.950; -392.000; -292.000
437.403; -132.975; -982.000; -869.000
437.526;   -7.575; -903.000; -865.000
437.649;  430.275; -505.000; -332.000
437.772;   -9.375; -692.000; -540.000
437.896;   47.200;  700.000;  544.000
438.019; -111.700; -758.000; -503.000
438.142;  -95.575; -596.000; -506.000
438.265; -122.125; -639.000; -670.000
438.388;   10.725; -520.000; -410.000
438.511;  -69.925; -597.000; -394.000
438.634;  -83.725; -247.000; -125.000
438.757; -140.150; -693.000; -619.000
438.880;  -62.450;  -34.000;  -57.000
439.003; -103.425; -417.000; -437.000
439.126;  -76.575; -287.000; -167.000
439.248;  -69.550;  -98.000; -139.000
439.371;  -48.975;    9.000;  -53.000
439.494;   34.125;  510.000;  439.000
439.617;  -59.325;   65.000;  -88.000
439.740; -171.150; -968.000; -816.000
439.863; -144.550; -755.000; -595.000
439.986; -114.550; -476.000; -431.000
440.108;  -53.775; -161.000; -112.000
440.231; -165.800; -950.000; -836.000
440.354;  -64.900;  -64.000; -150.000
440.477; -113.600; -566.000; -542.000
440.599;  -88.850; -200.000; -225.000
440.722; -132.225; -709.000; -586.000
440.845;   48.775;  751.000;  928.000
440.968; -111.625; -415.000; -311.000
441.090;  -70.850; -199.000;  -33.000
441.213; -170.850;-1021.000; -825.000
441.336;  -62.375; -159.000;   -5.000
441.458;  -89.625; -549.000; -396.000
441.581; -138.500; -628.000; -629.000
441.703;  -84.550; -152.000;   13.000
441.826; -111.900; -557.000; -400.000
441.948;  -62.050;   56.000;   51.000
442.071;   14.675;  555.000;  424.000
442.193; -119.900; -531.000; -485.000
442.316;    9.650;  152.000;   97.000
442.438;   76.525; -233.000;  -10.000
442.561;   60.150;  272.000;  262.000
442.683;   33.525; -809.000; -522.000
442.806;  230.050;   -8.000;   74.000
442.928; -103.750; -859.000; -604.000
443.051;  -94.575; -577.000; -373.000
443.173;  -95.275; -341.000; -339.000
443.295;  -98.875; -263.000; -371.000
443.418;  -81.825; -321.000;  -29.000
443.540;  -41.400; -106.000;   -4.000
443.662; -127.725; -563.000; -465.000
443.785;  -27.100;  335.000;  199.000
443.907; -100.675; -362.000; -208.000
444.029; -132.275; -767.000; -494.000
444.152; -131.925; -644.000; -554.000
444.274;  -53.825;  -18.000;  -24.000
444.396; -122.375; -461.000; -221.000
444.518; -134.350; -691.000; -454.000
444.640;  -93.750; -268.000; -111.000
444.763;  -10.400;  388.000;  249.000
444.885; -117.600; -432.000; -392.000
445.007;  -31.075;   35.000;   86.000
445.129; -130.250; -610.000; -515.000
445.251; -110.825; -372.000; -439.000
445.373; -140.075; -537.000; -386.000
445.495;  -15.300;  242.000;  350.000
445.617;   26.000;  853.000;  753.000
445.739;  -85.625; -215.000;  -97.000
445.861;  -63.925; -245.000; -112.000
445.984;  -70.350; -267.000; -101.000
446.105;  -24.900; -418.000; -251.000
446.227;   97.200; -176.000;  -19.000
446.349;  -81.400; -358.000; -249.000
446.471; -144.400; -615.000; -448.000
446.593;  -85.825; -316.000;   19.000
446.715;  -49.725;  -67.000;   41.000
446.837;   44.125;  697.000;  832.000
446.959; -108.925; -457.000; -478.000
447.081; -148.550; -628.000; -518.000
447.203;   35.450;  862.000;  834.000
447.325;  -79.475; -270.000;   42.000
447.446;   -7.000;  286.000;  530.000
447.568; -170.550; -921.000; -803.000
447.690;  -82.050; -236.000; -245.000
447.812; -139.000; -798.000; -519.000
447.933;  -27.650;  155.000;  127.000
448.055;  -68.950; -306.000; -261.000
448.177;   21.825;   31.000;   79.000
448.299; -104.375; -935.000; -727.000
448.420;  -15.275;  -25.000;  159.000
448.542;  -54.375;   -3.000;   33.000
448.664;  -29.675;  109.000;  322.000
448.785;  -23.825;  265.000;   83.000
448.907; -103.600; -614.000; -353.000
449.028; -120.100; -771.000; -471.000
449.150;   27.025;  492.000;  589.000
449.272; -177.775;-1044.000; -913.000
449.393;   21.750;  612.000;  694.000
449.515; -145.675; -634.000; -581.000
449.636;  -76.025; -264.000; -155.000
449.758;   42.775;  763.000;  622.000
449.879;  -92.500; -498.000; -396.000
450.001;  -81.650; -149.000;  -49.000
450.122;  -32.925;  -95.000;  162.000
450.244;  -29.450;   37.000;  364.000
450.365;  -79.650; -495.000; -301.000
450.486;  -12.450;   80.000;  268.000
450.608;   30.725;  393.000;  326.000
450.729;  111.400;  578.000;  645.000
450.850;   96.200; -574.000; -466.000
450.972; 1190.975; -552.000; -389.000
451.093; 7964.800;  190.000;  588.000
451.214; 4118.750; -516.000; -337.000
451.336;  694.225;  773.000;  579.000
451.457;  112.100;  264.000;  393.000
451.578;  -29.250; -118.000;  -74.000
451.699; -104.325; -546.000; -540.000
451.821;  -60.375; -284.000;  -50.000
451.942;    9.975;  278.000;  285.000
452.063;   56.825;  228.000;  419.000
452.184;  803.650;  -54.000;  -49.000
452.305; 1759.625;  103.000;  170.000
452.427;  339.825; -549.000; -301.000
452.548;    3.500;   23.000;   79.000
452.669;  -75.825; -257.000;  -89.000
452.790;  -59.775;    3.000;  -18.000
452.911;  -38.450;  195.000;  259.000
453.032;  -78.825; -289.000;  -60.000
453.153;  -70.625;  -29.000;   81.000
453.274;   42.150;  737.000;  868.000
453.395;  -57.700;  -51.000;  175.000
453.516;   87.425; 1317.000; 1388.000
453.637;  -93.000; -205.000; -150.000
453.758;  -70.925;   15.000;   69.000
453.879; -125.550; -462.000; -250.000
454.000;   73.775; 1086.000;  948.000
454.121; -113.750; -554.000; -326.000
454.242; -112.875; -599.000; -383.000
454.362;  -65.550;  -99.000;  114.000
454.483;  -16.250; -309.000; -229.000
454.604;   61.925;  512.000;  580.000
454.725; -125.825; -627.000; -555.000
454.846; -122.325; -474.000; -406.000
454.967;  -14.925;  230.000;  539.000
455.087;  -35.150;  179.000;  153.000
455.208;   -2.925;  554.000;  856.000
455.329;  -52.200;  -22.000;   82.000
455.450;   59.375;  473.000;  633.000
455.570;  -52.900; -234.000; -211.000
455.691;  -32.925;  201.000;  407.000
455.812; -111.350; -270.000;  -92.000
455.932;  -61.075;  107.000;  -97.000
456.053;  -66.625;   36.000;   24.000
456.173; -110.525; -433.000; -355.000
456.294; -132.950; -476.000; -303.000
456.415;  -65.350;  -73.000;   70.000
456.535;  -25.925;  297.000;  273.000
456.656;  -50.200;  132.000;  240.000
456.776;  -56.875;    3.000;  298.000
456.897;   -8.650;  308.000;  513.000
457.017;  -64.275; -153.000;   -3.000
457.138; -109.775; -402.000; -249.000
457.258;  -42.800;  263.000;  224.000
457.379;  -16.100;  509.000;  521.000
457.499;  -35.625;  443.000;  432.000
457.620; -109.375; -407.000; -231.000
457.740;  -94.425; -132.000;  -11.000
457.860;  -47.875;   87.000;   44.000
457.981;  -49.125;  132.000;  124.000
458.101;  -78.400;  -89.000;   40.000
458.221;   -9.125;  336.000;  402.000
458.342;  -52.200;   -4.000;  -37.000
458.462;   49.775;  617.000;  352.000
458.582;   21.800; -302.000; -294.000
458.703;   60.150;  303.000;  154.000
458.823;    8.300;   22.000;  163.000
458.943;   49.525;  341.000;  467.000
459.063;   -3.450; 1124.000;  192.000
459.183;  -20.200;  328.000;  313.000
459.304;   13.425;  315.000;  517.000
459.424;  -31.975; -246.000;  -89.000
459.544;  463.500;  388.000;  764.000
459.664; 1303.425;  499.000;  506.000
459.784;  516.425; 1004.000; 1175.000
459.904;   89.550;  867.000;  744.000
460.024;   63.750;  867.000;  684.000
460.144;  -17.900;  449.000;  554.000
460.264;  -18.800;  515.000;  327.000
460.385;  -84.725; -145.000; -119.000
460.505;   28.125;  905.000;  858.000
460.625; -101.200;  -17.000;  -68.000
460.745;  -20.500;  396.000;  541.000
460.864;  -44.350;  153.000;  469.000
460.984;   17.100;  499.000;  573.000
461.104;  135.275; 1656.000; 1775.000
461.224;   20.800;  657.000;  650.000
461.344;  -37.250;  431.000;  360.000
461.464;  -25.900;  258.000;  513.000
461.584;  -29.625;  283.000;  466.000
461.704;  -64.225;   58.000;  108.000
461.824;  -58.200;  238.000;  259.000
461.943;  -43.375;  191.000;  130.000
462.063;  -72.575;    2.000;  324.000
462.183;   18.225;  639.000;  717.000
462.303;   83.350; 1678.000; 1230.000
462.422;   29.525;  781.000;  840.000
462.542;  -41.050;  271.000;  391.000
462.662;   35.900;  353.000;  380.000
462.782;  334.625;  833.000;  572.000
462.901;  748.075;  545.000;  717.000
463.021;  397.775; 1702.000; 1638.000
463.141;   20.850;  337.000;  770.000
463.260;    3.000;  614.000;  474.000
463.380;   13.900;  902.000;  884.000
463.499;  -26.975;  342.000;  332.000
463.619;  -20.375;  581.000;  559.000
463.738;  113.575; 1644.000;  903.000
463.858;    0.425;  657.000;  811.000
463.978;  -45.400;  542.000;  396.000
464.097;   53.100;  921.000; 1114.000
464.217;  162.875; 1196.000; 1143.000
464.336;  153.850; 1068.000; 1130.000
464.455;  -18.200;  328.000;  659.000
464.575;   11.225;  597.000;  602.000
464.694;  124.350; 1204.000; 1179.000
464.814;  154.950; 1190.000; 1138.000
464.933;   85.475; 1095.000; 1027.000
465.052;   93.775; 1412.000; 1054.000
465.172;   71.275;  922.000;  799.000
465.291;  117.425; 1376.000; 1320.000
465.410;    1.900;  462.000;  735.000
465.530;   78.650; 1355.000; 1310.000
465.649;   55.875; 1209.000; 1273.000
465.768;  116.300; 1673.000; 1508.000
465.888;   68.775;  941.000; 1174.000
466.007;   79.250; 1335.000; 1440.000
466.126;    4.375;  721.000;  641.000
466.245;   36.200; 1176.000; 1187.000
466.364;   16.025;  950.000; 1060.000
466.484;   25.075; 1024.000; 1213.000
466.603;   37.325; 1101.000; 1222.000
466.722;   91.250; 1490.000; 1769.000
466.841;   74.600; 1151.000; 1401.000
466.960;   45.275; 1069.000;  972.000
467.079;  121.000; 1971.000; 1786.000
467.198;   41.625; 1238.000; 1181.000
467.317;   82.850; 1768.000; 1162.000
467.436;   72.425; 1709.000; 1261.000
467.555;  107.450; 1796.000; 1746.000
467.674;   65.550; 1227.000; 1329.000
467.793;   34.475; 1376.000; 1374.000
467.912;   90.425; 1658.000; 1539.000
468.031;  138.475; 2038.000; 1930.000
468.150;  127.450; 1842.000; 1837.000
468.269;  188.850; 2313.000; 2090.000
468.388;  192.475; 2168.000; 2339.000
468.507;  244.275; 2884.000; 2903.000
468.626;  263.250; 2555.000; 2541.000
468.744;  145.875; 2018.000; 2174.000
468.863;  184.700; 2312.000; 2523.000
468.982;   97.225; 1503.000; 1555.000
469.101;  219.625; 2788.000; 2692.000
469.220;  158.925; 2333.000; 2176.000
469.338;  246.750; 2935.000; 3051.000
469.457;  194.175; 2719.000; 2545.000
469.576;  337.475; 3953.000; 3784.000
469.695;  241.150; 2877.000; 3066.000
469.813;  407.000; 4148.000; 4192.000
469.932;  408.325; 4255.000; 4485.000
470.051;  437.800; 4075.000; 4161.000
470.169; 1034.275; 4470.000; 4338.000
470.288; 2000.125; 4700.000; 4809.000
470.406; 1183.900; 5059.000; 5194.000
470.525;  688.300; 6101.000; 5787.000
470.644;  660.225; 6847.000; 6794.000
470.762;  808.500; 8397.000; 7873.000
470.881;  888.075; 8651.000; 8464.000
470.999; 1089.925; 9685.000; 9151.000
471.118; 1133.125;11174.000;10711.000

