
Integration time [ms]: 100.000
Averaging Nr. [scans]: 40
Smoothing Nr. [pixels]: 0
Data measured with spectrometer [name]: 2101012U2
Wave   ;Sample   ;Dark     ;Reference
[nm]   ;[counts] ;[counts] ;[counts] 

197.733;   63.400;  516.000;  404.000
197.879;  -85.200; -610.000; -634.000
198.025;  -46.650; -475.000; -420.000
198.171;  -81.100; -602.000; -612.000
198.317;  -31.850; -401.000; -316.000
198.463;  -62.825; -655.000; -404.000
198.609;   33.500;  181.000; -137.000
198.755;  -84.875; -644.000; -410.000
198.901;  -56.575; -505.000; -424.000
199.047;  -72.225; -615.000; -488.000
199.193;  -38.650; -230.000; -468.000
199.339;  -32.900; -222.000; -369.000
199.485;   38.800;  330.000;  271.000
199.631;   21.775;  227.000;  310.000
199.777;  -59.525; -466.000; -398.000
199.923;  -59.725; -610.000; -424.000
200.069;    7.675; -141.000;  -58.000
200.215;   59.350;  128.000;  453.000
200.361;   57.075;  243.000;  477.000
200.507;  -63.275; -600.000; -373.000
200.653;  -34.375; -371.000; -194.000
200.798;  -37.275; -215.000; -125.000
200.944;   -2.450; -146.000;  -41.000
201.090;   34.825;   61.000;  222.000
201.236;   -4.125; -116.000; -158.000
201.382;  109.650;  874.000;  903.000
201.528;    2.775;  -58.000;  -48.000
201.674;  -36.975; -386.000; -293.000
201.819;  -50.325; -540.000; -439.000
201.965;  -83.575; -699.000; -447.000
202.111;  -38.825; -273.000; -226.000
202.257;  -31.575; -250.000; -238.000
202.402;   18.050;   13.000;  -36.000
202.548;  -30.575; -169.000; -116.000
202.694;   85.250;  410.000; -183.000
202.840;  -73.025; -603.000; -531.000
202.985;  -62.750; -681.000; -639.000
203.131; -111.375; -832.000; -666.000
203.277;   -2.825; -199.000; -262.000
203.423;  -52.825; -434.000; -520.000
203.568;  -39.675; -462.000; -237.000
203.714;  -56.900; -535.000; -542.000
203.860;  -69.700; -682.000; -641.000
204.005;    4.700;  112.000;  167.000
204.151;   94.250;  561.000;  556.000
204.296;  -51.000; -354.000; -221.000
204.442;  -68.625; -600.000; -547.000
204.588;  -76.150; -592.000; -579.000
204.733;   31.525;  178.000;  168.000
204.879; -134.300;-1018.000; -822.000
205.025;    7.100;  -99.000;  126.000
205.170;   -5.250;  -17.000;   94.000
205.316;   83.425;  438.000;  661.000
205.461;  -77.200; -698.000; -554.000
205.607;   86.600;  609.000;  665.000
205.752;  -73.950; -626.000; -551.000
205.898;  -52.800; -501.000; -391.000
206.043;  -80.125; -578.000; -506.000
206.189;  -48.350; -243.000; -285.000
206.334;   97.625;  554.000;  606.000
206.480;   95.325;  409.000;  239.000
206.625;  -86.625; -529.000; -552.000
206.771;  -58.525; -451.000; -373.000
206.916;  -28.725; -210.000; -537.000
207.062;  -68.600; -545.000; -591.000
207.207;  -60.075; -546.000; -443.000
207.353;   44.075;  185.000;  460.000
207.498;   17.250;  196.000;   85.000
207.643;  -50.850; -501.000; -370.000
207.789; -124.800;-1069.000; -910.000
207.934;  -93.050; -665.000; -713.000
208.080;  -24.875; -154.000;   66.000
208.225;   -5.875;  -22.000;  -57.000
208.370;  -87.175; -727.000; -619.000
208.516;  -67.900; -741.000; -487.000
208.661;  -34.550; -127.000;  -69.000
208.806;   -7.775; -165.000; -171.000
208.952; -140.975;-1044.000; -731.000
209.097;   73.825;  378.000;  349.000
209.242;  -47.075; -307.000; -382.000
209.387;   63.075;  392.000;  350.000
209.533;  -48.625; -321.000; -350.000
209.678;   77.975;  472.000;  543.000
209.823;  -56.525; -408.000; -310.000
209.969;  -95.275; -860.000; -757.000
210.114; -107.500; -907.000; -719.000
210.259; -111.700; -939.000; -889.000
210.404;  -10.600; -171.000;  103.000
210.549;   12.075;  108.000;    3.000
210.695;  -25.250;   -3.000;  -95.000
210.840;   40.450;   94.000;   67.000
210.985;  -67.475; -484.000; -303.000
211.130;   66.175;  268.000;  406.000
211.275;    5.825;  207.000;  199.000
211.420;  -41.050; -300.000; -289.000
211.566;  -68.825; -536.000; -489.000
211.711;   22.450;  218.000;  157.000
211.856;  -73.525; -545.000; -519.000
212.001;   26.775;  151.000;   44.000
212.146;   32.375;  153.000;   49.000
212.291;  -12.850; -210.000; -186.000
212.436;  -29.000; -280.000;   -6.000
212.581;  -88.725; -685.000; -653.000
212.726;  -84.300; -487.000; -538.000
212.871;  -40.775; -552.000; -217.000
213.016; -140.900;-1172.000;-1029.000
213.161;   64.075;  406.000;  291.000
213.306;  -76.275; -435.000; -577.000
213.451; -108.400; -778.000; -689.000
213.596;  -45.675; -455.000; -347.000
213.741;  -62.400; -448.000; -538.000
213.886;  -70.200; -498.000; -517.000
214.031;  -18.975; -294.000; -124.000
214.176;  -47.300; -408.000; -341.000
214.321;  -17.050; -296.000; -157.000
214.466;  -10.975; -163.000;  -43.000
214.611;   -4.100;  -61.000;  -10.000
214.756; -130.350; -948.000; -858.000
214.901;  -16.250; -388.000; -226.000
215.046; -122.425; -797.000; -825.000
215.191;   16.325;  128.000;   35.000
215.336;  -18.475; -157.000;  -19.000
215.480;  -71.600; -684.000; -505.000
215.625;  -12.775; -175.000;  -19.000
215.770;  -87.825; -757.000; -662.000
215.915;  -19.500;   -5.000;  -97.000
216.060;    2.650; -113.000;  -21.000
216.205; -123.525; -731.000; -779.000
216.349;  -64.100; -470.000; -533.000
216.494; -138.900; -939.000; -867.000
216.639; -116.825; -823.000; -888.000
216.784;  -92.000; -577.000; -525.000
216.929;   56.650;  392.000;  281.000
217.073;  -27.550; -244.000;  -31.000
217.218;    6.425;   78.000;  -47.000
217.363;  -82.400; -656.000; -618.000
217.507;  -74.975; -623.000; -588.000
217.652; -126.500; -845.000; -874.000
217.797;  -78.125; -708.000; -659.000
217.942; -106.350; -856.000; -720.000
218.086;   72.950;  608.000;  539.000
218.231;  -16.625; -174.000;  -26.000
218.376;  -28.800; -337.000; -229.000
218.520;   -0.825;  -41.000;   96.000
218.665;  -34.250; -338.000; -204.000
218.810;  -37.750; -275.000; -233.000
218.954;   10.975;  201.000;   35.000
219.099; -110.550; -713.000; -963.000
219.243;  -62.800; -589.000; -554.000
219.388;  -44.950; -264.000; -136.000
219.532;   -4.525; -116.000; -116.000
219.677;  -78.700; -564.000; -521.000
219.822;   14.225;   33.000;   89.000
219.966;   -1.850;   17.000;  -99.000
220.111;  -25.025; -328.000;  -40.000
220.255; -109.425; -797.000; -750.000
220.400;  -19.450; -180.000; -146.000
220.544;  -72.950; -516.000; -450.000
220.689;  -42.400; -422.000; -451.000
220.833;  -13.525; -123.000;  -58.000
220.978;  -46.700; -393.000; -563.000
221.122;   20.375;  319.000;  307.000
221.267; -109.675; -906.000; -837.000
221.411;  -68.000; -478.000; -394.000
221.555;   -6.375; -104.000;  -23.000
221.700;  -59.725; -329.000; -222.000
221.844;   33.200;  255.000;  272.000
221.989;  -58.500; -328.000; -311.000
222.133;  -38.275; -289.000; -307.000
222.277;  -17.900;    5.000;   78.000
222.422;   21.725;  227.000;  113.000
222.566;  -46.275; -381.000; -214.000
222.711;  -58.650; -414.000; -479.000
222.855;  -76.200; -643.000; -586.000
222.999;  -71.000; -642.000; -717.000
223.144;  -35.525; -195.000; -194.000
223.288;   54.850;  423.000;  251.000
223.432;   29.800;  184.000;  230.000
223.576;   20.225;  152.000;  -21.000
223.721;   35.625;  364.000;  273.000
223.865;  -53.400; -472.000; -475.000
224.009;  252.975; 1673.000; 1631.000
224.153;  -84.725; -660.000; -671.000
224.298;  -70.825; -531.000; -489.000
224.442;   -4.575;  -74.000;  -33.000
224.586;  -15.650; -169.000; -106.000
224.730;  -88.025; -858.000; -670.000
224.875; -121.400; -739.000; -688.000
225.019;   -0.575;  102.000;  188.000
225.163;   53.525;  208.000;  341.000
225.307;   27.125;   97.000;  -91.000
225.451;   43.400;  360.000;  481.000
225.595;   28.150;  264.000;  176.000
225.739;  -22.250; -170.000;  -94.000
225.884;    3.075;   86.000;    5.000
226.028; -105.125; -760.000; -626.000
226.172;  -24.450; -260.000; -273.000
226.316; -124.975; -941.000; -902.000
226.460;  -66.525; -645.000; -493.000
226.604;  -48.300; -406.000; -400.000
226.748;  -95.925; -836.000; -733.000
226.892;  -40.475; -227.000; -181.000
227.036;  -47.225; -537.000; -447.000
227.180;  -58.000; -551.000; -375.000
227.324;  -60.525; -561.000; -580.000
227.468; -114.325; -819.000; -717.000
227.612;   28.375;  242.000;  -28.000
227.756; -107.675; -845.000; -698.000
227.900;   62.275;  342.000;  441.000
228.044;  -64.325; -509.000; -290.000
228.188;   60.000;  448.000;  568.000
228.332;  -85.800; -546.000; -472.000
228.476;  -20.850; -223.000; -149.000
228.620;  -36.725; -210.000; -150.000
228.764;   62.800;  431.000;  349.000
228.908;  -27.875; -155.000;   30.000
229.052;  -54.450; -615.000; -528.000
229.195;  -18.625; -172.000;   13.000
229.339;  -35.175; -235.000; -305.000
229.483;  -37.850;    5.000; -162.000
229.627;    1.025; -156.000;  139.000
229.771;  -55.000; -218.000; -294.000
229.915;   18.475;  230.000;   79.000
230.059;  -89.450; -648.000; -663.000
230.202;  -46.350; -370.000; -317.000
230.346;  -23.825; -107.000;  107.000
230.490;  -57.425; -489.000; -521.000
230.634; -112.150; -736.000; -553.000
230.777;   73.300;  478.000;  509.000
230.921;  -59.800; -450.000; -359.000
231.065;  -43.425; -246.000; -286.000
231.209;   27.950;  261.000;  265.000
231.352;   27.750;   54.000;   40.000
231.496;   15.675;  568.000;  188.000
231.640;  -73.050; -693.000; -621.000
231.783;   52.925;  546.000;  525.000
231.927;  -44.175; -294.000; -365.000
232.071; -132.775; -962.000; -736.000
232.214;  -96.650; -980.000; -764.000
232.358; -103.825; -683.000; -599.000
232.502;    9.125;  -19.000;    7.000
232.645; -130.650;-1090.000; -927.000
232.789;  -20.425; -257.000; -218.000
232.933;  -48.575; -407.000; -224.000
233.076; -117.250;-1038.000; -897.000
233.220;  -98.675; -752.000; -777.000
233.363;  -70.475; -669.000; -477.000
233.507;   47.400;  371.000;  129.000
233.650;  -91.100; -764.000; -834.000
233.794;   46.950;  438.000;  461.000
233.938;  -63.600; -530.000; -362.000
234.081;  -19.325;  -93.000;   31.000
234.225;  -69.500; -631.000; -539.000
234.368; -108.500; -773.000; -723.000
234.512;  -38.175; -385.000; -299.000
234.655;  -92.850; -582.000; -555.000
234.798;  -62.725; -493.000; -466.000
234.942; -126.875; -884.000;-1002.000
235.085;  -72.875; -651.000; -443.000
235.229;  -86.425; -405.000; -410.000
235.372;  -26.350; -247.000; -191.000
235.516;  -56.250; -397.000; -321.000
235.659;   23.025;   92.000;  121.000
235.802;   -9.400;  -38.000;  -22.000
235.946;   32.475;  335.000;  215.000
236.089;   24.900;  126.000;  250.000
236.233;   66.075;  275.000;  298.000
236.376;  -49.200; -235.000; -378.000
236.519;  -49.025; -297.000; -319.000
236.663;  -16.950; -215.000; -117.000
236.806; -124.200;-1029.000; -999.000
236.949;   59.175;  543.000;  431.000
237.092;   65.525;  412.000;  391.000
237.236;  -90.725; -589.000; -502.000
237.379;   72.525;  352.000;  428.000
237.522; -125.750; -879.000; -768.000
237.666;   -5.725; -271.000;   18.000
237.809; -119.600; -851.000; -823.000
237.952;   37.100;  469.000;  271.000
238.095;  -71.000; -447.000; -442.000
238.238;   88.250;  688.000;  700.000
238.382;    2.950;  166.000;  103.000
238.525;  -65.050; -598.000; -511.000
238.668; -138.525;-1060.000; -985.000
238.811;  -75.375; -638.000; -643.000
238.954;  -56.450; -483.000; -334.000
239.097;   99.700;  617.000;  664.000
239.241;   15.625;  394.000;  326.000
239.384;  -35.000; -254.000; -214.000
239.527;  -67.375; -424.000; -224.000
239.670; -151.100; -994.000;-1091.000
239.813; -121.925; -696.000; -658.000
239.956;   62.275;  579.000;  473.000
240.099; -121.150; -778.000; -725.000
240.242;   65.300;  428.000;  432.000
240.385;   42.225;  466.000;  450.000
240.528;  -59.575; -706.000; -473.000
240.671;   13.475;  189.000;  134.000
240.814;  -39.725; -441.000; -158.000
240.957; -102.375; -767.000; -578.000
241.100;  -81.925; -779.000; -755.000
241.243; -142.775;-1234.000; -893.000
241.386;  -50.575; -508.000; -379.000
241.529;  -97.100; -735.000; -547.000
241.672;  -51.075; -566.000; -495.000
241.815; -112.025; -832.000; -808.000
241.958;  -18.600; -125.000; -182.000
242.101;  -81.000; -545.000; -390.000
242.244;  -27.450; -270.000; -325.000
242.387;  -24.750; -304.000; -246.000
242.530;   64.925;  470.000;  134.000
242.673;  -45.975; -381.000; -309.000
242.815; -120.300; -925.000; -899.000
242.958;  -63.725; -482.000; -381.000
243.101;   10.675;  132.000;  187.000
243.244;  -81.250; -564.000; -521.000
243.387;  -50.700; -313.000; -316.000
243.530;  -92.900; -657.000; -674.000
243.672;   -8.700;   43.000;  -92.000
243.815;  -53.125; -355.000; -283.000
243.958;   -3.925;   98.000;  -26.000
244.101;  -15.200;   59.000;  -16.000
244.243;   -1.675;  -47.000;  101.000
244.386; -113.550; -761.000; -630.000
244.529;  -25.475; -132.000; -139.000
244.672; -157.525;-1154.000; -951.000
244.814; -101.825; -621.000; -794.000
244.957;  -45.100; -380.000; -304.000
245.100;  -78.675; -489.000; -489.000
245.242;  -67.775; -387.000; -374.000
245.385;   -3.150;  -59.000;  -39.000
245.528; -119.250; -871.000; -705.000
245.670;   75.850;  612.000;  634.000
245.813;  -83.525; -599.000; -547.000
245.956;  -32.225; -324.000; -275.000
246.098;  -68.700; -508.000; -650.000
246.241;   12.775;  194.000;   48.000
246.383;  -12.100; -119.000;  -73.000
246.526;  -74.150; -454.000; -525.000
246.669; -111.025; -889.000; -780.000
246.811;   37.725;  172.000;   -1.000
246.954;  -69.625; -512.000; -426.000
247.096;   -9.400;  -84.000;   -6.000
247.239;  -71.150; -482.000; -445.000
247.381;  -75.475; -647.000; -488.000
247.524;   77.225;  645.000;  679.000
247.666;  -11.000;   58.000;   11.000
247.809; -123.400; -887.000; -691.000
247.951;  -13.650;  -75.000;  138.000
248.094;   24.075;  432.000;  308.000
248.236; -159.175;-1262.000;-1238.000
248.378;   12.100; -356.000;  -81.000
248.521;   -7.675; -334.000; -337.000
248.663;  -45.575; -236.000; -267.000
248.806;  -18.050; -300.000; -266.000
248.948;  -89.525; -886.000; -763.000
249.090;  -40.650; -428.000; -398.000
249.233;  -45.900; -344.000; -381.000
249.375;  -48.425; -474.000; -451.000
249.518;  -31.425;  -83.000; -133.000
249.660;    2.325; -103.000;    3.000
249.802; -178.150;-1303.000;-1189.000
249.945;  -83.100; -612.000; -540.000
250.087; -118.775; -834.000; -768.000
250.229;  -44.600; -362.000; -480.000
250.371;  -76.125; -494.000; -439.000
250.514;  -43.525; -310.000; -244.000
250.656;  -12.575;   69.000;  102.000
250.798; -110.575; -849.000; -800.000
250.940;  -52.675; -322.000; -322.000
251.083;  -21.750; -335.000; -111.000
251.225;   49.425;  338.000;  310.000
251.367;  -37.150; -274.000; -373.000
251.509;  -27.650; -265.000; -210.000
251.651;  -84.325; -731.000; -671.000
251.794;   64.000;  538.000;  632.000
251.936; -102.925; -821.000; -747.000
252.078;  -84.550; -540.000; -461.000
252.220;  -67.250; -645.000; -477.000
252.362;   86.700;  344.000;  462.000
252.504;  -61.225; -677.000; -584.000
252.646; -111.525; -875.000; -722.000
252.788;    7.100;   14.000; -128.000
252.931;  -43.675; -257.000; -253.000
253.073;  -41.600; -376.000; -317.000
253.215;    2.700;  141.000;  122.000
253.357;   -7.125;   82.000; -153.000
253.499;  -45.225; -374.000; -234.000
253.641;  -63.625; -749.000; -594.000
253.783; -100.025; -609.000; -527.000
253.925;  -83.825; -586.000; -591.000
254.067; -114.250; -744.000; -667.000
254.209;  -12.450; -391.000; -259.000
254.351; -124.900; -865.000; -883.000
254.493;  -57.300; -441.000; -417.000
254.635; -130.050; -936.000; -818.000
254.777;  -92.775; -752.000; -687.000
254.918;  -63.300; -512.000; -430.000
255.060;  -61.300; -551.000; -395.000
255.202;  -57.475; -473.000; -261.000
255.344;  -73.875; -658.000; -455.000
255.486;  -71.825; -471.000; -406.000
255.628; -111.100; -780.000; -781.000
255.770;  -94.225; -676.000; -536.000
255.912;  -55.625; -559.000; -468.000
256.053; -100.100; -730.000; -508.000
256.195;  160.000; 1008.000;  903.000
256.337; -113.950; -861.000; -595.000
256.479;   52.925;  532.000;  416.000
256.621;  -53.225; -394.000; -212.000
256.762;  -92.400; -789.000; -742.000
256.904;   49.500;  485.000;  487.000
257.046;  -42.775; -381.000; -271.000
257.188;  -48.775; -351.000; -264.000
257.329;  -75.000; -525.000; -464.000
257.471; -107.725; -939.000; -807.000
257.613;  -50.525; -584.000; -498.000
257.755; -153.250;-1073.000; -982.000
257.896;   37.150;  286.000;  392.000
258.038;  -60.750; -403.000; -352.000
258.180;  -35.075; -354.000; -279.000
258.321;  -85.550; -581.000; -457.000
258.463;   -2.050;  -71.000;  133.000
258.605;  -83.825; -562.000; -570.000
258.746;  -96.750; -886.000; -772.000
258.888; -149.350;-1026.000;-1020.000
259.029;   17.675;  121.000;   -8.000
259.171;  -92.900; -614.000; -550.000
259.313;    3.550;  -49.000;  -47.000
259.454;  -62.775; -536.000; -414.000
259.596;  -59.700; -483.000; -390.000
259.737;  -89.475; -590.000; -474.000
259.879;   31.825;  217.000;  311.000
260.020;   94.175;  901.000;  636.000
260.162;  -31.975; -146.000; -253.000
260.303; -126.325; -768.000; -687.000
260.445;  -80.875; -609.000; -613.000
260.586;   21.950;  392.000;  157.000
260.728;  -33.175; -360.000; -248.000
260.869; -116.300; -350.000; -343.000
261.011;   77.500;  706.000;  537.000
261.152;  -66.875; -479.000; -319.000
261.293;  -72.650; -576.000; -595.000
261.435;  -38.050; -219.000; -184.000
261.576;  -50.575; -455.000; -325.000
261.718;   56.950;  420.000;  470.000
261.859; -128.825; -940.000; -949.000
262.000; -132.450; -951.000;-1016.000
262.142;  -22.625;  -52.000;  -60.000
262.283; -120.050; -808.000; -691.000
262.424;  -75.475; -666.000; -625.000
262.566; -157.600;-1161.000; -983.000
262.707; -104.175; -840.000; -830.000
262.848; -118.775; -769.000; -726.000
262.990;  -44.325; -362.000; -345.000
263.131;   78.475;  650.000;  681.000
263.272;    2.025;  -61.000;  -41.000
263.413;  -99.950; -589.000; -561.000
263.555;  -64.725; -669.000; -143.000
263.696;  -88.775; -550.000; -641.000
263.837;  -53.825; -449.000; -551.000
263.978;    2.225;   -5.000;  -77.000
264.119;  -36.125; -283.000; -264.000
264.261; -124.450; -847.000; -630.000
264.402;   17.975;   33.000;   40.000
264.543;  -71.900; -509.000; -524.000
264.684;  -12.375;   61.000;  -50.000
264.825;  -84.450; -816.000; -538.000
264.966;   -2.400;  -84.000;  -67.000
265.107; -119.275; -646.000; -670.000
265.248; -113.400; -825.000; -812.000
265.390;  -16.925;  152.000;   -9.000
265.531;  -21.400; -238.000; -107.000
265.672; -100.825; -557.000; -630.000
265.813;   62.100;  563.000;  439.000
265.954; -147.200; -959.000; -940.000
266.095;   -7.400; -372.000; -322.000
266.236; -104.700; -686.000; -548.000
266.377;  -40.025; -243.000; -297.000
266.518;  -67.025; -619.000; -547.000
266.659;   35.375;  170.000;  268.000
266.800;   12.550;   83.000;   85.000
266.941;  -76.850; -487.000; -478.000
267.082;   10.250;  354.000;   99.000
267.223;  -45.975; -344.000; -273.000
267.364; -115.075; -892.000; -686.000
267.504;   -8.975;    3.000;  135.000
267.645;    2.525;  160.000;   67.000
267.786;  -32.550; -147.000;  -86.000
267.927;  -66.925; -473.000; -379.000
268.068;   -6.625; -186.000;  -61.000
268.209;  -43.800; -175.000; -413.000
268.350;  -54.125; -388.000; -532.000
268.490;  -88.575; -648.000; -521.000
268.631;   45.500;  127.000;  225.000
268.772;  -99.375; -874.000; -647.000
268.913;  -39.650; -328.000; -476.000
269.054;   -9.750; -117.000;   12.000
269.194;  -37.750; -418.000; -402.000
269.335; -149.600;-1137.000;-1074.000
269.476;  -11.800;   33.000;  -35.000
269.617;  -51.875; -347.000; -392.000
269.757;  -82.700; -713.000; -646.000
269.898; -106.975; -856.000; -613.000
270.039;  -58.000; -415.000; -405.000
270.180; -142.325; -952.000; -816.000
270.320;  -16.900; -190.000; -250.000
270.461;  -41.125; -277.000; -249.000
270.602;  -12.700; -186.000; -156.000
270.742; -129.450; -868.000; -943.000
270.883;  -50.150; -442.000; -390.000
271.023;  -51.300; -358.000; -357.000
271.164;  -62.375; -607.000; -528.000
271.305; -105.300; -666.000; -654.000
271.445;  -75.275; -722.000; -683.000
271.586;  -75.350; -462.000; -283.000
271.726;  -43.675; -397.000; -322.000
271.867;  -50.600; -594.000; -534.000
272.008;  209.700; -473.000; -285.000
272.148;  142.250;  462.000;  468.000
272.289;   21.000; -113.000; -181.000
272.429;   20.250;   19.000;  185.000
272.570;  -76.925; -633.000; -737.000
272.710; -104.575; -825.000; -775.000
272.851;  -19.625;  113.000; -130.000
272.991; -159.625;-1173.000;-1077.000
273.131;  -65.400; -419.000; -459.000
273.272;  -98.825; -683.000; -723.000
273.412;   15.350; -143.000;  -31.000
273.553;  -47.875; -488.000; -507.000
273.693;  143.900;  913.000;  858.000
273.834;  -75.000; -894.000; -692.000
273.974;  -70.150; -664.000; -615.000
274.114; -102.850; -772.000; -560.000
274.255;   78.750;  414.000;  373.000
274.395;   12.650; -180.000; -125.000
274.535;   39.800;  199.000;  350.000
274.676;   19.625;  225.000;   94.000
274.816;   12.950;  110.000;   34.000
274.956;  -87.675; -624.000; -690.000
275.097;  -46.975;-1014.000; -922.000
275.237; -119.025; -913.000; -803.000
275.377;  -88.675; -778.000; -689.000
275.517; -141.200; -878.000; -937.000
275.658;  -58.050; -590.000; -555.000
275.798;  -75.875; -606.000; -413.000
275.938;   28.000;  215.000;  323.000
276.078; -102.400; -626.000; -395.000
276.218;   18.100;   99.000;  104.000
276.359; -123.650;-1026.000;-1024.000
276.499;  -62.450; -605.000; -446.000
276.639;  -40.925; -305.000; -151.000
276.779;  -46.800; -475.000; -357.000
276.919;  -99.500; -783.000; -624.000
277.059;   -7.200; -261.000; -212.000
277.199;  -43.200; -357.000; -259.000
277.340;   43.275;  287.000;  175.000
277.480; -115.000; -840.000; -693.000
277.620;   34.525;  192.000;   16.000
277.760; -202.225;-1533.000;-1294.000
277.900;   27.425;  113.000;   33.000
278.040;   20.975;  137.000;  159.000
278.180;   44.625;  270.000;  170.000
278.320;    0.725;   21.000;   56.000
278.460;  -56.825; -443.000; -469.000
278.600;  -84.925; -708.000; -598.000
278.740;   54.350;  448.000;  224.000
278.880;  -38.100; -768.000; -791.000
279.020;    8.925; -194.000; -144.000
279.160;  -86.650; -672.000; -595.000
279.300; -119.050; -926.000; -873.000
279.440;  -88.000; -709.000; -622.000
279.579;   -6.225;-1014.000; -929.000
279.719;  -59.875; -410.000; -394.000
279.859;   80.725;   -4.000;   41.000
279.999;   29.850; -208.000;  101.000
280.139;   -1.850; -435.000; -387.000
280.279;  -74.400; -708.000; -745.000
280.419;  -18.900; -229.000; -147.000
280.559;  -34.100; -259.000; -180.000
280.698;  -78.600; -790.000; -639.000
280.838;  -81.500; -778.000; -800.000
280.978;  -88.900; -846.000; -790.000
281.118; -108.300; -811.000; -704.000
281.257;   21.075;   24.000;    6.000
281.397;  -93.250;-1094.000; -960.000
281.537;  -77.125; -599.000; -712.000
281.677;  -34.750; -150.000; -101.000
281.816;  -93.150; -700.000; -630.000
281.956;  -33.025; -193.000; -257.000
282.096;  -55.575; -539.000; -396.000
282.235; -106.650; -672.000; -638.000
282.375;  -13.625; -243.000;  -98.000
282.515; -106.075; -715.000; -707.000
282.654;   38.900;   29.000;  106.000
282.794;   23.225;  388.000;  244.000
282.934;  -41.650; -530.000; -491.000
283.073; -136.325;-1030.000; -857.000
283.213;  -50.850; -460.000; -467.000
283.353;  -33.575; -408.000; -349.000
283.492;  -26.525; -264.000; -296.000
283.632;  -48.200; -254.000; -168.000
283.771; -104.975; -859.000; -730.000
283.911;  -44.800; -369.000; -260.000
284.050;  -99.425; -794.000; -748.000
284.190; -164.400;-1229.000;-1096.000
284.329; -142.200;-1055.000; -964.000
284.469;  -57.800; -516.000; -591.000
284.608;  -45.100; -559.000; -598.000
284.748;  -77.025; -614.000; -570.000
284.887;    2.975;  -87.000;  -20.000
285.027; -126.650; -844.000; -892.000
285.166;  -32.600; -192.000; -249.000
285.306;    2.000; -116.000;  -33.000
285.445;  -27.225; -229.000; -343.000
285.584;  -83.950; -630.000; -494.000
285.724;  -42.975; -282.000; -322.000
285.863;  -97.750; -857.000; -507.000
286.002;  -48.700; -366.000; -276.000
286.142; -106.375; -715.000; -622.000
286.281;  -68.350; -525.000; -493.000
286.420;  -74.525; -554.000; -417.000
286.560;   95.575;  653.000;  623.000
286.699; -133.250; -958.000; -912.000
286.838;  -76.775; -590.000; -591.000
286.978;  -94.725; -533.000; -537.000
287.117; -135.250;-1085.000; -950.000
287.256;  -46.225; -228.000; -211.000
287.395;  -47.475; -197.000; -378.000
287.535;  -64.225; -370.000; -298.000
287.674;  -70.675; -509.000; -484.000
287.813;   55.475;  661.000;  533.000
287.952; -114.400;-1010.000; -871.000
288.091; -148.450;-1049.000; -915.000
288.231;   15.850;   13.000;   15.000
288.370; -169.075;-1217.000;-1200.000
288.509;  -82.800; -728.000; -645.000
288.648; -109.650; -770.000; -548.000
288.787;  -24.100; -243.000;  -87.000
288.926;  -72.925; -454.000; -475.000
289.065;  111.475;  859.000;  672.000
289.204;  -51.000; -377.000; -217.000
289.344;  -83.075; -791.000; -690.000
289.483;   16.775;  416.000;  304.000
289.622;  -25.375; -291.000; -149.000
289.761;  -10.250; -309.000; -166.000
289.900;  -95.925; -785.000; -626.000
290.039;   -5.750;  -12.000;  -95.000
290.178;  -32.125; -274.000; -180.000
290.317;  -78.500; -618.000; -479.000
290.456;  -67.975; -463.000; -451.000
290.595; -141.625; -961.000; -833.000
290.734; -139.225; -904.000; -891.000
290.873;  -73.000; -456.000; -420.000
291.011; -105.150; -833.000; -843.000
291.150; -114.925; -770.000; -682.000
291.289;  -17.900; -343.000; -110.000
291.428; -102.575; -599.000; -480.000
291.567;  -48.075; -370.000; -442.000
291.706;   -2.450;  109.000;  154.000
291.845;  -90.100; -597.000; -505.000
291.984; -159.225;-1234.000;-1061.000
292.122;   71.900;  602.000;  582.000
292.261;   42.800;  620.000;  463.000
292.400;    5.875; -144.000;  211.000
292.539; -104.800; -959.000; -813.000
292.678;  -32.500; -325.000; -300.000
292.816; -149.725;-1136.000; -965.000
292.955;  -67.325; -844.000; -684.000
293.094;  -25.625; -173.000; -337.000
293.233;  -46.850; -556.000; -400.000
293.371;  -29.375; -225.000;  -84.000
293.510; -105.050; -866.000; -780.000
293.649; -117.100; -959.000; -924.000
293.787;  -34.300;-1083.000;-1012.000
293.926;    1.325; -113.000;  -32.000
294.065;  -37.650; -379.000; -290.000
294.203;   49.050;  298.000;  406.000
294.342;   31.975;   74.000;  156.000
294.481; 5741.575;51180.000; -836.000
294.619;  -15.525; -425.000; -582.000
294.758; -135.750;-1230.000;-1137.000
294.896;   99.800; -125.000;    5.000
295.035; -135.050;-1040.000;-1006.000
295.174; -119.975;-1082.000; -954.000
295.312;  -23.550; -323.000; -203.000
295.451;   21.325; -307.000; -428.000
295.589;  -47.300; -389.000; -518.000
295.728;   37.075; -292.000; -165.000
295.866;    6.800;  -36.000;  -51.000
296.005;  -63.950; -584.000; -341.000
296.143;  -66.125; -558.000; -596.000
296.282; -109.300; -957.000; -881.000
296.420;  -85.300; -657.000; -557.000
296.559;  -69.650; -892.000; -633.000
296.697;   50.000; -847.000; -665.000
296.835;  101.650;-1141.000;-1002.000
296.974;   49.775;  -23.000;   39.000
297.112;   40.825; -443.000; -504.000
297.251;  -65.350; -815.000; -755.000
297.389;  127.725; -576.000; -438.000
297.527;   63.275; -145.000;  -83.000
297.666;  -11.600; -486.000; -438.000
297.804;  -43.275; -404.000; -264.000
297.942;   -7.350; -136.000; -161.000
298.081;   -6.675; -183.000;   63.000
298.219;  100.400;  -17.000;  -19.000
298.357;   71.700; -144.000;  -71.000
298.495;   73.850; -810.000; -812.000
298.634;   96.225;  245.000;  219.000
298.772;   85.350; -220.000; -338.000
298.910;  -31.975; -309.000; -182.000
299.048;    7.825; -130.000; -153.000
299.187;  -42.000; -350.000; -250.000
299.325;   30.925;   52.000;  122.000
299.463;   78.550; -389.000; -299.000
299.601;  152.550; -327.000; -271.000
299.739;  -90.000; -908.000; -883.000
299.877;  -79.925; -791.000; -703.000
300.016;  -37.025;-1095.000; -935.000
300.154;  194.650;  -19.000; -161.000
300.292;   78.550; -428.000; -348.000
300.430;   51.825; -408.000; -291.000
300.568; -102.650; -940.000; -874.000
300.706;  -46.675; -366.000; -469.000
300.844;  -68.850;-1108.000; -979.000
300.982;  144.550;  246.000;  282.000
301.120;  -95.425; -965.000; -866.000
301.258;  -59.650; -812.000; -705.000
301.396;   39.750;  104.000;  -41.000
301.534;  127.050; -218.000; -293.000
301.672;   27.125; -664.000; -521.000
301.810;   70.425; -613.000; -545.000
301.948;  148.925;   53.000;  149.000
302.086;  735.525; -250.000;  -32.000
302.224; 1133.450; -610.000; -585.000
302.362;   64.875; -558.000; -622.000
302.500;    9.225; -923.000; -893.000
302.638;  138.425;  128.000;  245.000
302.776;   10.325; -352.000; -408.000
302.913;   58.700;  447.000;  236.000
303.051;    7.725;  -86.000;  -23.000
303.189;   71.925;   90.000;  118.000
303.327;  -29.625; -341.000; -256.000
303.465;  -78.775; -832.000; -588.000
303.603;  -93.100; -805.000; -604.000
303.740;  123.550;  417.000;  241.000
303.878;   52.675; -800.000; -759.000
304.016;  -82.575; -915.000; -790.000
304.154; -107.850;-1123.000;-1152.000
304.291;  -22.075; -505.000; -554.000
304.429;    7.950;  102.000;   74.000
304.567; -115.950; -908.000; -893.000
304.705;  -53.325; -408.000; -515.000
304.842;  146.950; -616.000; -540.000
304.980;   58.225;  215.000;   35.000
305.118;   64.925; -367.000; -365.000
305.255;  -50.325; -945.000; -927.000
305.393;   64.975;  178.000;  239.000
305.531;  -85.700;-1173.000; -956.000
305.668;  -61.850; -663.000; -582.000
305.806;  115.450; -358.000; -439.000
305.943;  133.100; -629.000; -637.000
306.081;   71.350; -378.000; -267.000
306.219;  -90.625; -863.000; -748.000
306.356;   11.375;  158.000;   27.000
306.494;  116.325;  981.000;  761.000
306.631;    2.925;  -11.000;  -55.000
306.769;   15.850; -613.000; -485.000
306.906;  -19.600; -284.000; -258.000
307.044;  -62.000; -473.000; -488.000
307.181;  -73.850; -410.000; -332.000
307.319;   11.475;  112.000;   87.000
307.456; -182.525;-1191.000;-1153.000
307.594;  -91.175; -980.000; -727.000
307.731;   -7.200; -371.000; -164.000
307.868;    2.175;  -15.000;   20.000
308.006; -132.275; -961.000; -847.000
308.143;  -59.925; -618.000; -330.000
308.281;  166.025;  -37.000; -254.000
308.418;   10.875; -748.000; -640.000
308.555;  -63.775; -400.000; -250.000
308.693;  -59.450; -577.000; -573.000
308.830; -104.275; -712.000; -657.000
308.967;  -12.075; -215.000;  -95.000
309.105;  -46.850; -507.000; -396.000
309.242;   48.500; -468.000; -367.000
309.379;  338.225; -577.000; -655.000
309.517;  -59.400; -936.000; -948.000
309.654; -108.950; -910.000; -734.000
309.791;  -68.400; -662.000; -580.000
309.928; -121.175; -977.000; -914.000
310.065;  203.550;  819.000;  697.000
310.203;   18.850; -825.000; -850.000
310.340;   -1.300; -465.000; -321.000
310.477;  -82.675; -412.000; -516.000
310.614;  -64.050; -383.000; -473.000
310.751;  -96.075; -427.000; -518.000
310.889;   -5.425;    1.000;   11.000
311.026; -154.300;-1161.000; -939.000
311.163;  -39.300; -386.000; -380.000
311.300;  -71.550; -512.000; -479.000
311.437;  -81.325; -658.000; -619.000
311.574; -150.150;-1226.000; -985.000
311.711;  -44.650; -595.000; -433.000
311.848;  -42.950; -380.000; -388.000
311.985;    7.125;  270.000;   93.000
312.122; -107.150; -932.000; -762.000
312.259; -111.000; -941.000; -994.000
312.396;  -81.600; -508.000; -551.000
312.533;  -85.025; -812.000; -790.000
312.670; -117.050;-1070.000; -898.000
312.807;  -33.700; -352.000; -367.000
312.944;  -83.675; -513.000; -611.000
313.081;  -26.425; -150.000; -415.000
313.218; -108.350;-1111.000; -867.000
313.355;   20.000; -531.000; -449.000
313.492;    9.775; -455.000; -292.000
313.629;  152.025;  815.000;  735.000
313.766; -163.475;-1176.000;-1008.000
313.902;   -1.675; -186.000;   21.000
314.039;  -50.500; -372.000; -289.000
314.176;   33.900;  286.000;  192.000
314.313;  -71.525; -569.000; -473.000
314.450;  -64.100; -788.000; -684.000
314.587;  -54.850; -468.000; -480.000
314.723;   23.525;  -78.000;  130.000
314.860;   38.175;  318.000;  332.000
314.997;   55.250;  223.000;  142.000
315.134;  -43.800; -385.000; -368.000
315.270;  -12.475; -480.000; -496.000
315.407; -125.975;-1094.000; -967.000
315.544;  -42.550; -657.000; -538.000
315.681;  -52.500; -681.000; -565.000
315.817;   47.225; -133.000; -176.000
315.954;   23.900; -613.000; -392.000
316.091; -114.200;-1045.000;-1023.000
316.227;  -21.200;  -71.000; -179.000
316.364;    1.150;   23.000;    6.000
316.500;  -26.800; -113.000; -300.000
316.637;  -48.500; -181.000; -302.000
316.774;  -98.525; -625.000; -358.000
316.910;  -89.975; -598.000; -629.000
317.047;  -76.425; -487.000; -351.000
317.183;  -30.250; -435.000; -566.000
317.320;  -38.700; -367.000; -321.000
317.456;  -58.975; -733.000; -805.000
317.593;  -97.000; -598.000; -641.000
317.729;   11.475;  168.000;  -67.000
317.866; -199.925;-1434.000;-1285.000
318.002;  -81.375; -708.000; -948.000
318.139;  -81.575; -883.000; -867.000
318.275;  -88.575;-1003.000; -738.000
318.412;  -65.775; -517.000; -336.000
318.548;  -21.075; -751.000; -720.000
318.685;  -90.575; -985.000; -888.000
318.821;  -83.325; -762.000; -735.000
318.957;  -11.950;   34.000;  -23.000
319.094;   54.825;  297.000;  154.000
319.230;  -55.525; -756.000; -742.000
319.367;  170.225; -471.000; -520.000
319.503;   88.200; -538.000; -436.000
319.639;  -90.225; -877.000; -793.000
319.775;  -58.425; -750.000; -685.000
319.912;  -51.800; -424.000; -519.000
320.048;  -83.975;-1184.000;-1184.000
320.184;   80.400;   59.000;   70.000
320.321;  -59.475; -497.000; -467.000
320.457;   62.875;  475.000;  662.000
320.593;  -67.800; -375.000; -382.000
320.729;  -97.000; -732.000; -734.000
320.866;  -75.400; -577.000; -635.000
321.002;  -71.150; -759.000; -809.000
321.138;  -12.950; -135.000; -211.000
321.274;   95.725; -148.000; -115.000
321.410;   -5.350; -585.000; -353.000
321.546;    5.175;-1011.000; -911.000
321.683;   55.400;  400.000;  185.000
321.819;   24.475;  -48.000; -117.000
321.955; -105.675; -743.000; -722.000
322.091;  -43.725; -585.000; -540.000
322.227;    8.250; -382.000; -202.000
322.363;    2.100; -320.000; -215.000
322.499;  -28.275; -343.000; -331.000
322.635;  188.175;  636.000;  443.000
322.771;   42.200; -139.000;   12.000
322.907;  100.075;  129.000;  327.000
323.043;  -11.050; -115.000; -206.000
323.179;  -30.000; -394.000; -363.000
323.315;   40.375; -401.000; -371.000
323.451;  140.925; -328.000; -236.000
323.587;   82.700;  -60.000;  -77.000
323.723;   40.800; -682.000; -601.000
323.859;   -3.825; -258.000;  -76.000
323.995;  -22.875; -467.000; -409.000
324.131; -119.900; -967.000; -892.000
324.267;  -35.000; -254.000; -276.000
324.402; -127.600; -960.000; -983.000
324.538;    1.200; -279.000; -104.000
324.674;   36.275;  164.000;   77.000
324.810;  152.400;  226.000;  308.000
324.946;   32.650; -810.000; -658.000
325.082;  -57.750; -568.000; -475.000
325.217;  -10.175;  -62.000;   16.000
325.353;  -85.100; -764.000; -659.000
325.489;  -83.550; -540.000; -506.000
325.625;  -64.850; -579.000; -525.000
325.760;   53.850;  517.000;  376.000
325.896;  -35.975; -515.000; -702.000
326.032;  -59.775; -403.000; -352.000
326.168;  -62.675; -462.000; -369.000
326.303;  -60.200; -352.000; -461.000
326.439;  -23.300; -336.000; -276.000
326.575;    5.200; -190.000;  -29.000
326.710;    3.150; -156.000;  -30.000
326.846;  -12.650;  146.000;  103.000
326.982;  -87.550; -530.000; -548.000
327.117;  -78.850; -481.000; -442.000
327.253;  -75.650; -745.000; -742.000
327.388; -156.775;-1137.000;-1153.000
327.524;  -23.425; -811.000; -578.000
327.659;  -26.025;  -58.000;  -22.000
327.795;   -8.075;   69.000;   45.000
327.931;  -86.650; -723.000; -499.000
328.066;  -18.400; -417.000; -276.000
328.202;   -9.275;   12.000; -129.000
328.337;   96.175;  957.000;  713.000
328.473;   44.750;  -12.000;  -74.000
328.608;  -16.000; -256.000; -267.000
328.743;  -77.250; -799.000; -664.000
328.879;   25.700;  214.000;  114.000
329.014;  -24.075; -102.000; -122.000
329.150;  -71.700; -358.000; -483.000
329.285;  -70.225; -465.000; -466.000
329.421;  -36.000; -548.000; -246.000
329.556;  -28.475;  -36.000;   85.000
329.691;  -90.775; -633.000; -615.000
329.827;  -82.800; -626.000; -480.000
329.962;  -23.975;  131.000; -301.000
330.097;  -86.100; -673.000; -585.000
330.233;  -47.425; -410.000; -223.000
330.368; -113.725; -839.000; -628.000
330.503;  -17.950;    3.000;   98.000
330.638;    4.575;  -93.000; -125.000
330.774;  -39.475; -609.000; -530.000
330.909;  -45.625; -434.000; -244.000
331.044;  -83.850; -714.000; -708.000
331.179; -174.400;-1217.000;-1109.000
331.315;    3.950;   77.000;   20.000
331.450;    4.350;  157.000;  285.000
331.585;  -74.000; -805.000; -706.000
331.720;  -76.375; -510.000; -460.000
331.855;    2.125;  -35.000; -102.000
331.990;  228.475;   62.000;  138.000
332.126;  120.875; -110.000;   71.000
332.261;  -15.725; -379.000; -265.000
332.396;    3.800; -135.000; -242.000
332.531; -111.575;-1074.000;-1031.000
332.666;   22.075; -519.000; -363.000
332.801; -104.050; -726.000; -807.000
332.936;  -17.375; -192.000; -122.000
333.071; -146.075; -870.000; -817.000
333.206;   29.900;  307.000;  379.000
333.341;   45.450;  344.000;  418.000
333.476;  -84.225; -627.000; -623.000
333.611;  -47.500; -251.000; -173.000
333.746;  -33.575; -381.000; -464.000
333.881; -101.525; -973.000; -935.000
334.016; -119.550; -936.000; -917.000
334.151; -114.275; -746.000; -702.000
334.286;   30.450;  152.000;  186.000
334.421;  -17.700; -125.000; -178.000
334.556;  -67.075; -611.000; -567.000
334.690;  -76.225; -631.000; -577.000
334.825;   67.150;  381.000;   83.000
334.960;  -50.475; -285.000; -413.000
335.095;   17.525;  135.000;  -91.000
335.230;  -86.950; -722.000; -738.000
335.365; -121.900;-1084.000; -990.000
335.499; -138.350;-1108.000;-1037.000
335.634;   41.725;    9.000;  534.000
335.769;  -95.250; -755.000; -720.000
335.904;  -48.125; -603.000; -561.000
336.038;  -53.500; -735.000; -657.000
336.173;  -87.475;-1206.000;-1194.000
336.308;   23.125; -116.000; -189.000
336.443;   22.575; -544.000; -634.000
336.577;  -56.400; -936.000; -787.000
336.712;   93.700;   -4.000;  -12.000
336.847;  -34.250; -724.000; -607.000
336.981;  111.575; -272.000; -208.000
337.116;  334.250;  615.000;  501.000
337.250;  199.850; -434.000; -421.000
337.385;  228.450; -297.000; -208.000
337.520;   60.875; -632.000; -603.000
337.654;  -29.425; -215.000; -126.000
337.789; -120.825; -989.000; -933.000
337.923;  -37.300; -104.000; -205.000
338.058;  -94.625; -673.000; -738.000
338.192;  -26.100; -611.000; -488.000
338.327;   -4.600;  -18.000; -155.000
338.461;  -54.675; -299.000; -469.000
338.596;  -87.300; -780.000; -638.000
338.730; -104.000; -767.000; -803.000
338.865;   75.100;  -46.000; -140.000
338.999;  -64.075; -846.000; -702.000
339.134;  -24.200; -634.000; -536.000
339.268;   20.300; -741.000; -603.000
339.403;  341.050; -740.000; -775.000
339.537;   83.225; -894.000; -820.000
339.671; -115.100; -829.000; -813.000
339.806;  -65.275; -556.000; -512.000
339.940;   -4.150; -261.000; -235.000
340.074; -104.600; -685.000; -510.000
340.209;  -46.025; -351.000; -230.000
340.343;  -97.025; -517.000; -573.000
340.477;  165.450;  998.000; 1036.000
340.612;  -68.075;-1033.000; -900.000
340.746;  118.400; -199.000; -243.000
340.880;  -52.675; -924.000; -785.000
341.014;   -9.275;  -45.000; -154.000
341.149; -119.425; -756.000; -718.000
341.283; -102.625; -839.000; -754.000
341.417;  -78.300;-1124.000; -938.000
341.551;  203.475; -768.000; -708.000
341.685;  -22.000; -633.000; -611.000
341.820;  -53.800; -562.000; -493.000
341.954;  -42.625; -218.000; -349.000
342.088; -143.425;-1102.000;-1019.000
342.222;   62.650;  565.000;  618.000
342.356;  -44.650; -395.000; -335.000
342.490;  -99.275; -880.000; -841.000
342.624;  -33.225; -339.000; -242.000
342.758;    2.475; -364.000; -312.000
342.892;  -51.800; -710.000; -585.000
343.026;  -30.750;  -58.000; -116.000
343.160;  -58.725; -426.000; -376.000
343.294;  -83.175; -474.000; -337.000
343.428;   -3.425; -488.000; -448.000
343.562;   -4.200; -172.000;  -23.000
343.696;  -16.500; -385.000; -314.000
343.830;  -13.375; -362.000; -356.000
343.964;   26.525; -231.000; -168.000
344.098; 1123.025;  199.000;   70.000
344.232;  923.225; -266.000; -127.000
344.366;  100.225; -567.000; -453.000
344.500;  103.525; -665.000; -744.000
344.634;   48.775; -324.000; -164.000
344.768;    4.825; -531.000; -341.000
344.902;   46.750;  278.000;  256.000
345.035;  -67.150; -556.000; -496.000
345.169; -126.950; -933.000; -656.000
345.303;  -11.300; -308.000; -482.000
345.437;  -54.450; -826.000; -717.000
345.571;  -59.750; -675.000; -594.000
345.704;  -74.725; -309.000; -532.000
345.838;   -8.300; -331.000; -284.000
345.972;  -39.725; -543.000; -495.000
346.106;  154.125; -179.000; -190.000
346.239;  431.975; -312.000; -243.000
346.373;    9.300; -343.000; -302.000
346.507; -146.575; -950.000; -962.000
346.640;  194.200;  -30.000;   13.000
346.774;  -31.550; -650.000; -797.000
346.908;   11.400; -138.000;  -11.000
347.041;  -99.625; -646.000; -593.000
347.175;   22.875;  259.000;   27.000
347.309;  -59.250; -698.000; -628.000
347.442;  -71.725; -883.000; -732.000
347.576;  323.450;  670.000;  668.000
347.709;  244.125; -123.000;  -52.000
347.843;  -87.425; -933.000; -825.000
347.976;   46.050;  235.000;  294.000
348.110; -175.325;-1268.000;-1186.000
348.243;  -91.725; -679.000; -772.000
348.377;  -10.650;  -26.000;   60.000
348.510;   68.775;  403.000;  540.000
348.644;  -39.125;  -37.000; -159.000
348.777;   -3.575;  180.000;  191.000
348.911;  -42.775; -142.000; -112.000
349.044;  208.375;  471.000;  448.000
349.178;  223.775;-1069.000;-1006.000
349.311;  122.450;  141.000;  255.000
349.444;   -7.800; -927.000; -813.000
349.578;   -8.800; -347.000; -200.000
349.711;  -88.600; -959.000; -862.000
349.845;   21.200; -661.000; -591.000
349.978; -135.775;-1224.000;-1137.000
350.111;  -75.550; -546.000; -612.000
350.244;  -79.600; -596.000; -700.000
350.378;   31.825; -392.000; -393.000
350.511;  -80.425; -393.000; -426.000
350.644;  -90.250; -808.000; -806.000
350.778;   13.550;  168.000;  104.000
350.911;   10.975;  134.000;  140.000
351.044;  -94.750; -685.000; -615.000
351.177;  -27.425; -321.000; -281.000
351.310;  -12.450;    3.000; -131.000
351.444;  -58.825; -888.000; -788.000
351.577;  145.250;  140.000;   90.000
351.710;  103.650;  593.000;  417.000
351.843;  -34.050; -165.000;  -77.000
351.976;   -6.375;  149.000;  -79.000
352.109;  -92.150; -621.000; -612.000
352.242;  -22.050; -464.000; -419.000
352.376;  -28.025; -580.000; -636.000
352.509;  232.950; -437.000; -356.000
352.642;   58.950; -654.000; -604.000
352.775;  101.525; -141.000;  -98.000
352.908; -115.775; -933.000; -904.000
353.041; -100.675; -814.000; -824.000
353.174;  -53.000; -551.000; -424.000
353.307;  -73.925; -753.000; -764.000
353.440;   77.775;  541.000;  453.000
353.573;  -85.075; -957.000;-1008.000
353.706;  -16.775; -384.000; -558.000
353.839;    3.475; -264.000; -220.000
353.971;  -84.600; -657.000; -512.000
354.104;  -71.700; -896.000; -835.000
354.237;  -13.525; -627.000; -662.000
354.370;  -72.750; -846.000; -879.000
354.503; -162.875;-1231.000;-1308.000
354.636;  -16.475; -529.000; -348.000
354.769; -105.375; -937.000; -860.000
354.902;    6.450; -230.000; -139.000
355.034;  -19.600; -164.000; -220.000
355.167;  -16.625; -262.000; -162.000
355.300; -104.450;-1061.000; -880.000
355.433;  904.925;  -71.000;  -14.000
355.565; 1414.750; -402.000; -384.000
355.698;  351.375; -356.000; -296.000
355.831;   16.975; -882.000; -801.000
355.964;  119.150; -285.000; -170.000
356.096;  -62.925; -856.000; -843.000
356.229;   32.125; -523.000; -530.000
356.362;  287.950; -373.000; -266.000
356.494;  560.650; -229.000; -162.000
356.627;  563.000;  269.000;  377.000
356.760;  654.375;  120.000;   53.000
356.892;  884.225; -286.000; -601.000
357.025;  772.600;  403.000;  389.000
357.157;  741.750; -167.000; -179.000
357.290;  577.325; -856.000; -713.000
357.423;  195.125; -667.000; -556.000
357.555;  139.025; -217.000; -228.000
357.688;  157.625; -483.000; -364.000
357.820;  545.650; -870.000; -877.000
357.953; 4245.925; -563.000; -589.000
358.085;  978.525; -632.000; -612.000
358.218; 1492.400;-1131.000; -932.000
358.350;  274.350;  -58.000;  312.000
358.483; -116.025;-1300.000;-1187.000
358.615;   23.250;-1182.000;-1078.000
358.747;  -27.500;-1187.000;-1058.000
358.880;   74.075; -810.000; -744.000
359.012;   -4.700; -376.000; -202.000
359.145;  -16.275; -480.000; -511.000
359.277;   88.650; -962.000; -913.000
359.409; 3491.850;  536.000;  231.000
359.542;  965.825; -738.000; -688.000
359.674;   92.750;   46.000;   13.000
359.806;  -57.925; -565.000; -438.000
359.939;  -36.025; -617.000; -516.000
360.071;  -18.275; -583.000; -579.000
360.203;  -16.425; -411.000; -364.000
360.335;   67.275;  164.000;  -16.000
360.468;  228.550; -249.000; -307.000
360.600; 2723.050; -547.000; -454.000
360.732; 2606.100; -546.000; -423.000
360.864;  363.500;-1216.000;-1044.000
360.996;  359.075; -516.000; -554.000
361.129;   72.150; -389.000; -598.000
361.261;   52.700;  110.000; -113.000
361.393;  -17.550; -252.000; -214.000
361.525;   27.925;   94.000;  244.000
361.657;  -25.900; -821.000; -703.000
361.789;   27.575; -139.000; -155.000
361.921;  322.200; -642.000; -593.000
362.053;  319.550;  524.000;  541.000
362.185;   58.175;  288.000;   72.000
362.318;  -65.525; -709.000; -705.000
362.450;  152.600;  294.000;  444.000
362.582;  208.325; -913.000; -870.000
362.714;  -30.275; -353.000; -332.000
362.846;  -76.675; -606.000; -490.000
362.978; -133.325; -941.000; -811.000
363.109;   68.325; -161.000; -260.000
363.241;  521.850; -739.000; -749.000
363.373;  416.300; -649.000; -564.000
363.505;  574.675; -186.000;  -91.000
363.637;  157.050; -787.000; -601.000
363.769; -119.500;-1067.000;-1080.000
363.901;  -56.000; -596.000; -654.000
364.033; -101.600;-1103.000;-1062.000
364.165;    8.925; -283.000; -283.000
364.296;   71.275; -316.000; -177.000
364.428;   44.550;-1344.000;-1220.000
364.560;  -70.850; -679.000; -661.000
364.692;  -48.450; -738.000; -835.000
364.824;  356.075; -588.000; -456.000
364.955;  440.525; -402.000; -564.000
365.087;  751.250;-1097.000; -852.000
365.219;   34.450; -686.000; -816.000
365.351;  -70.600; -526.000; -572.000
365.482;   66.175;  300.000;  240.000
365.614;  -28.000; -402.000; -314.000
365.746;  -81.300; -729.000; -752.000
365.877; -104.250; -706.000; -672.000
366.009;  245.125;  -35.000;  -62.000
366.141; -101.225;-1249.000;-1134.000
366.272;  -95.300; -803.000; -719.000
366.404; -107.650;-1005.000; -874.000
366.535;   -7.025; -139.000;  -12.000
366.667; -105.500; -644.000; -649.000
366.799;   46.050;  353.000;  203.000
366.930; -109.450; -862.000; -996.000
367.062;  121.700; -639.000; -613.000
367.193;  126.075; -872.000; -842.000
367.325;  -61.175; -580.000; -684.000
367.456;   87.825; -246.000;   31.000
367.588;  156.850; -371.000; -318.000
367.719;   11.325;  -44.000;  -45.000
367.851;   -8.650; -222.000; -241.000
367.982;  -36.600; -875.000; -732.000
368.113;  143.050; -475.000; -358.000
368.245; -104.825; -960.000; -841.000
368.376;  -15.300; -254.000; -302.000
368.508;  -14.850; -188.000; -263.000
368.639; -135.025;-1166.000;-1034.000
368.770;   -0.525; -670.000; -589.000
368.902;  -45.200; -836.000; -926.000
369.033;  -99.925; -906.000; -855.000
369.164;  -49.675; -720.000; -653.000
369.296; -100.025; -452.000; -601.000
369.427;   15.675; -209.000; -144.000
369.558;  -58.800; -593.000; -377.000
369.689;  -77.375; -721.000; -569.000
369.821; -128.825; -951.000; -845.000
369.952;  -13.425;   42.000; -108.000
370.083;  -51.075; -229.000; -108.000
370.214;  -77.750; -735.000; -650.000
370.345;   -8.375;   65.000;   81.000
370.477;  -64.200; -810.000; -790.000
370.608;  306.550; -328.000; -264.000
370.739;  -16.800;-1233.000;-1292.000
370.870;   -4.000;-1102.000; -923.000
371.001;  132.550; -378.000; -467.000
371.132;  -66.275; -754.000; -735.000
371.263;  -26.525;  -42.000; -148.000
371.394; -127.950; -841.000; -748.000
371.525;   41.875;  345.000;  225.000
371.657;  -86.575; -808.000; -670.000
371.788;   95.875;  103.000;  199.000
371.919;  211.600; -384.000; -304.000
372.050; 4301.275;  -91.000; -156.000
372.181; 1298.875; -188.000; -294.000
372.311;  457.875;   42.000; -127.000
372.442;   60.625; -457.000; -451.000
372.573;   -6.225; -444.000; -340.000
372.704; -110.650;-1008.000; -980.000
372.835;  123.200; -228.000; -289.000
372.966;  -51.800; -646.000; -554.000
373.097;  -46.200; -575.000; -711.000
373.228;  -18.500; -717.000; -542.000
373.359;  196.350; -824.000; -536.000
373.490; 1156.400; -881.000; -727.000
373.620; 1487.250;-1001.000; -803.000
373.751; 2214.100; -332.000; -396.000
373.882;  995.875; -663.000; -733.000
374.013;  109.725; -449.000; -262.000
374.143;  -19.800; -581.000; -659.000
374.274;  -91.400; -987.000; -908.000
374.405;  231.675; -388.000; -276.000
374.536;  559.050; -526.000; -387.000
374.666; 1422.400; -759.000; -807.000
374.797;  316.175; -817.000; -868.000
374.928; 1092.525; -710.000; -560.000
375.058; 1121.950; -535.000; -500.000
375.189;  111.550;  -59.000;  -93.000
375.320;  -93.000; -928.000;-1034.000
375.450;  -26.075; -625.000; -616.000
375.581;  -52.725; -526.000; -436.000
375.712;  -23.850; -574.000; -250.000
375.842;  384.625; -438.000; -415.000
375.973;  299.525; -554.000; -513.000
376.103;  -23.450; -665.000; -648.000
376.234;  -71.675; -531.000; -552.000
376.364;  -16.500; -944.000; -867.000
376.495;  384.425;  925.000;  529.000
376.625;   34.950; -472.000; -485.000
376.756;  117.950; -709.000; -678.000
376.886;  -59.275;-1178.000;-1026.000
377.017;   36.975;-1048.000;-1061.000
377.147;  295.725; -786.000; -782.000
377.278;   60.025;  174.000;  228.000
377.408; -118.500; -801.000; -815.000
377.538; -106.475; -707.000; -693.000
377.669;  -76.200; -537.000; -613.000
377.799;  -82.250; -645.000; -635.000
377.929;  -52.800; -610.000; -428.000
378.060; -117.100; -781.000; -847.000
378.190;  -62.225; -726.000; -531.000
378.320;  -47.050; -401.000; -406.000
378.451;   -5.425; -131.000;  -22.000
378.581;    5.325;  -67.000; -110.000
378.711;  172.600; 1035.000;  866.000
378.841;    2.275; -533.000; -675.000
378.972;  -46.350; -871.000; -751.000
379.102;   21.075; -652.000; -579.000
379.232;  -20.625; -126.000;  -73.000
379.362;  -85.150;-1001.000; -885.000
379.492;   29.775; -373.000; -424.000
379.623;  132.025;    0.000;  111.000
379.753;  -92.100;-1107.000; -974.000
379.883;  238.750;   59.000;  156.000
380.013;   47.475;-1081.000;-1017.000
380.143;  -92.625;-1097.000;-1056.000
380.273;  -81.775; -985.000; -861.000
380.403;   18.675; -344.000; -257.000
380.533;  -15.325; -651.000; -664.000
380.663;   96.225;  173.000;  128.000
380.793;  -69.875;-1027.000;-1074.000
380.923;  -14.975; -103.000;  -34.000
381.053;  -89.075; -613.000; -623.000
381.183;  -30.325; -106.000; -248.000
381.313;   47.825; -656.000; -470.000
381.443;   67.275; -692.000; -473.000
381.573;  273.350; -402.000; -409.000
381.703;  412.425;-1249.000;-1095.000
381.833; -116.475;-1454.000;-1336.000
381.963;  143.450; -134.000;  -87.000
382.093; 1656.900; -925.000; -909.000
382.223;  525.325; -713.000; -602.000
382.353;   15.200; -801.000; -608.000
382.482;  492.675;-1091.000; -964.000
382.612;  924.400; -872.000; -644.000
382.742;  539.900; -695.000; -622.000
382.872;  352.750; -565.000; -551.000
383.002;   91.800;  347.000; -132.000
383.131;  -14.425; -226.000; -160.000
383.261;  -30.125; -706.000; -768.000
383.391;  291.850; -552.000; -377.000
383.521; 2864.825;  451.000;  263.000
383.650;  646.900; -947.000; -904.000
383.780;  -10.425; -783.000; -656.000
383.910;  125.500;  880.000;  802.000
384.039;   61.825; -794.000; -656.000
384.169;  299.750;-1205.000;-1017.000
384.299;    7.375; -650.000; -662.000
384.428;  -89.625; -764.000; -680.000
384.558;  -29.275; -308.000; -275.000
384.687;  -25.950; -414.000; -334.000
384.817;   20.175;   75.000;   -2.000
384.947;   31.625; -234.000; -141.000
385.076;  324.325;  982.000;  912.000
385.206;  108.450;  369.000;  480.000
385.335;  -16.800; -549.000; -417.000
385.465;  -55.625; -655.000; -663.000
385.594;  161.025;  -53.000;  -44.000
385.724;  551.425; -868.000; -838.000
385.853;  160.475; -296.000; -270.000
385.982; 1703.875; -743.000; -787.000
386.112; 2630.000;-1052.000; -871.000
386.241;  193.350; -307.000; -312.000
386.371;   36.375; -174.000;  -87.000
386.500;   33.825; -825.000; -789.000
386.629;   43.900; -874.000; -817.000
386.759;   57.425;  -43.000;   68.000
386.888;   15.250; -170.000; -250.000
387.017;  -73.125; -648.000; -620.000
387.147;  -75.650; -771.000; -798.000
387.276;   21.400; -410.000; -397.000
387.405;   37.750; -398.000; -342.000
387.535;  -25.625; -452.000; -361.000
387.664;  -45.375; -692.000; -620.000
387.793;   82.100; -198.000; -113.000
387.922;  625.650;  255.000;  200.000
388.052;   64.275; -576.000; -423.000
388.181;   47.450; -342.000; -472.000
388.310;   32.350; -889.000; -710.000
388.439;  -14.950; -749.000; -742.000
388.568;  232.175;  365.000;  244.000
388.697; 1312.175; -756.000; -653.000
388.826;  293.250; -768.000; -666.000
388.956;   85.950; -285.000; -307.000
389.085;  -33.675; -347.000; -287.000
389.214; -104.725; -842.000; -872.000
389.343;  -60.675; -645.000; -413.000
389.472;  358.825;  126.000;  149.000
389.601;  512.800;   91.000;    0.000
389.730;   43.600; -568.000; -687.000
389.859;   69.575;  226.000;   46.000
389.988;  246.800; -423.000; -408.000
390.117;  197.600; -168.000; -146.000
390.246;    2.650; -331.000; -320.000
390.375;  144.525; -673.000; -626.000
390.504;  -39.400; -703.000; -621.000
390.633;  -91.550; -672.000; -726.000
390.761;  -62.900; -732.000; -645.000
390.890;   42.550;   -4.000; -130.000
391.019;  -18.775; -421.000; -441.000
391.148; -122.300; -826.000; -855.000
391.277;  -63.650; -576.000; -493.000
391.406;  -60.625; -821.000; -805.000
391.534;   26.950;  574.000; -301.000
391.663;  -62.300; -583.000; -645.000
391.792;  -71.150; -673.000; -701.000
391.921;  119.200;   -3.000;   15.000
392.050;  269.900; -287.000; -228.000
392.178;   -5.425;-1206.000;-1061.000
392.307;  196.025; -758.000; -712.000
392.436;  116.525; -427.000; -641.000
392.564;   31.600;  166.000;   -6.000
392.693;  -75.350; -860.000; -682.000
392.822;  273.225; -529.000; -534.000
392.950;  140.250; -880.000; -714.000
393.079;  405.750; -188.000; -328.000
393.208;   53.025; -488.000; -511.000
393.336;    0.775; -170.000; -145.000
393.465;  -44.650; -317.000; -199.000
393.593;   -4.600;   62.000;   79.000
393.722; -155.350;-1121.000; -916.000
393.850;  -39.100; -188.000;  -61.000
393.979; -155.750; -926.000; -805.000
394.107;  -65.975; -517.000; -537.000
394.236;  -17.450; -570.000; -507.000
394.364;  220.675;  383.000;  206.000
394.493;  380.200; -911.000; -767.000
394.621;    1.400; -955.000; -916.000
394.750;  647.800; -873.000; -923.000
394.878; 2746.225; -247.000; -149.000
395.007; 3690.025; -721.000; -807.000
395.135;  268.550; -790.000; -721.000
395.263; -102.825;-1038.000;-1040.000
395.392;   13.050;  -25.000; -107.000
395.520; -150.125; -818.000; -679.000
395.648;  -64.975; -865.000; -915.000
395.777;   -8.250; -366.000; -405.000
395.905;  -21.525; -449.000; -564.000
396.033;    6.550;  217.000;  172.000
396.162;  615.450; -399.000; -453.000
396.290;  535.100;  -17.000;   -2.000
396.418;  140.750; -555.000; -514.000
396.546;  -53.825; -571.000; -466.000
396.674;  -80.175; -850.000; -878.000
396.803;   20.800;  -72.000;  -23.000
396.931;  126.000; -179.000; -199.000
397.059;  120.800;-1026.000; -989.000
397.187;  -99.350;-1026.000; -975.000
397.315; -135.475; -884.000; -649.000
397.443;  -91.175; -592.000; -443.000
397.572;  -94.225; -578.000; -424.000
397.700;   18.350; -607.000; -614.000
397.828;   31.175;  120.000;  -90.000
397.956;  -42.275; -508.000; -478.000
398.084;  -72.150; -767.000; -626.000
398.212;   53.600;  137.000;  124.000
398.340;   11.875;  -56.000;  159.000
398.468;   63.975; -390.000; -169.000
398.596; -128.600; -993.000; -953.000
398.724; -109.525; -762.000; -767.000
398.852; -157.825;-1024.000; -976.000
398.980;  -52.975; -560.000; -560.000
399.108;  -44.975; -982.000; -735.000
399.236;   50.525;   13.000;    8.000
399.363;   -0.275;  222.000;  196.000
399.491;  -59.550; -404.000; -398.000
399.619; -135.650; -829.000; -800.000
399.747;  -79.100; -859.000; -771.000
399.875;   85.425;  220.000;  234.000
400.003;  -29.875; -359.000; -284.000
400.130; -102.025; -421.000; -341.000
400.258;  -26.000;  -83.000;   38.000
400.386;  -58.025; -352.000; -168.000
400.514;  -34.150; -526.000; -587.000
400.641;  -72.850; -928.000; -802.000
400.769; -130.775; -979.000; -888.000
400.897; -108.850; -838.000; -793.000
401.025;   -8.050; -166.000; -152.000
401.152;  -21.150;  220.000;   38.000
401.280;  -82.000; -430.000; -429.000
401.408; -128.650; -712.000; -576.000
401.535;  -97.975; -735.000; -758.000
401.663; -190.600;-1134.000;-1054.000
401.790;  -81.200; -514.000; -525.000
401.918;   39.750;  436.000;  405.000
402.046;  -23.825;  134.000;  122.000
402.173;  -38.150;  -18.000;    7.000
402.301;  -69.650; -519.000; -397.000
402.428;   34.975;  528.000;  383.000
402.556; -127.000;-1188.000; -913.000
402.683;  -25.675;  -20.000;   -1.000
402.811;  -16.200;  -37.000; -206.000
402.938;   -9.525;   20.000;   27.000
403.066;  253.900; -574.000; -558.000
403.193;  399.550;  299.000;  239.000
403.321;  311.900; -396.000; -574.000
403.448;  402.950;   83.000;   27.000
403.575;  204.125;  -90.000;  -46.000
403.703; -102.450; -732.000; -557.000
403.830;  -56.575; -531.000; -496.000
403.957; -147.025;-1117.000;-1023.000
404.085;    8.875;  -61.000; -172.000
404.212;   89.550;  -50.000;   63.000
404.339;  253.050; -566.000; -306.000
404.467; 5310.650; -612.000; -524.000
404.594; 3775.725; -287.000; -227.000
404.721; 1000.625; -869.000; -764.000
404.848;   90.150; -113.000; -202.000
404.976; -104.650; -856.000; -783.000
405.103;    2.175;  -14.000;  -82.000
405.230;  -13.350;  190.000;  226.000
405.357;   26.925;  117.000;   44.000
405.484;  251.075;  -49.000;    5.000
405.612;   48.550; -548.000; -563.000
405.739;  -57.775; -488.000; -243.000
405.866;   93.750;  669.000;  385.000
405.993;  -46.300; -398.000; -102.000
406.120; -136.900; -801.000; -887.000
406.247;  -53.400; -323.000; -342.000
406.374;  533.000;  540.000;  629.000
406.501;  163.050; -632.000; -702.000
406.628;  -74.850; -621.000; -589.000
406.755;  -92.550; -803.000; -620.000
406.882;  -31.200; -228.000; -277.000
407.009;  -88.725; -719.000; -628.000
407.136;   80.300; -480.000; -401.000
407.263;  209.625; -939.000; -829.000
407.390;  -63.750; -692.000; -614.000
407.517; -161.075;-1139.000;-1187.000
407.644;  -53.425; -332.000; -256.000
407.771;  -59.025; -249.000; -287.000
407.898;    7.775;  168.000;  328.000
408.025;  -60.250; -421.000; -313.000
408.151;   -2.050;   82.000;  153.000
408.278;  -69.900; -267.000; -216.000
408.405; -106.875; -931.000; -899.000
408.532;  -70.600; -549.000; -542.000
408.659; -108.900; -677.000; -648.000
408.785; -203.850;-1298.000;-1170.000
408.912;  -71.900; -412.000; -296.000
409.039; -113.450; -610.000; -686.000
409.166; -111.775; -591.000; -555.000
409.292; -109.000; -571.000; -534.000
409.419; -118.525; -665.000; -649.000
409.546;  -88.100; -431.000; -192.000
409.672; -108.075; -713.000; -545.000
409.799;  -28.975;  -36.000;   34.000
409.926;  -40.425; -180.000; -179.000
410.052; -167.525;-1127.000;-1091.000
410.179;  -48.600; -368.000; -392.000
410.305;  -90.075; -375.000; -493.000
410.432;  -48.625; -220.000; -333.000
410.558; -102.525; -305.000; -380.000
410.685; -110.025; -688.000; -431.000
410.812;  -89.725; -409.000; -588.000
410.938; -130.400; -964.000; -808.000
411.065; -103.225; -671.000; -645.000
411.191;  -10.800; -189.000; -174.000
411.317; -115.100; -823.000; -742.000
411.444;  -61.975; -317.000; -246.000
411.570;  -79.375; -339.000; -294.000
411.697; -117.825; -758.000; -752.000
411.823; -172.600; -989.000; -999.000
411.949;  -17.550;  -56.000;   17.000
412.076; -114.500; -539.000; -519.000
412.202; -133.700; -758.000; -757.000
412.329; -128.525; -798.000; -752.000
412.455; -112.300; -821.000; -657.000
412.581;  -26.650;  -15.000;  172.000
412.707;  -57.600; -540.000; -457.000
412.834;   21.350;  156.000;  219.000
412.960;  -94.350; -785.000; -784.000
413.086; -105.900; -743.000; -701.000
413.212;  171.675;  604.000;  578.000
413.339;  -52.325; -685.000; -701.000
413.465;   26.875; -364.000; -310.000
413.591;  -99.150; -757.000; -474.000
413.717;  -49.900; -358.000; -366.000
413.843; -142.150; -839.000; -861.000
413.969;  -59.650;  -47.000; -292.000
414.096;  -93.900; -679.000; -679.000
414.222;   -5.775;  -33.000;   85.000
414.348;  -15.275; -652.000; -385.000
414.474;  137.500;   38.000;  -52.000
414.600;  -15.425; -126.000; -144.000
414.726;   -7.450;  -96.000;  -55.000
414.852;  -66.175; -365.000; -342.000
414.978;   40.675;  104.000;  -18.000
415.104;   37.675;   38.000;   80.000
415.230;   39.325; -329.000; -330.000
415.356;   20.450; -409.000; -514.000
415.482;  199.300;   13.000;  -35.000
415.608;  244.850; -247.000; -323.000
415.734;  909.925;   67.000;   38.000
415.860;18933.900; -875.000; -767.000
415.986;13896.800; -685.000; -607.000
416.111; 1175.375; -798.000; -652.000
416.237;  230.700; -424.000; -571.000
416.363; 1013.725; -765.000; -733.000
416.489; 3834.750; -324.000; -251.000
416.615;  403.925; -707.000; -742.000
416.741;  -38.175; -677.000; -784.000
416.866;  -96.600; -673.000; -736.000
416.992; -122.700; -801.000; -818.000
417.118;  -21.975;  -41.000;  -80.000
417.244;  -60.875; -798.000; -531.000
417.369;  -79.450; -801.000; -612.000
417.495;   -6.850; -325.000; -254.000
417.621;  -87.275;-1015.000; -803.000
417.746;   12.175; -579.000; -572.000
417.872;   40.875; -254.000; -144.000
417.998;   43.675; -515.000; -530.000
418.123;  941.525;-1073.000; -845.000
418.249; 5039.500; -512.000; -601.000
418.374;  678.725; -916.000; -824.000
418.500;  104.200; -383.000; -482.000
418.626;  101.600;   70.000;  -59.000
418.751;  122.525; -549.000; -448.000
418.877;  192.750; -637.000; -643.000
419.002; 1659.875; -688.000; -560.000
419.128;11665.775; -930.000; -721.000
419.253; 2857.400; -967.000; -837.000
419.379;  352.925; -391.000; -338.000
419.504;  365.325;  325.000;  415.000
419.629;  443.700; -393.000; -212.000
419.755; 3202.750; -317.000; -254.000
419.880;19066.500;  -98.000;   67.000
420.006;10568.850; -280.000; -221.000
420.131;27584.350; -662.000; -775.000
420.256; 4044.000; -315.000; -316.000
420.382;  509.700; -665.000; -687.000
420.507;   66.600; -649.000; -778.000
420.632;  160.725; -337.000; -339.000
420.758;  341.025; -251.000; -425.000
420.883;  -80.400; -876.000; -672.000
421.008; -106.600; -775.000; -619.000
421.133;  -74.250; -509.000; -467.000
421.259;  -43.600; -325.000; -259.000
421.384; -119.000; -834.000; -693.000
421.509;  -21.375;-1052.000; -862.000
421.634; 1537.000; -936.000; -820.000
421.759;  689.850; -359.000; -327.000
421.885;  -44.750; -717.000; -656.000
422.010;  -71.875; -673.000; -542.000
422.135; -159.100; -695.000; -727.000
422.260;   35.175;  340.000;  280.000
422.385;  -50.300;   12.000;  -98.000
422.510;    6.900;  151.000;  -26.000
422.635;   32.275;  -87.000;  -43.000
422.760;  133.475; -766.000; -791.000
422.885;   58.300;  -57.000;  -80.000
423.010;  -32.425; -112.000; -169.000
423.135;  -96.450; -481.000; -561.000
423.260;   -3.025; -150.000; -245.000
423.385;   85.725;  476.000;  222.000
423.510;   35.250;   71.000;  -22.000
423.635;  101.800;  133.000;   45.000
423.760;   80.050;  383.000;  328.000
423.885;   49.275;  336.000;  391.000
424.010;   20.325;  -68.000;  -13.000
424.135;  -29.850;    5.000;  -33.000
424.259;  -74.150; -654.000; -457.000
424.384;  -70.500; -279.000; -272.000
424.509;  -21.225; -260.000; -186.000
424.634;  -96.875; -761.000; -623.000
424.759;   -0.500; -688.000; -544.000
424.883;  -18.650; -506.000; -527.000
425.008;  165.550; -502.000; -410.000
425.133; 1872.525; -679.000; -653.000
425.258;  883.425; -517.000; -381.000
425.382; 1196.050; -867.000; -774.000
425.507; 3121.250; -487.000; -543.000
425.632;  496.150; -802.000; -663.000
425.756;  429.375; -256.000; -146.000
425.881; 5771.625; -831.000; -857.000
426.006;15718.400; -604.000; -355.000
426.130; 2536.950; -696.000; -508.000
426.255;  320.975; -611.000; -491.000
426.379;  139.075; -189.000; -577.000
426.504;  358.450;  660.000;  544.000
426.629; 3816.975; -519.000; -466.000
426.753; 2659.150;   64.000;  -46.000
426.878;  288.200; -252.000; -288.000
427.002;  135.550; -651.000; -668.000
427.127; 1502.675;  -35.000; -158.000
427.251;10585.350;  372.000;  401.000
427.375; 3063.575; -191.000; -173.000
427.500; 2635.625; -616.000; -610.000
427.624;  922.025; -234.000; -400.000
427.749;  121.250; -216.000; -225.000
427.873;  -29.575; -499.000; -412.000
427.997;  -42.250; -222.000; -230.000
428.122;   92.450;  795.000;  703.000
428.246;   81.350;  433.000;  434.000
428.371; -131.775; -869.000; -773.000
428.495; -100.650; -624.000; -646.000
428.619;  -35.675; -186.000; -117.000
428.743;   19.425;   65.000;  132.000
428.868;   37.575; -732.000; -643.000
428.992; 1702.325; -219.000; -326.000
429.116;  697.025; -329.000; -357.000
429.240;  342.075;  419.000;  426.000
429.365;    1.650; -454.000; -574.000
429.489;  -34.450; -638.000; -647.000
429.613;   30.800; -236.000; -177.000
429.737;   38.950; -563.000; -432.000
429.861;  258.825; -247.000; -133.000
429.985; 5194.525; -425.000; -305.000
430.109; 5723.575; -770.000; -908.000
430.234;  650.275;   76.000;  -50.000
430.358;   48.075; -250.000; -160.000
430.482;  -52.800; -672.000; -564.000
430.606;  -63.650; -655.000; -375.000
430.730;   32.900; -437.000; -388.000
430.854;  198.500; -909.000; -835.000
430.978;  -56.350; -795.000; -764.000
431.102;  -76.525; -499.000; -422.000
431.226; -115.675; -874.000; -815.000
431.350;   25.425;  345.000;  422.000
431.474;  -75.825; -661.000; -373.000
431.597; -152.475;-1060.000; -848.000
431.721;  -79.125; -276.000; -267.000
431.845; -121.450; -704.000; -472.000
431.969;  -80.725; -304.000; -349.000
432.093;  -87.425; -395.000; -317.000
432.217;  -13.200;   32.000;   82.000
432.341;  -85.975; -523.000; -518.000
432.464;   15.925;   96.000;   40.000
432.588;  277.675; -401.000; -329.000
432.712;  137.850;  -52.000;  -52.000
432.836;   21.975;  213.000;  263.000
432.959;  -19.975; -372.000; -311.000
433.083;   81.800;   11.000;    2.000
433.207;  355.100;  285.000;  930.000
433.330; 4614.475; -391.000; -200.000
433.454; 5764.700; -654.000; -638.000
433.578; 3353.850;  583.000;  278.000
433.701;  643.425; -623.000; -675.000
433.825;  169.225; -292.000; -299.000
433.949;  250.400;   28.000;  -72.000
434.072;  108.425; -410.000; -323.000
434.196;  -17.925; -309.000; -117.000
434.319; 3717.950;25482.000;25124.000
434.443;  749.175; -656.000; -603.000
434.566; 2489.525;  281.000;   62.000
434.690;  427.925; -637.000; -383.000
434.813;   43.350; -251.000; -173.000
434.937;  -83.475; -569.000; -696.000
435.060;  -31.950; -423.000; -332.000
435.184;  440.475; -492.000; -217.000
435.307;  231.675;  159.000;  102.000
435.431;   -6.850;  -40.000;   24.000
435.554;  -87.150; -399.000; -240.000
435.677;  -85.925; -350.000; -258.000
435.801;  -53.150;  -25.000;   49.000
435.924;    9.750;    1.000;  -67.000
436.048;  -97.000;-1019.000; -732.000
436.171;  -76.025; -240.000;  -66.000
436.294;  -43.800; -248.000; -229.000
436.417;   73.475; -963.000; -849.000
436.541;  -88.775; -814.000; -840.000
436.664;  -42.625; -242.000; -316.000
436.787;  -39.700;   13.000;  113.000
436.910;  -93.175; -792.000; -422.000
437.034;    9.150;  142.000;  143.000
437.157;   72.425;  -11.000;    0.000
437.280;  -38.550; -392.000; -292.000
437.403;  -53.350; -982.000; -869.000
437.526;  865.475; -903.000; -865.000
437.649; 3004.575; -505.000; -332.000
437.772;  474.275; -692.000; -540.000
437.896;  143.650;  700.000;  544.000
438.019; -101.950; -758.000; -503.000
438.142;  -81.475; -596.000; -506.000
438.265;    1.775; -639.000; -670.000
438.388;  736.275; -520.000; -410.000
438.511;  158.500; -597.000; -394.000
438.634;  -32.825; -247.000; -125.000
438.757; -133.525; -693.000; -619.000
438.880;  -15.600;  -34.000;  -57.000
439.003;  -80.850; -417.000; -437.000
439.126;  -62.050; -287.000; -167.000
439.248;  -63.750;  -98.000; -139.000
439.371;  -47.850;    9.000;  -53.000
439.494;   28.275;  510.000;  439.000
439.617;  -55.125;   65.000;  -88.000
439.740; -182.925; -968.000; -816.000
439.863; -131.450; -755.000; -595.000
439.986; -132.525; -476.000; -431.000
440.108;  -34.375; -161.000; -112.000
440.231; -160.500; -950.000; -836.000
440.354;  -48.550;  -64.000; -150.000
440.477;   71.175; -566.000; -542.000
440.599;   33.400; -200.000; -225.000
440.722; -113.425; -709.000; -586.000
440.845;   72.675;  751.000;  928.000
440.968; -122.325; -415.000; -311.000
441.090;  -68.200; -199.000;  -33.000
441.213; -172.475;-1021.000; -825.000
441.336;  -52.775; -159.000;   -5.000
441.458;  -80.000; -549.000; -396.000
441.581;  -73.275; -628.000; -629.000
441.703;  -73.075; -152.000;   13.000
441.826; -114.700; -557.000; -400.000
441.948;  -46.300;   56.000;   51.000
442.071;   23.775;  555.000;  424.000
442.193; -108.875; -531.000; -485.000
442.316;   19.950;  152.000;   97.000
442.438;   18.675; -233.000;  -10.000
442.561;   73.750;  272.000;  262.000
442.683;  709.550; -809.000; -522.000
442.806; 1537.925;   -8.000;   74.000
442.928;   64.250; -859.000; -604.000
443.051;  -61.950; -577.000; -373.000
443.173;  -93.150; -341.000; -339.000
443.295;  -86.725; -263.000; -371.000
443.418;  -71.225; -321.000;  -29.000
443.540;    2.675; -106.000;   -4.000
443.662; -103.025; -563.000; -465.000
443.785;  -16.100;  335.000;  199.000
443.907;  -94.750; -362.000; -208.000
444.029; -142.525; -767.000; -494.000
444.152; -142.450; -644.000; -554.000
444.274;  -35.225;  -18.000;  -24.000
444.396; -126.600; -461.000; -221.000
444.518; -118.525; -691.000; -454.000
444.640; -107.575; -268.000; -111.000
444.763;  -21.475;  388.000;  249.000
444.885; -125.675; -432.000; -392.000
445.007;  -39.525;   35.000;   86.000
445.129; -113.650; -610.000; -515.000
445.251;  -93.300; -372.000; -439.000
445.373; -143.850; -537.000; -386.000
445.495;   -3.325;  242.000;  350.000
445.617;   49.850;  853.000;  753.000
445.739;  -55.575; -215.000;  -97.000
445.861;  -17.425; -245.000; -112.000
445.984;  -26.250; -267.000; -101.000
446.105;  279.025; -418.000; -251.000
446.227;  790.200; -176.000;  -19.000
446.349;   47.400; -358.000; -249.000
446.471;  -87.000; -615.000; -448.000
446.593;  -56.875; -316.000;   19.000
446.715;   19.575;  -67.000;   41.000
446.837;   64.150;  697.000;  832.000
446.959;  -95.000; -457.000; -478.000
447.081; -133.275; -628.000; -518.000
447.203;   56.600;  862.000;  834.000
447.325;  -96.800; -270.000;   42.000
447.446;    8.200;  286.000;  530.000
447.568; -146.300; -921.000; -803.000
447.690;  -72.225; -236.000; -245.000
447.812; -151.025; -798.000; -519.000
447.933;  -26.950;  155.000;  127.000
448.055;  -58.125; -306.000; -261.000
448.177;  194.500;   31.000;   79.000
448.299;  142.700; -935.000; -727.000
448.420;   36.150;  -25.000;  159.000
448.542;  -52.600;   -3.000;   33.000
448.664;  -10.475;  109.000;  322.000
448.785;  -47.900;  265.000;   83.000
448.907;  -72.550; -614.000; -353.000
449.028;  -16.800; -771.000; -471.000
449.150;   68.400;  492.000;  589.000
449.272; -189.325;-1044.000; -913.000
449.393;   25.650;  612.000;  694.000
449.515; -144.800; -634.000; -581.000
449.636;  -42.850; -264.000; -155.000
449.758;   77.250;  763.000;  622.000
449.879;  -88.225; -498.000; -396.000
450.001;  -86.850; -149.000;  -49.000
450.122;  -25.050;  -95.000;  162.000
450.244;  -29.100;   37.000;  364.000
450.365;  -91.950; -495.000; -301.000
450.486;  -40.525;   80.000;  268.000
450.608;   29.175;  393.000;  326.000
450.729;   55.900;  578.000;  645.000
450.850;  -11.700; -574.000; -466.000
450.972;  641.400; -552.000; -389.000
451.093; 4417.950;  190.000;  588.000
451.214; 1938.800; -516.000; -337.000
451.336;  365.750;  773.000;  579.000
451.457;   50.050;  264.000;  393.000
451.578;  -45.675; -118.000;  -74.000
451.699; -137.175; -546.000; -540.000
451.821;  -68.125; -284.000;  -50.000
451.942;   -9.125;  278.000;  285.000
452.063;   28.675;  228.000;  419.000
452.184;  495.200;  -54.000;  -49.000
452.305; 1029.800;  103.000;  170.000
452.427;   98.750; -549.000; -301.000
452.548;  -16.100;   23.000;   79.000
452.669;  -43.350; -257.000;  -89.000
452.790;  -32.175;    3.000;  -18.000
452.911;   -1.975;  195.000;  259.000
453.032;  -63.375; -289.000;  -60.000
453.153;  -42.575;  -29.000;   81.000
453.274;   59.550;  737.000;  868.000
453.395;  -52.450;  -51.000;  175.000
453.516;  148.150; 1317.000; 1388.000
453.637;  -43.525; -205.000; -150.000
453.758;  -36.075;   15.000;   69.000
453.879; -128.100; -462.000; -250.000
454.000;   90.775; 1086.000;  948.000
454.121; -126.450; -554.000; -326.000
454.242; -109.750; -599.000; -383.000
454.362;  -52.775;  -99.000;  114.000
454.483;  -34.350; -309.000; -229.000
454.604;   51.250;  512.000;  580.000
454.725; -122.625; -627.000; -555.000
454.846; -145.975; -474.000; -406.000
454.967;  -19.000;  230.000;  539.000
455.087;  -57.375;  179.000;  153.000
455.208;   27.575;  554.000;  856.000
455.329;  -67.450;  -22.000;   82.000
455.450;   34.700;  473.000;  633.000
455.570;  -88.675; -234.000; -211.000
455.691;  -44.650;  201.000;  407.000
455.812; -111.700; -270.000;  -92.000
455.932;  -56.250;  107.000;  -97.000
456.053; -102.275;   36.000;   24.000
456.173; -116.350; -433.000; -355.000
456.294; -131.575; -476.000; -303.000
456.415;  -68.100;  -73.000;   70.000
456.535;  -63.150;  297.000;  273.000
456.656;  -46.925;  132.000;  240.000
456.776;  -75.775;    3.000;  298.000
456.897;    1.125;  308.000;  513.000
457.017;  -91.900; -153.000;   -3.000
457.138;  -86.925; -402.000; -249.000
457.258;  -35.350;  263.000;  224.000
457.379;  -16.575;  509.000;  521.000
457.499;  -49.525;  443.000;  432.000
457.620; -120.825; -407.000; -231.000
457.740; -103.200; -132.000;  -11.000
457.860;  -47.375;   87.000;   44.000
457.981;  -47.850;  132.000;  124.000
458.101;  -79.450;  -89.000;   40.000
458.221;  -27.550;  336.000;  402.000
458.342;  -66.975;   -4.000;  -37.000
458.462;    9.550;  617.000;  352.000
458.582;  -60.600; -302.000; -294.000
458.703;  -21.875;  303.000;  154.000
458.823;  -38.025;   22.000;  163.000
458.943;   18.825;  341.000;  467.000
459.063;  -23.300; 1124.000;  192.000
459.183;  -22.800;  328.000;  313.000
459.304;    3.575;  315.000;  517.000
459.424;  -64.625; -246.000;  -89.000
459.544;  294.050;  388.000;  764.000
459.664;  761.225;  499.000;  506.000
459.784;  312.275; 1004.000; 1175.000
459.904;   57.675;  867.000;  744.000
460.024;   76.950;  867.000;  684.000
460.144;   10.500;  449.000;  554.000
460.264;   -8.000;  515.000;  327.000
460.385; -100.825; -145.000; -119.000
460.505;   35.725;  905.000;  858.000
460.625; -101.125;  -17.000;  -68.000
460.745;  -39.825;  396.000;  541.000
460.864;  -60.325;  153.000;  469.000
460.984;    8.850;  499.000;  573.000
461.104;  134.000; 1656.000; 1775.000
461.224;   30.475;  657.000;  650.000
461.344;  -28.900;  431.000;  360.000
461.464;  -34.700;  258.000;  513.000
461.584;  -19.775;  283.000;  466.000
461.704;  -44.550;   58.000;  108.000
461.824;  -55.675;  238.000;  259.000
461.943;  -48.825;  191.000;  130.000
462.063;  -72.125;    2.000;  324.000
462.183;   30.675;  639.000;  717.000
462.303;  104.000; 1678.000; 1230.000
462.422;   32.175;  781.000;  840.000
462.542;  -43.775;  271.000;  391.000
462.662;   43.350;  353.000;  380.000
462.782;  216.325;  833.000;  572.000
462.901;  443.750;  545.000;  717.000
463.021;  286.375; 1702.000; 1638.000
463.141;  -10.100;  337.000;  770.000
463.260;   -9.125;  614.000;  474.000
463.380;   12.925;  902.000;  884.000
463.499;  -34.850;  342.000;  332.000
463.619;  -35.400;  581.000;  559.000
463.738;  117.325; 1644.000;  903.000
463.858;    6.475;  657.000;  811.000
463.978;  -46.200;  542.000;  396.000
464.097;   48.525;  921.000; 1114.000
464.217;  101.250; 1196.000; 1143.000
464.336;  105.025; 1068.000; 1130.000
464.455;  -28.425;  328.000;  659.000
464.575;   56.875;  597.000;  602.000
464.694;  187.025; 1204.000; 1179.000
464.814;  140.125; 1190.000; 1138.000
464.933;   62.975; 1095.000; 1027.000
465.052;  106.625; 1412.000; 1054.000
465.172;   99.800;  922.000;  799.000
465.291;  145.525; 1376.000; 1320.000
465.410;   18.850;  462.000;  735.000
465.530;   95.850; 1355.000; 1310.000
465.649;   63.275; 1209.000; 1273.000
465.768;  135.500; 1673.000; 1508.000
465.888;   42.725;  941.000; 1174.000
466.007;   78.875; 1335.000; 1440.000
466.126;  -11.900;  721.000;  641.000
466.245;   44.650; 1176.000; 1187.000
466.364;   17.000;  950.000; 1060.000
466.484;   73.250; 1024.000; 1213.000
466.603;   18.000; 1101.000; 1222.000
466.722;  125.525; 1490.000; 1769.000
466.841;   67.025; 1151.000; 1401.000
466.960;   47.350; 1069.000;  972.000
467.079;  132.850; 1971.000; 1786.000
467.198;   53.250; 1238.000; 1181.000
467.317;   74.950; 1768.000; 1162.000
467.436;   75.175; 1709.000; 1261.000
467.555;  123.050; 1796.000; 1746.000
467.674;   58.975; 1227.000; 1329.000
467.793;   52.675; 1376.000; 1374.000
467.912;   79.575; 1658.000; 1539.000
468.031;  144.375; 2038.000; 1930.000
468.150;  150.825; 1842.000; 1837.000
468.269;  196.050; 2313.000; 2090.000
468.388;  175.075; 2168.000; 2339.000
468.507;  230.075; 2884.000; 2903.000
468.626;  234.975; 2555.000; 2541.000
468.744;  143.000; 2018.000; 2174.000
468.863;  195.950; 2312.000; 2523.000
468.982;   98.525; 1503.000; 1555.000
469.101;  218.375; 2788.000; 2692.000
469.220;  143.900; 2333.000; 2176.000
469.338;  267.700; 2935.000; 3051.000
469.457;  197.475; 2719.000; 2545.000
469.576;  345.875; 3953.000; 3784.000
469.695;  218.075; 2877.000; 3066.000
469.813;  431.000; 4148.000; 4192.000
469.932;  385.800; 4255.000; 4485.000
470.051;  418.700; 4075.000; 4161.000
470.169;  808.250; 4470.000; 4338.000
470.288; 1397.350; 4700.000; 4809.000
470.406;  826.500; 5059.000; 5194.000
470.525;  619.850; 6101.000; 5787.000
470.644;  626.600; 6847.000; 6794.000
470.762;  824.775; 8397.000; 7873.000
470.881;  876.475; 8651.000; 8464.000
470.999; 1051.975; 9685.000; 9151.000
471.118; 1103.900;11174.000;10711.000

