
Integration time [ms]: 100.000
Averaging Nr. [scans]: 40
Smoothing Nr. [pixels]: 0
Data measured with spectrometer [name]: 2101012U2
Wave   ;Sample   ;Dark     ;Reference
[nm]   ;[counts] ;[counts] ;[counts] 

197.733;   53.225;  516.000;  404.000
197.879;  -69.575; -610.000; -634.000
198.025;  -55.025; -475.000; -420.000
198.171;  -60.425; -602.000; -612.000
198.317;  -33.825; -401.000; -316.000
198.463;  -61.725; -655.000; -404.000
198.609;   26.150;  181.000; -137.000
198.755;  -84.700; -644.000; -410.000
198.901;  -71.925; -505.000; -424.000
199.047;  -61.850; -615.000; -488.000
199.193;  -51.375; -230.000; -468.000
199.339;  -35.675; -222.000; -369.000
199.485;   41.075;  330.000;  271.000
199.631;   12.200;  227.000;  310.000
199.777;  -46.925; -466.000; -398.000
199.923;  -55.150; -610.000; -424.000
200.069;  -13.400; -141.000;  -58.000
200.215;   56.425;  128.000;  453.000
200.361;   53.525;  243.000;  477.000
200.507;  -58.475; -600.000; -373.000
200.653;  -27.575; -371.000; -194.000
200.798;  -33.100; -215.000; -125.000
200.944;  -17.600; -146.000;  -41.000
201.090;   50.025;   61.000;  222.000
201.236;    1.100; -116.000; -158.000
201.382;  130.500;  874.000;  903.000
201.528;    8.825;  -58.000;  -48.000
201.674;  -53.150; -386.000; -293.000
201.819;  -53.000; -540.000; -439.000
201.965;  -78.825; -699.000; -447.000
202.111;  -38.025; -273.000; -226.000
202.257;  -43.900; -250.000; -238.000
202.402;   10.250;   13.000;  -36.000
202.548;  -35.600; -169.000; -116.000
202.694;   85.250;  410.000; -183.000
202.840;  -77.725; -603.000; -531.000
202.985;  -70.475; -681.000; -639.000
203.131; -109.525; -832.000; -666.000
203.277;  -25.525; -199.000; -262.000
203.423;  -45.200; -434.000; -520.000
203.568;  -47.600; -462.000; -237.000
203.714;  -58.075; -535.000; -542.000
203.860;  -84.225; -682.000; -641.000
204.005;   19.225;  112.000;  167.000
204.151;   69.900;  561.000;  556.000
204.296;  -40.500; -354.000; -221.000
204.442;  -73.175; -600.000; -547.000
204.588;  -87.000; -592.000; -579.000
204.733;   31.375;  178.000;  168.000
204.879; -138.950;-1018.000; -822.000
205.025;    5.475;  -99.000;  126.000
205.170;    3.300;  -17.000;   94.000
205.316;   69.700;  438.000;  661.000
205.461;  -79.300; -698.000; -554.000
205.607;   77.600;  609.000;  665.000
205.752;  -77.725; -626.000; -551.000
205.898;  -44.125; -501.000; -391.000
206.043;  -68.075; -578.000; -506.000
206.189;  -43.950; -243.000; -285.000
206.334;   80.425;  554.000;  606.000
206.480;   77.375;  409.000;  239.000
206.625;  -70.175; -529.000; -552.000
206.771;  -51.300; -451.000; -373.000
206.916;  -36.600; -210.000; -537.000
207.062;  -66.400; -545.000; -591.000
207.207;  -65.225; -546.000; -443.000
207.353;   51.950;  185.000;  460.000
207.498;   33.625;  196.000;   85.000
207.643;  -58.625; -501.000; -370.000
207.789; -127.550;-1069.000; -910.000
207.934;  -98.900; -665.000; -713.000
208.080;  -23.275; -154.000;   66.000
208.225;   -1.250;  -22.000;  -57.000
208.370;  -80.425; -727.000; -619.000
208.516;  -81.325; -741.000; -487.000
208.661;  -37.525; -127.000;  -69.000
208.806;  -20.925; -165.000; -171.000
208.952; -126.975;-1044.000; -731.000
209.097;   77.700;  378.000;  349.000
209.242;  -46.425; -307.000; -382.000
209.387;   57.500;  392.000;  350.000
209.533;  -44.200; -321.000; -350.000
209.678;   69.825;  472.000;  543.000
209.823;  -47.125; -408.000; -310.000
209.969; -104.400; -860.000; -757.000
210.114; -111.325; -907.000; -719.000
210.259; -106.850; -939.000; -889.000
210.404;   -1.525; -171.000;  103.000
210.549;    6.525;  108.000;    3.000
210.695;  -11.825;   -3.000;  -95.000
210.840;   41.725;   94.000;   67.000
210.985;  -63.900; -484.000; -303.000
211.130;   66.150;  268.000;  406.000
211.275;   22.250;  207.000;  199.000
211.420;  -47.775; -300.000; -289.000
211.566;  -59.825; -536.000; -489.000
211.711;   24.625;  218.000;  157.000
211.856;  -59.125; -545.000; -519.000
212.001;    7.775;  151.000;   44.000
212.146;   25.350;  153.000;   49.000
212.291;  -37.900; -210.000; -186.000
212.436;  -14.550; -280.000;   -6.000
212.581;  -85.900; -685.000; -653.000
212.726;  -79.650; -487.000; -538.000
212.871;  -49.875; -552.000; -217.000
213.016; -147.075;-1172.000;-1029.000
213.161;   61.275;  406.000;  291.000
213.306;  -53.600; -435.000; -577.000
213.451;  -99.500; -778.000; -689.000
213.596;  -44.575; -455.000; -347.000
213.741;  -52.625; -448.000; -538.000
213.886;  -73.025; -498.000; -517.000
214.031;   -7.325; -294.000; -124.000
214.176;  -50.775; -408.000; -341.000
214.321;  -27.350; -296.000; -157.000
214.466;  -47.175; -163.000;  -43.000
214.611;   -3.650;  -61.000;  -10.000
214.756; -111.825; -948.000; -858.000
214.901;  -25.800; -388.000; -226.000
215.046; -119.150; -797.000; -825.000
215.191;   19.175;  128.000;   35.000
215.336;  -11.225; -157.000;  -19.000
215.480;  -66.500; -684.000; -505.000
215.625;  -13.025; -175.000;  -19.000
215.770;  -86.925; -757.000; -662.000
215.915;   -9.350;   -5.000;  -97.000
216.060;  -11.750; -113.000;  -21.000
216.205; -109.225; -731.000; -779.000
216.349;  -77.800; -470.000; -533.000
216.494; -125.375; -939.000; -867.000
216.639; -127.800; -823.000; -888.000
216.784;  -78.250; -577.000; -525.000
216.929;   52.450;  392.000;  281.000
217.073;  -13.625; -244.000;  -31.000
217.218;    2.375;   78.000;  -47.000
217.363;  -76.500; -656.000; -618.000
217.507;  -77.600; -623.000; -588.000
217.652; -120.900; -845.000; -874.000
217.797;  -94.700; -708.000; -659.000
217.942; -108.625; -856.000; -720.000
218.086;   67.400;  608.000;  539.000
218.231;  -24.300; -174.000;  -26.000
218.376;  -39.025; -337.000; -229.000
218.520;    1.475;  -41.000;   96.000
218.665;  -32.025; -338.000; -204.000
218.810;  -36.200; -275.000; -233.000
218.954;   29.275;  201.000;   35.000
219.099; -107.450; -713.000; -963.000
219.243;  -58.050; -589.000; -554.000
219.388;  -36.950; -264.000; -136.000
219.532;  -17.325; -116.000; -116.000
219.677;  -70.425; -564.000; -521.000
219.822;   18.950;   33.000;   89.000
219.966;    2.600;   17.000;  -99.000
220.111;  -35.350; -328.000;  -40.000
220.255;  -98.775; -797.000; -750.000
220.400;  -18.100; -180.000; -146.000
220.544;  -54.550; -516.000; -450.000
220.689;  -62.100; -422.000; -451.000
220.833;  -19.675; -123.000;  -58.000
220.978;  -52.175; -393.000; -563.000
221.122;   34.675;  319.000;  307.000
221.267; -110.875; -906.000; -837.000
221.411;  -51.500; -478.000; -394.000
221.555;   -6.375; -104.000;  -23.000
221.700;  -38.425; -329.000; -222.000
221.844;   30.250;  255.000;  272.000
221.989;  -53.525; -328.000; -311.000
222.133;  -33.725; -289.000; -307.000
222.277;   -7.325;    5.000;   78.000
222.422;   11.675;  227.000;  113.000
222.566;  -39.325; -381.000; -214.000
222.711;  -47.650; -414.000; -479.000
222.855;  -80.625; -643.000; -586.000
222.999;  -86.425; -642.000; -717.000
223.144;  -33.475; -195.000; -194.000
223.288;   49.650;  423.000;  251.000
223.432;   28.975;  184.000;  230.000
223.576;   16.475;  152.000;  -21.000
223.721;   31.300;  364.000;  273.000
223.865;  -58.150; -472.000; -475.000
224.009;  246.925; 1673.000; 1631.000
224.153;  -84.450; -660.000; -671.000
224.298;  -56.725; -531.000; -489.000
224.442;  -12.225;  -74.000;  -33.000
224.586;  -16.475; -169.000; -106.000
224.730; -100.625; -858.000; -670.000
224.875; -101.100; -739.000; -688.000
225.019;   22.425;  102.000;  188.000
225.163;   60.550;  208.000;  341.000
225.307;   23.725;   97.000;  -91.000
225.451;   48.275;  360.000;  481.000
225.595;   34.875;  264.000;  176.000
225.739;  -14.900; -170.000;  -94.000
225.884;   11.600;   86.000;    5.000
226.028;  -98.550; -760.000; -626.000
226.172;  -28.225; -260.000; -273.000
226.316; -121.925; -941.000; -902.000
226.460;  -68.650; -645.000; -493.000
226.604;  -63.250; -406.000; -400.000
226.748;  -99.775; -836.000; -733.000
226.892;  -33.000; -227.000; -181.000
227.036;  -44.550; -537.000; -447.000
227.180;  -51.400; -551.000; -375.000
227.324;  -66.075; -561.000; -580.000
227.468; -116.075; -819.000; -717.000
227.612;   12.075;  242.000;  -28.000
227.756; -105.775; -845.000; -698.000
227.900;   51.875;  342.000;  441.000
228.044;  -59.675; -509.000; -290.000
228.188;   60.925;  448.000;  568.000
228.332;  -77.175; -546.000; -472.000
228.476;  -24.750; -223.000; -149.000
228.620;  -40.000; -210.000; -150.000
228.764;   79.800;  431.000;  349.000
228.908;  -23.325; -155.000;   30.000
229.052;  -57.450; -615.000; -528.000
229.195;  -25.075; -172.000;   13.000
229.339;  -40.950; -235.000; -305.000
229.483;  -23.075;    5.000; -162.000
229.627;    4.475; -156.000;  139.000
229.771;  -50.425; -218.000; -294.000
229.915;    1.075;  230.000;   79.000
230.059;  -92.900; -648.000; -663.000
230.202;  -42.775; -370.000; -317.000
230.346;   -7.525; -107.000;  107.000
230.490;  -61.550; -489.000; -521.000
230.634; -107.125; -736.000; -553.000
230.777;   77.800;  478.000;  509.000
230.921;  -52.650; -450.000; -359.000
231.065;  -43.725; -246.000; -286.000
231.209;   40.600;  261.000;  265.000
231.352;   14.325;   54.000;   40.000
231.496;   30.750;  568.000;  188.000
231.640;  -79.350; -693.000; -621.000
231.783;   57.725;  546.000;  525.000
231.927;  -35.300; -294.000; -365.000
232.071; -127.575; -962.000; -736.000
232.214; -117.025; -980.000; -764.000
232.358;  -96.925; -683.000; -599.000
232.502;    2.250;  -19.000;    7.000
232.645; -142.975;-1090.000; -927.000
232.789;  -11.175; -257.000; -218.000
232.933;  -45.125; -407.000; -224.000
233.076; -127.975;-1038.000; -897.000
233.220; -103.525; -752.000; -777.000
233.363;  -66.175; -669.000; -477.000
233.507;   55.200;  371.000;  129.000
233.650;  -93.975; -764.000; -834.000
233.794;   34.850;  438.000;  461.000
233.938;  -59.000; -530.000; -362.000
234.081;   -8.450;  -93.000;   31.000
234.225;  -71.075; -631.000; -539.000
234.368; -104.450; -773.000; -723.000
234.512;  -30.550; -385.000; -299.000
234.655;  -95.375; -582.000; -555.000
234.798;  -69.125; -493.000; -466.000
234.942; -129.900; -884.000;-1002.000
235.085;  -82.425; -651.000; -443.000
235.229;  -72.425; -405.000; -410.000
235.372;  -43.725; -247.000; -191.000
235.516;  -55.625; -397.000; -321.000
235.659;   20.700;   92.000;  121.000
235.802;  -14.200;  -38.000;  -22.000
235.946;   40.375;  335.000;  215.000
236.089;   23.425;  126.000;  250.000
236.233;   51.025;  275.000;  298.000
236.376;  -48.250; -235.000; -378.000
236.519;  -51.775; -297.000; -319.000
236.663;  -27.375; -215.000; -117.000
236.806; -121.875;-1029.000; -999.000
236.949;   65.475;  543.000;  431.000
237.092;   55.175;  412.000;  391.000
237.236;  -91.525; -589.000; -502.000
237.379;   62.750;  352.000;  428.000
237.522; -116.100; -879.000; -768.000
237.666;  -22.625; -271.000;   18.000
237.809; -120.100; -851.000; -823.000
237.952;   27.950;  469.000;  271.000
238.095;  -60.600; -447.000; -442.000
238.238;   90.425;  688.000;  700.000
238.382;    1.800;  166.000;  103.000
238.525;  -68.650; -598.000; -511.000
238.668; -133.300;-1060.000; -985.000
238.811;  -89.850; -638.000; -643.000
238.954;  -57.825; -483.000; -334.000
239.097;   94.575;  617.000;  664.000
239.241;   34.475;  394.000;  326.000
239.384;  -26.350; -254.000; -214.000
239.527;  -57.475; -424.000; -224.000
239.670; -149.525; -994.000;-1091.000
239.813; -123.200; -696.000; -658.000
239.956;   65.500;  579.000;  473.000
240.099; -122.650; -778.000; -725.000
240.242;   58.025;  428.000;  432.000
240.385;   65.750;  466.000;  450.000
240.528;  -74.650; -706.000; -473.000
240.671;   10.625;  189.000;  134.000
240.814;  -62.975; -441.000; -158.000
240.957;  -88.200; -767.000; -578.000
241.100;  -87.975; -779.000; -755.000
241.243; -154.575;-1234.000; -893.000
241.386;  -75.250; -508.000; -379.000
241.529;  -93.500; -735.000; -547.000
241.672;  -62.925; -566.000; -495.000
241.815; -113.825; -832.000; -808.000
241.958;  -37.525; -125.000; -182.000
242.101;  -80.575; -545.000; -390.000
242.244;  -48.050; -270.000; -325.000
242.387;  -32.725; -304.000; -246.000
242.530;   49.600;  470.000;  134.000
242.673;  -51.900; -381.000; -309.000
242.815; -119.025; -925.000; -899.000
242.958;  -69.650; -482.000; -381.000
243.101;    9.850;  132.000;  187.000
243.244;  -82.075; -564.000; -521.000
243.387;  -55.050; -313.000; -316.000
243.530; -100.450; -657.000; -674.000
243.672;   -4.775;   43.000;  -92.000
243.815;  -49.500; -355.000; -283.000
243.958;    2.500;   98.000;  -26.000
244.101;    0.150;   59.000;  -16.000
244.243;  -20.325;  -47.000;  101.000
244.386; -106.600; -761.000; -630.000
244.529;  -24.275; -132.000; -139.000
244.672; -173.325;-1154.000; -951.000
244.814; -101.325; -621.000; -794.000
244.957;  -45.225; -380.000; -304.000
245.100;  -89.550; -489.000; -489.000
245.242;  -60.150; -387.000; -374.000
245.385;   -4.200;  -59.000;  -39.000
245.528; -119.650; -871.000; -705.000
245.670;   84.400;  612.000;  634.000
245.813;  -98.450; -599.000; -547.000
245.956;  -40.875; -324.000; -275.000
246.098;  -56.900; -508.000; -650.000
246.241;    1.525;  194.000;   48.000
246.383;  -10.200; -119.000;  -73.000
246.526;  -65.375; -454.000; -525.000
246.669; -114.250; -889.000; -780.000
246.811;   10.625;  172.000;   -1.000
246.954;  -49.300; -512.000; -426.000
247.096;  -43.075;  -84.000;   -6.000
247.239;  -70.375; -482.000; -445.000
247.381;  -73.850; -647.000; -488.000
247.524;   73.600;  645.000;  679.000
247.666;  -20.950;   58.000;   11.000
247.809; -102.550; -887.000; -691.000
247.951;  -15.900;  -75.000;  138.000
248.094;   27.800;  432.000;  308.000
248.236; -152.050;-1262.000;-1238.000
248.378;   -4.075; -356.000;  -81.000
248.521;  -30.850; -334.000; -337.000
248.663;  -42.600; -236.000; -267.000
248.806;  -14.325; -300.000; -266.000
248.948; -100.750; -886.000; -763.000
249.090;  -37.600; -428.000; -398.000
249.233;  -55.700; -344.000; -381.000
249.375;  -64.250; -474.000; -451.000
249.518;  -25.425;  -83.000; -133.000
249.660;   -6.250; -103.000;    3.000
249.802; -175.525;-1303.000;-1189.000
249.945;  -76.650; -612.000; -540.000
250.087; -107.375; -834.000; -768.000
250.229;  -39.750; -362.000; -480.000
250.371;  -80.500; -494.000; -439.000
250.514;  -30.125; -310.000; -244.000
250.656;  -11.375;   69.000;  102.000
250.798; -119.900; -849.000; -800.000
250.940;  -59.550; -322.000; -322.000
251.083;  -27.125; -335.000; -111.000
251.225;   53.000;  338.000;  310.000
251.367;  -50.675; -274.000; -373.000
251.509;  -38.825; -265.000; -210.000
251.651;  -96.875; -731.000; -671.000
251.794;   58.750;  538.000;  632.000
251.936; -106.925; -821.000; -747.000
252.078;  -80.000; -540.000; -461.000
252.220;  -75.025; -645.000; -477.000
252.362;   82.025;  344.000;  462.000
252.504;  -71.675; -677.000; -584.000
252.646; -124.175; -875.000; -722.000
252.788;   -5.325;   14.000; -128.000
252.931;  -33.075; -257.000; -253.000
253.073;  -48.550; -376.000; -317.000
253.215;   -3.125;  141.000;  122.000
253.357;    1.750;   82.000; -153.000
253.499;  -47.300; -374.000; -234.000
253.641;  -94.275; -749.000; -594.000
253.783; -100.375; -609.000; -527.000
253.925;  -77.375; -586.000; -591.000
254.067; -109.425; -744.000; -667.000
254.209;  -36.225; -391.000; -259.000
254.351; -142.300; -865.000; -883.000
254.493;  -62.600; -441.000; -417.000
254.635; -137.650; -936.000; -818.000
254.777;  -98.450; -752.000; -687.000
254.918;  -61.625; -512.000; -430.000
255.060;  -55.975; -551.000; -395.000
255.202;  -47.375; -473.000; -261.000
255.344;  -83.700; -658.000; -455.000
255.486;  -68.350; -471.000; -406.000
255.628; -116.350; -780.000; -781.000
255.770; -101.300; -676.000; -536.000
255.912;  -77.975; -559.000; -468.000
256.053;  -88.900; -730.000; -508.000
256.195;  149.600; 1008.000;  903.000
256.337; -113.450; -861.000; -595.000
256.479;   64.650;  532.000;  416.000
256.621;  -37.950; -394.000; -212.000
256.762;  -94.525; -789.000; -742.000
256.904;   61.125;  485.000;  487.000
257.046;  -46.200; -381.000; -271.000
257.188;  -41.550; -351.000; -264.000
257.329;  -82.475; -525.000; -464.000
257.471; -105.875; -939.000; -807.000
257.613;  -66.100; -584.000; -498.000
257.755; -145.475;-1073.000; -982.000
257.896;   21.825;  286.000;  392.000
258.038;  -78.325; -403.000; -352.000
258.180;  -53.250; -354.000; -279.000
258.321;  -85.575; -581.000; -457.000
258.463;   -2.350;  -71.000;  133.000
258.605;  -89.375; -562.000; -570.000
258.746;  -96.400; -886.000; -772.000
258.888; -150.900;-1026.000;-1020.000
259.029;   17.200;  121.000;   -8.000
259.171;  -88.250; -614.000; -550.000
259.313;    4.275;  -49.000;  -47.000
259.454;  -65.575; -536.000; -414.000
259.596;  -62.225; -483.000; -390.000
259.737;  -79.900; -590.000; -474.000
259.879;   43.050;  217.000;  311.000
260.020;   79.025;  901.000;  636.000
260.162;  -23.175; -146.000; -253.000
260.303; -109.475; -768.000; -687.000
260.445;  -84.875; -609.000; -613.000
260.586;   19.125;  392.000;  157.000
260.728;  -44.025; -360.000; -248.000
260.869;  -63.800; -350.000; -343.000
261.011;   63.525;  706.000;  537.000
261.152;  -71.075; -479.000; -319.000
261.293;  -76.350; -576.000; -595.000
261.435;  -34.500; -219.000; -184.000
261.576;  -41.500; -455.000; -325.000
261.718;   63.375;  420.000;  470.000
261.859; -132.350; -940.000; -949.000
262.000; -122.300; -951.000;-1016.000
262.142;   -3.500;  -52.000;  -60.000
262.283; -111.650; -808.000; -691.000
262.424;  -95.050; -666.000; -625.000
262.566; -152.425;-1161.000; -983.000
262.707; -113.150; -840.000; -830.000
262.848; -120.075; -769.000; -726.000
262.990;  -51.300; -362.000; -345.000
263.131;   74.800;  650.000;  681.000
263.272;   -3.550;  -61.000;  -41.000
263.413; -102.275; -589.000; -561.000
263.555;  -71.225; -669.000; -143.000
263.696;  -91.500; -550.000; -641.000
263.837;  -72.925; -449.000; -551.000
263.978;    7.175;   -5.000;  -77.000
264.119;  -52.825; -283.000; -264.000
264.261; -123.100; -847.000; -630.000
264.402;    0.225;   33.000;   40.000
264.543;  -82.925; -509.000; -524.000
264.684;   -9.300;   61.000;  -50.000
264.825;  -62.425; -816.000; -538.000
264.966;    4.025;  -84.000;  -67.000
265.107; -109.850; -646.000; -670.000
265.248; -112.550; -825.000; -812.000
265.390;   -8.500;  152.000;   -9.000
265.531;  -30.925; -238.000; -107.000
265.672;  -85.675; -557.000; -630.000
265.813;   52.425;  563.000;  439.000
265.954; -145.075; -959.000; -940.000
266.095;  -13.400; -372.000; -322.000
266.236; -101.600; -686.000; -548.000
266.377;  -38.000; -243.000; -297.000
266.518;  -76.225; -619.000; -547.000
266.659;   25.300;  170.000;  268.000
266.800;   13.050;   83.000;   85.000
266.941;  -71.025; -487.000; -478.000
267.082;   25.650;  354.000;   99.000
267.223;  -56.600; -344.000; -273.000
267.364; -111.175; -892.000; -686.000
267.504;  -23.925;    3.000;  135.000
267.645;   -1.650;  160.000;   67.000
267.786;  -29.875; -147.000;  -86.000
267.927;  -86.000; -473.000; -379.000
268.068;  -12.525; -186.000;  -61.000
268.209;  -46.500; -175.000; -413.000
268.350;  -66.050; -388.000; -532.000
268.490;  -85.175; -648.000; -521.000
268.631;   29.200;  127.000;  225.000
268.772; -102.925; -874.000; -647.000
268.913;  -49.250; -328.000; -476.000
269.054;  -11.200; -117.000;   12.000
269.194;  -44.450; -418.000; -402.000
269.335; -161.625;-1137.000;-1074.000
269.476;  -22.150;   33.000;  -35.000
269.617;  -42.725; -347.000; -392.000
269.757;  -82.225; -713.000; -646.000
269.898; -123.500; -856.000; -613.000
270.039;  -64.975; -415.000; -405.000
270.180; -135.900; -952.000; -816.000
270.320;  -23.325; -190.000; -250.000
270.461;  -27.400; -277.000; -249.000
270.602;  -20.500; -186.000; -156.000
270.742; -132.000; -868.000; -943.000
270.883;  -65.375; -442.000; -390.000
271.023;  -53.675; -358.000; -357.000
271.164;  -73.400; -607.000; -528.000
271.305; -107.075; -666.000; -654.000
271.445;  -90.025; -722.000; -683.000
271.586;  -67.100; -462.000; -283.000
271.726;  -50.725; -397.000; -322.000
271.867;  -53.525; -594.000; -534.000
272.008;  153.250; -473.000; -285.000
272.148;  114.200;  462.000;  468.000
272.289;    1.600; -113.000; -181.000
272.429;   16.575;   19.000;  185.000
272.570;  -98.925; -633.000; -737.000
272.710; -112.875; -825.000; -775.000
272.851;  -34.475;  113.000; -130.000
272.991; -164.450;-1173.000;-1077.000
273.131;  -71.225; -419.000; -459.000
273.272;  -97.225; -683.000; -723.000
273.412;   -7.300; -143.000;  -31.000
273.553;  -64.175; -488.000; -507.000
273.693;  147.225;  913.000;  858.000
273.834;  -90.075; -894.000; -692.000
273.974;  -75.650; -664.000; -615.000
274.114;  -97.975; -772.000; -560.000
274.255;   49.875;  414.000;  373.000
274.395;   -3.400; -180.000; -125.000
274.535;   34.075;  199.000;  350.000
274.676;   28.050;  225.000;   94.000
274.816;   -4.125;  110.000;   34.000
274.956;  -91.200; -624.000; -690.000
275.097;  -65.175;-1014.000; -922.000
275.237; -107.525; -913.000; -803.000
275.377; -105.350; -778.000; -689.000
275.517; -144.375; -878.000; -937.000
275.658;  -74.450; -590.000; -555.000
275.798;  -63.175; -606.000; -413.000
275.938;   28.875;  215.000;  323.000
276.078; -101.075; -626.000; -395.000
276.218;   -3.025;   99.000;  104.000
276.359; -126.750;-1026.000;-1024.000
276.499;  -81.275; -605.000; -446.000
276.639;  -34.250; -305.000; -151.000
276.779;  -63.575; -475.000; -357.000
276.919; -109.325; -783.000; -624.000
277.059;  -16.050; -261.000; -212.000
277.199;  -49.250; -357.000; -259.000
277.340;   50.275;  287.000;  175.000
277.480; -109.600; -840.000; -693.000
277.620;   24.675;  192.000;   16.000
277.760; -195.975;-1533.000;-1294.000
277.900;   11.450;  113.000;   33.000
278.040;   19.725;  137.000;  159.000
278.180;   34.650;  270.000;  170.000
278.320;   -0.350;   21.000;   56.000
278.460;  -74.225; -443.000; -469.000
278.600;  -87.350; -708.000; -598.000
278.740;   46.150;  448.000;  224.000
278.880;  -69.525; -768.000; -791.000
279.020;  -11.175; -194.000; -144.000
279.160;  -91.225; -672.000; -595.000
279.300; -113.325; -926.000; -873.000
279.440;  -98.225; -709.000; -622.000
279.579;  -27.875;-1014.000; -929.000
279.719;  -55.325; -410.000; -394.000
279.859;   57.950;   -4.000;   41.000
279.999;   25.050; -208.000;  101.000
280.139;  -20.225; -435.000; -387.000
280.279;  -76.375; -708.000; -745.000
280.419;  -12.575; -229.000; -147.000
280.559;  -23.850; -259.000; -180.000
280.698;  -79.300; -790.000; -639.000
280.838; -105.750; -778.000; -800.000
280.978; -109.275; -846.000; -790.000
281.118; -114.800; -811.000; -704.000
281.257;   13.900;   24.000;    6.000
281.397; -117.950;-1094.000; -960.000
281.537;  -82.525; -599.000; -712.000
281.677;  -26.650; -150.000; -101.000
281.816;  -90.725; -700.000; -630.000
281.956;  -25.900; -193.000; -257.000
282.096;  -65.100; -539.000; -396.000
282.235; -105.725; -672.000; -638.000
282.375;  -27.475; -243.000;  -98.000
282.515; -111.350; -715.000; -707.000
282.654;   15.075;   29.000;  106.000
282.794;   30.650;  388.000;  244.000
282.934;  -63.050; -530.000; -491.000
283.073; -130.475;-1030.000; -857.000
283.213;  -67.725; -460.000; -467.000
283.353;  -35.975; -408.000; -349.000
283.492;  -26.400; -264.000; -296.000
283.632;  -41.425; -254.000; -168.000
283.771;  -98.650; -859.000; -730.000
283.911;  -36.325; -369.000; -260.000
284.050; -113.500; -794.000; -748.000
284.190; -147.800;-1229.000;-1096.000
284.329; -155.675;-1055.000; -964.000
284.469;  -69.725; -516.000; -591.000
284.608;  -53.850; -559.000; -598.000
284.748;  -83.650; -614.000; -570.000
284.887;   -1.000;  -87.000;  -20.000
285.027; -124.625; -844.000; -892.000
285.166;  -42.575; -192.000; -249.000
285.306;    3.450; -116.000;  -33.000
285.445;  -51.700; -229.000; -343.000
285.584;  -97.300; -630.000; -494.000
285.724;  -42.375; -282.000; -322.000
285.863; -112.775; -857.000; -507.000
286.002;  -60.475; -366.000; -276.000
286.142; -125.700; -715.000; -622.000
286.281;  -83.050; -525.000; -493.000
286.420;  -82.225; -554.000; -417.000
286.560;   96.300;  653.000;  623.000
286.699; -142.400; -958.000; -912.000
286.838; -101.400; -590.000; -591.000
286.978;  -84.175; -533.000; -537.000
287.117; -139.550;-1085.000; -950.000
287.256;  -33.100; -228.000; -211.000
287.395;  -50.175; -197.000; -378.000
287.535;  -42.825; -370.000; -298.000
287.674;  -76.775; -509.000; -484.000
287.813;   52.675;  661.000;  533.000
287.952; -142.700;-1010.000; -871.000
288.091; -139.825;-1049.000; -915.000
288.231;    9.700;   13.000;   15.000
288.370; -169.650;-1217.000;-1200.000
288.509;  -97.900; -728.000; -645.000
288.648;  -80.125; -770.000; -548.000
288.787;  -50.400; -243.000;  -87.000
288.926;  -72.625; -454.000; -475.000
289.065;  116.800;  859.000;  672.000
289.204;  -61.275; -377.000; -217.000
289.344;  -94.950; -791.000; -690.000
289.483;   17.850;  416.000;  304.000
289.622;  -24.575; -291.000; -149.000
289.761;  -19.700; -309.000; -166.000
289.900; -103.650; -785.000; -626.000
290.039;   -6.875;  -12.000;  -95.000
290.178;  -25.075; -274.000; -180.000
290.317;  -88.650; -618.000; -479.000
290.456;  -56.725; -463.000; -451.000
290.595; -134.825; -961.000; -833.000
290.734; -136.400; -904.000; -891.000
290.873;  -52.200; -456.000; -420.000
291.011; -112.900; -833.000; -843.000
291.150; -100.550; -770.000; -682.000
291.289;  -26.200; -343.000; -110.000
291.428;  -90.200; -599.000; -480.000
291.567;  -59.550; -370.000; -442.000
291.706;   -7.675;  109.000;  154.000
291.845; -107.525; -597.000; -505.000
291.984; -162.925;-1234.000;-1061.000
292.122;   62.200;  602.000;  582.000
292.261;   38.325;  620.000;  463.000
292.400;    6.300; -144.000;  211.000
292.539; -117.700; -959.000; -813.000
292.678;  -28.125; -325.000; -300.000
292.816; -152.650;-1136.000; -965.000
292.955;  -89.375; -844.000; -684.000
293.094;  -35.000; -173.000; -337.000
293.233;  -60.550; -556.000; -400.000
293.371;  -35.450; -225.000;  -84.000
293.510; -101.325; -866.000; -780.000
293.649; -125.450; -959.000; -924.000
293.787;  -88.125;-1083.000;-1012.000
293.926;  -17.425; -113.000;  -32.000
294.065;  -44.350; -379.000; -290.000
294.203;   49.500;  298.000;  406.000
294.342;   15.375;   74.000;  156.000
294.481; 6425.350;51180.000; -836.000
294.619;  -27.325; -425.000; -582.000
294.758; -149.475;-1230.000;-1137.000
294.896;   52.750; -125.000;    5.000
295.035; -138.825;-1040.000;-1006.000
295.174; -118.600;-1082.000; -954.000
295.312;  -47.300; -323.000; -203.000
295.451;  -20.300; -307.000; -428.000
295.589;  -49.300; -389.000; -518.000
295.728;   22.775; -292.000; -165.000
295.866;   -7.000;  -36.000;  -51.000
296.005;  -65.900; -584.000; -341.000
296.143;  -72.825; -558.000; -596.000
296.282; -105.625; -957.000; -881.000
296.420;  -82.675; -657.000; -557.000
296.559;  -93.600; -892.000; -633.000
296.697;   10.500; -847.000; -665.000
296.835;   31.900;-1141.000;-1002.000
296.974;   48.550;  -23.000;   39.000
297.112;    4.375; -443.000; -504.000
297.251;  -84.575; -815.000; -755.000
297.389;   69.975; -576.000; -438.000
297.527;   39.600; -145.000;  -83.000
297.666;  -48.450; -486.000; -438.000
297.804;  -51.250; -404.000; -264.000
297.942;  -17.775; -136.000; -161.000
298.081;  -20.750; -183.000;   63.000
298.219;   46.650;  -17.000;  -19.000
298.357;   40.650; -144.000;  -71.000
298.495;   17.600; -810.000; -812.000
298.634;   51.250;  245.000;  219.000
298.772;   31.750; -220.000; -338.000
298.910;  -36.900; -309.000; -182.000
299.048;   -5.375; -130.000; -153.000
299.187;  -35.450; -350.000; -250.000
299.325;   14.750;   52.000;  122.000
299.463;   38.475; -389.000; -299.000
299.601;   92.550; -327.000; -271.000
299.739; -106.375; -908.000; -883.000
299.877;  -81.750; -791.000; -703.000
300.016;  -47.700;-1095.000; -935.000
300.154;  135.050;  -19.000; -161.000
300.292;   29.125; -428.000; -348.000
300.430;   11.350; -408.000; -291.000
300.568; -102.325; -940.000; -874.000
300.706;  -46.500; -366.000; -469.000
300.844;  -91.425;-1108.000; -979.000
300.982;  107.150;  246.000;  282.000
301.120; -109.750; -965.000; -866.000
301.258;  -73.125; -812.000; -705.000
301.396;   43.725;  104.000;  -41.000
301.534;   60.125; -218.000; -293.000
301.672;  -11.250; -664.000; -521.000
301.810;   26.175; -613.000; -545.000
301.948;   98.150;   53.000;  149.000
302.086;  573.750; -250.000;  -32.000
302.224;  862.500; -610.000; -585.000
302.362;   28.325; -558.000; -622.000
302.500;  -29.750; -923.000; -893.000
302.638;   87.925;  128.000;  245.000
302.776;   -0.525; -352.000; -408.000
302.913;   42.950;  447.000;  236.000
303.051;   -6.850;  -86.000;  -23.000
303.189;   48.300;   90.000;  118.000
303.327;  -43.225; -341.000; -256.000
303.465;  -84.075; -832.000; -588.000
303.603;  -98.375; -805.000; -604.000
303.740;  101.800;  417.000;  241.000
303.878;   19.025; -800.000; -759.000
304.016;  -92.450; -915.000; -790.000
304.154; -135.700;-1123.000;-1152.000
304.291;  -48.625; -505.000; -554.000
304.429;    3.525;  102.000;   74.000
304.567; -126.000; -908.000; -893.000
304.705;  -51.025; -408.000; -515.000
304.842;   75.025; -616.000; -540.000
304.980;   43.225;  215.000;   35.000
305.118;   33.025; -367.000; -365.000
305.255;  -84.625; -945.000; -927.000
305.393;   55.500;  178.000;  239.000
305.531; -107.100;-1173.000; -956.000
305.668;  -77.050; -663.000; -582.000
305.806;   99.400; -358.000; -439.000
305.943;   84.675; -629.000; -637.000
306.081;   33.825; -378.000; -267.000
306.219; -116.750; -863.000; -748.000
306.356;    9.425;  158.000;   27.000
306.494;  107.700;  981.000;  761.000
306.631;   -6.825;  -11.000;  -55.000
306.769;   -5.050; -613.000; -485.000
306.906;  -29.100; -284.000; -258.000
307.044;  -66.700; -473.000; -488.000
307.181;  -52.650; -410.000; -332.000
307.319;   10.375;  112.000;   87.000
307.456; -176.025;-1191.000;-1153.000
307.594; -108.625; -980.000; -727.000
307.731;   -4.400; -371.000; -164.000
307.868;  -10.175;  -15.000;   20.000
308.006; -132.975; -961.000; -847.000
308.143;  -86.425; -618.000; -330.000
308.281;  111.800;  -37.000; -254.000
308.418;  -32.600; -748.000; -640.000
308.555;  -79.075; -400.000; -250.000
308.693;  -87.100; -577.000; -573.000
308.830; -102.650; -712.000; -657.000
308.967;  -10.200; -215.000;  -95.000
309.105;  -48.175; -507.000; -396.000
309.242;   11.575; -468.000; -367.000
309.379;  222.550; -577.000; -655.000
309.517;  -93.550; -936.000; -948.000
309.654; -103.225; -910.000; -734.000
309.791;  -78.450; -662.000; -580.000
309.928; -116.350; -977.000; -914.000
310.065;  179.750;  819.000;  697.000
310.203;  -20.200; -825.000; -850.000
310.340;  -13.550; -465.000; -321.000
310.477;  -94.175; -412.000; -516.000
310.614;  -63.000; -383.000; -473.000
310.751;  -70.675; -427.000; -518.000
310.889;  -31.675;    1.000;   11.000
311.026; -153.650;-1161.000; -939.000
311.163;  -59.600; -386.000; -380.000
311.300;  -81.875; -512.000; -479.000
311.437;  -78.450; -658.000; -619.000
311.574; -157.300;-1226.000; -985.000
311.711;  -57.775; -595.000; -433.000
311.848;  -33.550; -380.000; -388.000
311.985;   -3.800;  270.000;   93.000
312.122; -110.925; -932.000; -762.000
312.259; -132.800; -941.000; -994.000
312.396;  -79.150; -508.000; -551.000
312.533; -101.800; -812.000; -790.000
312.670; -135.200;-1070.000; -898.000
312.807;  -35.625; -352.000; -367.000
312.944;  -82.750; -513.000; -611.000
313.081;  -27.400; -150.000; -415.000
313.218; -106.300;-1111.000; -867.000
313.355;   -0.975; -531.000; -449.000
313.492;    0.925; -455.000; -292.000
313.629;  130.375;  815.000;  735.000
313.766; -157.275;-1176.000;-1008.000
313.902;  -12.425; -186.000;   21.000
314.039;  -54.000; -372.000; -289.000
314.176;   14.850;  286.000;  192.000
314.313;  -73.600; -569.000; -473.000
314.450;  -85.675; -788.000; -684.000
314.587;  -75.000; -468.000; -480.000
314.723;   -5.925;  -78.000;  130.000
314.860;   34.150;  318.000;  332.000
314.997;   23.425;  223.000;  142.000
315.134;  -51.350; -385.000; -368.000
315.270;  -35.925; -480.000; -496.000
315.407; -117.850;-1094.000; -967.000
315.544;  -47.550; -657.000; -538.000
315.681;  -61.700; -681.000; -565.000
315.817;   17.550; -133.000; -176.000
315.954;   -7.500; -613.000; -392.000
316.091; -130.925;-1045.000;-1023.000
316.227;  -37.225;  -71.000; -179.000
316.364;    5.900;   23.000;    6.000
316.500;  -31.625; -113.000; -300.000
316.637;  -45.950; -181.000; -302.000
316.774;  -95.800; -625.000; -358.000
316.910; -109.475; -598.000; -629.000
317.047;  -69.575; -487.000; -351.000
317.183;  -58.750; -435.000; -566.000
317.320;  -12.725; -367.000; -321.000
317.456;  -78.850; -733.000; -805.000
317.593;  -85.300; -598.000; -641.000
317.729;   11.300;  168.000;  -67.000
317.866; -206.975;-1434.000;-1285.000
318.002; -101.850; -708.000; -948.000
318.139;  -97.225; -883.000; -867.000
318.275; -101.350;-1003.000; -738.000
318.412;  -50.975; -517.000; -336.000
318.548;  -46.475; -751.000; -720.000
318.685; -114.875; -985.000; -888.000
318.821;  -89.225; -762.000; -735.000
318.957;  -17.500;   34.000;  -23.000
319.094;   40.150;  297.000;  154.000
319.230;  -69.825; -756.000; -742.000
319.367;  109.625; -471.000; -520.000
319.503;   47.100; -538.000; -436.000
319.639; -103.800; -877.000; -793.000
319.775;  -73.350; -750.000; -685.000
319.912;  -58.275; -424.000; -519.000
320.048; -101.375;-1184.000;-1184.000
320.184;   77.625;   59.000;   70.000
320.321;  -49.850; -497.000; -467.000
320.457;   57.000;  475.000;  662.000
320.593;  -84.800; -375.000; -382.000
320.729; -110.450; -732.000; -734.000
320.866;  -76.225; -577.000; -635.000
321.002;  -80.425; -759.000; -809.000
321.138;  -14.475; -135.000; -211.000
321.274;   59.050; -148.000; -115.000
321.410;  -27.575; -585.000; -353.000
321.546;  -52.225;-1011.000; -911.000
321.683;   54.225;  400.000;  185.000
321.819;    1.925;  -48.000; -117.000
321.955; -104.825; -743.000; -722.000
322.091;  -50.650; -585.000; -540.000
322.227;  -17.400; -382.000; -202.000
322.363;  -18.150; -320.000; -215.000
322.499;  -38.200; -343.000; -331.000
322.635;  133.400;  636.000;  443.000
322.771;   17.075; -139.000;   12.000
322.907;   91.350;  129.000;  327.000
323.043;  -15.325; -115.000; -206.000
323.179;  -49.950; -394.000; -363.000
323.315;   -5.075; -401.000; -371.000
323.451;   78.700; -328.000; -236.000
323.587;   52.525;  -60.000;  -77.000
323.723;   13.625; -682.000; -601.000
323.859;  -15.675; -258.000;  -76.000
323.995;  -38.200; -467.000; -409.000
324.131; -131.625; -967.000; -892.000
324.267;  -33.300; -254.000; -276.000
324.402; -139.800; -960.000; -983.000
324.538;  -20.475; -279.000; -104.000
324.674;   14.975;  164.000;   77.000
324.810;  118.325;  226.000;  308.000
324.946;  -18.700; -810.000; -658.000
325.082;  -76.850; -568.000; -475.000
325.217;   -4.525;  -62.000;   16.000
325.353; -103.700; -764.000; -659.000
325.489;  -84.400; -540.000; -506.000
325.625;  -85.375; -579.000; -525.000
325.760;   69.075;  517.000;  376.000
325.896;  -20.925; -515.000; -702.000
326.032;  -51.925; -403.000; -352.000
326.168;  -68.900; -462.000; -369.000
326.303;  -66.475; -352.000; -461.000
326.439;  -16.000; -336.000; -276.000
326.575;  -11.675; -190.000;  -29.000
326.710;   -5.725; -156.000;  -30.000
326.846;    0.925;  146.000;  103.000
326.982; -101.300; -530.000; -548.000
327.117;  -87.450; -481.000; -442.000
327.253;  -84.300; -745.000; -742.000
327.388; -135.650;-1137.000;-1153.000
327.524;  -57.625; -811.000; -578.000
327.659;  -29.675;  -58.000;  -22.000
327.795;  -16.300;   69.000;   45.000
327.931;  -88.625; -723.000; -499.000
328.066;  -30.800; -417.000; -276.000
328.202;  -43.500;   12.000; -129.000
328.337;  100.925;  957.000;  713.000
328.473;   66.350;  -12.000;  -74.000
328.608;  -27.975; -256.000; -267.000
328.743;  -90.425; -799.000; -664.000
328.879;   20.700;  214.000;  114.000
329.014;  -30.250; -102.000; -122.000
329.150;  -88.150; -358.000; -483.000
329.285;  -86.450; -465.000; -466.000
329.421;  -53.000; -548.000; -246.000
329.556;  -16.575;  -36.000;   85.000
329.691; -117.825; -633.000; -615.000
329.827;  -93.775; -626.000; -480.000
329.962;  -38.750;  131.000; -301.000
330.097;  -96.725; -673.000; -585.000
330.233;  -47.400; -410.000; -223.000
330.368; -134.900; -839.000; -628.000
330.503;  -12.950;    3.000;   98.000
330.638;    3.725;  -93.000; -125.000
330.774;  -68.825; -609.000; -530.000
330.909;  -40.500; -434.000; -244.000
331.044;  -97.350; -714.000; -708.000
331.179; -191.150;-1217.000;-1109.000
331.315;    9.375;   77.000;   20.000
331.450;   15.150;  157.000;  285.000
331.585;  -83.200; -805.000; -706.000
331.720;  -87.000; -510.000; -460.000
331.855;  -14.025;  -35.000; -102.000
331.990;  254.025;   62.000;  138.000
332.126;  132.800; -110.000;   71.000
332.261;  -22.400; -379.000; -265.000
332.396;   -2.475; -135.000; -242.000
332.531;  -94.175;-1074.000;-1031.000
332.666;   32.250; -519.000; -363.000
332.801; -109.225; -726.000; -807.000
332.936;  -29.250; -192.000; -122.000
333.071; -140.550; -870.000; -817.000
333.206;    7.700;  307.000;  379.000
333.341;   22.350;  344.000;  418.000
333.476;  -88.750; -627.000; -623.000
333.611;  -43.725; -251.000; -173.000
333.746;  -46.100; -381.000; -464.000
333.881; -127.200; -973.000; -935.000
334.016; -134.750; -936.000; -917.000
334.151; -120.975; -746.000; -702.000
334.286;   24.200;  152.000;  186.000
334.421;  -14.750; -125.000; -178.000
334.556;  -78.375; -611.000; -567.000
334.690;  -94.475; -631.000; -577.000
334.825;   49.850;  381.000;   83.000
334.960;  -72.775; -285.000; -413.000
335.095;   -0.625;  135.000;  -91.000
335.230; -113.975; -722.000; -738.000
335.365; -151.075;-1084.000; -990.000
335.499; -143.375;-1108.000;-1037.000
335.634;   13.025;    9.000;  534.000
335.769; -115.000; -755.000; -720.000
335.904;  -70.700; -603.000; -561.000
336.038;  -69.450; -735.000; -657.000
336.173; -134.050;-1206.000;-1194.000
336.308;    4.550; -116.000; -189.000
336.443;   21.575; -544.000; -634.000
336.577;  -79.625; -936.000; -787.000
336.712;   59.125;   -4.000;  -12.000
336.847;  -60.000; -724.000; -607.000
336.981;   48.350; -272.000; -208.000
337.116;  265.125;  615.000;  501.000
337.250;  123.125; -434.000; -421.000
337.385;  258.750; -297.000; -208.000
337.520;  101.675; -632.000; -603.000
337.654;  -31.225; -215.000; -126.000
337.789; -127.475; -989.000; -933.000
337.923;  -38.000; -104.000; -205.000
338.058;  -80.625; -673.000; -738.000
338.192;  -45.475; -611.000; -488.000
338.327;  -18.275;  -18.000; -155.000
338.461;  -67.100; -299.000; -469.000
338.596; -108.275; -780.000; -638.000
338.730; -106.475; -767.000; -803.000
338.865;   86.050;  -46.000; -140.000
338.999;  -55.375; -846.000; -702.000
339.134;  -24.425; -634.000; -536.000
339.268;   11.750; -741.000; -603.000
339.403;  369.250; -740.000; -775.000
339.537;  109.775; -894.000; -820.000
339.671; -116.750; -829.000; -813.000
339.806;  -66.425; -556.000; -512.000
339.940;    7.400; -261.000; -235.000
340.074; -103.400; -685.000; -510.000
340.209;  -49.950; -351.000; -230.000
340.343;  -96.000; -517.000; -573.000
340.477;  137.825;  998.000; 1036.000
340.612;  -52.500;-1033.000; -900.000
340.746;  145.650; -199.000; -243.000
340.880;  -74.275; -924.000; -785.000
341.014;  -30.525;  -45.000; -154.000
341.149; -123.050; -756.000; -718.000
341.283; -115.950; -839.000; -754.000
341.417;  -96.175;-1124.000; -938.000
341.551;   94.025; -768.000; -708.000
341.685;  -41.700; -633.000; -611.000
341.820;  -69.675; -562.000; -493.000
341.954;  -49.650; -218.000; -349.000
342.088; -152.875;-1102.000;-1019.000
342.222;   64.800;  565.000;  618.000
342.356;  -72.250; -395.000; -335.000
342.490; -102.150; -880.000; -841.000
342.624;  -57.425; -339.000; -242.000
342.758;  -14.625; -364.000; -312.000
342.892;  -75.200; -710.000; -585.000
343.026;  -42.100;  -58.000; -116.000
343.160;  -73.250; -426.000; -376.000
343.294;  -82.900; -474.000; -337.000
343.428;  -27.800; -488.000; -448.000
343.562;  -11.700; -172.000;  -23.000
343.696;  -24.925; -385.000; -314.000
343.830;  -24.200; -362.000; -356.000
343.964;    2.350; -231.000; -168.000
344.098;  830.650;  199.000;   70.000
344.232;  699.350; -266.000; -127.000
344.366;   70.950; -567.000; -453.000
344.500;   33.250; -665.000; -744.000
344.634;   21.900; -324.000; -164.000
344.768;  -25.175; -531.000; -341.000
344.902;   23.925;  278.000;  256.000
345.035;  -72.300; -556.000; -496.000
345.169; -138.775; -933.000; -656.000
345.303;  -65.275; -308.000; -482.000
345.437;  -69.125; -826.000; -717.000
345.571;  -82.200; -675.000; -594.000
345.704;  -58.125; -309.000; -532.000
345.838;  -13.975; -331.000; -284.000
345.972;  -54.975; -543.000; -495.000
346.106;  161.650; -179.000; -190.000
346.239;  398.600; -312.000; -243.000
346.373;  -14.475; -343.000; -302.000
346.507; -141.400; -950.000; -962.000
346.640;  121.650;  -30.000;   13.000
346.774;  -46.700; -650.000; -797.000
346.908;  -18.225; -138.000;  -11.000
347.041; -102.075; -646.000; -593.000
347.175;   12.175;  259.000;   27.000
347.309;  -80.000; -698.000; -628.000
347.442; -109.875; -883.000; -732.000
347.576;  242.850;  670.000;  668.000
347.709;  172.250; -123.000;  -52.000
347.843;  -93.825; -933.000; -825.000
347.976;   29.025;  235.000;  294.000
348.110; -182.800;-1268.000;-1186.000
348.243; -119.325; -679.000; -772.000
348.377;   -3.175;  -26.000;   60.000
348.510;   37.050;  403.000;  540.000
348.644;  -44.600;  -37.000; -159.000
348.777;   -0.775;  180.000;  191.000
348.911;  -55.475; -142.000; -112.000
349.044;  147.150;  471.000;  448.000
349.178;  118.675;-1069.000;-1006.000
349.311;  108.075;  141.000;  255.000
349.444;   -4.550; -927.000; -813.000
349.578;  -28.425; -347.000; -200.000
349.711;  -98.675; -959.000; -862.000
349.845;  -22.350; -661.000; -591.000
349.978; -152.175;-1224.000;-1137.000
350.111;  -82.450; -546.000; -612.000
350.244;  -77.575; -596.000; -700.000
350.378;   -4.825; -392.000; -393.000
350.511;  -72.675; -393.000; -426.000
350.644;  -99.075; -808.000; -806.000
350.778;   11.300;  168.000;  104.000
350.911;   -2.900;  134.000;  140.000
351.044;  -92.100; -685.000; -615.000
351.177;  -39.225; -321.000; -281.000
351.310;  -24.750;    3.000; -131.000
351.444;  -94.875; -888.000; -788.000
351.577;  114.625;  140.000;   90.000
351.710;   98.725;  593.000;  417.000
351.843;  -25.125; -165.000;  -77.000
351.976;   -8.375;  149.000;  -79.000
352.109;  -88.000; -621.000; -612.000
352.242;  -30.475; -464.000; -419.000
352.376;  -75.600; -580.000; -636.000
352.509;  144.625; -437.000; -356.000
352.642;    3.400; -654.000; -604.000
352.775;   43.825; -141.000;  -98.000
352.908; -128.000; -933.000; -904.000
353.041; -114.650; -814.000; -824.000
353.174;  -74.325; -551.000; -424.000
353.307;  -94.025; -753.000; -764.000
353.440;   72.375;  541.000;  453.000
353.573; -127.025; -957.000;-1008.000
353.706;  -67.825; -384.000; -558.000
353.839;  -29.850; -264.000; -220.000
353.971;  -92.575; -657.000; -512.000
354.104;  -86.200; -896.000; -835.000
354.237;  -41.500; -627.000; -662.000
354.370;  -92.600; -846.000; -879.000
354.503; -186.150;-1231.000;-1308.000
354.636;  -54.150; -529.000; -348.000
354.769; -136.200; -937.000; -860.000
354.902;  -26.975; -230.000; -139.000
355.034;  -15.925; -164.000; -220.000
355.167;  -16.025; -262.000; -162.000
355.300; -101.475;-1061.000; -880.000
355.433;  968.500;  -71.000;  -14.000
355.565; 1490.875; -402.000; -384.000
355.698;  381.200; -356.000; -296.000
355.831;  -19.575; -882.000; -801.000
355.964;   72.125; -285.000; -170.000
356.096;  -88.450; -856.000; -843.000
356.229;  -17.050; -523.000; -530.000
356.362;  327.175; -373.000; -266.000
356.494;  585.925; -229.000; -162.000
356.627;  432.800;  269.000;  377.000
356.760;  664.800;  120.000;   53.000
356.892;  972.500; -286.000; -601.000
357.025;  586.500;  403.000;  389.000
357.157;  554.500; -167.000; -179.000
357.290;  672.700; -856.000; -713.000
357.423;  201.200; -667.000; -556.000
357.555;   86.325; -217.000; -228.000
357.688;  106.500; -483.000; -364.000
357.820;  426.100; -870.000; -877.000
357.953; 3416.425; -563.000; -589.000
358.085;  710.800; -632.000; -612.000
358.218;  958.750;-1131.000; -932.000
358.350;  188.650;  -58.000;  312.000
358.483; -132.900;-1300.000;-1187.000
358.615;  -40.050;-1182.000;-1078.000
358.747;  -78.825;-1187.000;-1058.000
358.880;    8.625; -810.000; -744.000
359.012;   -9.850; -376.000; -202.000
359.145;  -49.700; -480.000; -511.000
359.277;   40.450; -962.000; -913.000
359.409; 2833.400;  536.000;  231.000
359.542;  722.250; -738.000; -688.000
359.674;   72.350;   46.000;   13.000
359.806;  -66.275; -565.000; -438.000
359.939;  -55.025; -617.000; -516.000
360.071;   -8.250; -583.000; -579.000
360.203;  -27.575; -411.000; -364.000
360.335;   40.400;  164.000;  -16.000
360.468;  179.050; -249.000; -307.000
360.600; 2325.050; -547.000; -454.000
360.732; 2877.275; -546.000; -423.000
360.864;  391.250;-1216.000;-1044.000
360.996;  244.925; -516.000; -554.000
361.129;   24.450; -389.000; -598.000
361.261;   12.700;  110.000; -113.000
361.393;  -25.550; -252.000; -214.000
361.525;   22.875;   94.000;  244.000
361.657;  -47.075; -821.000; -703.000
361.789;   11.150; -139.000; -155.000
361.921;  182.150; -642.000; -593.000
362.053;  226.750;  524.000;  541.000
362.185;   32.225;  288.000;   72.000
362.318;  -79.125; -709.000; -705.000
362.450;  115.250;  294.000;  444.000
362.582;   66.025; -913.000; -870.000
362.714;  -40.775; -353.000; -332.000
362.846;  -76.650; -606.000; -490.000
362.978; -136.250; -941.000; -811.000
363.109;   37.675; -161.000; -260.000
363.241;  371.375; -739.000; -749.000
363.373;  418.325; -649.000; -564.000
363.505;  670.025; -186.000;  -91.000
363.637;  154.450; -787.000; -601.000
363.769; -126.000;-1067.000;-1080.000
363.901;  -72.850; -596.000; -654.000
364.033; -119.675;-1103.000;-1062.000
364.165;    3.975; -283.000; -283.000
364.296;   68.875; -316.000; -177.000
364.428;   57.300;-1344.000;-1220.000
364.560;  -80.325; -679.000; -661.000
364.692;  -67.875; -738.000; -835.000
364.824;  213.425; -588.000; -456.000
364.955;  435.850; -402.000; -564.000
365.087;  945.525;-1097.000; -852.000
365.219;   22.450; -686.000; -816.000
365.351;  -72.950; -526.000; -572.000
365.482;   38.875;  300.000;  240.000
365.614;  -49.150; -402.000; -314.000
365.746; -100.375; -729.000; -752.000
365.877;  -97.525; -706.000; -672.000
366.009;  267.975;  -35.000;  -62.000
366.141;  -92.675;-1249.000;-1134.000
366.272; -110.900; -803.000; -719.000
366.404; -125.200;-1005.000; -874.000
366.535;   -6.250; -139.000;  -12.000
366.667; -110.775; -644.000; -649.000
366.799;   25.900;  353.000;  203.000
366.930; -125.875; -862.000; -996.000
367.062;  120.350; -639.000; -613.000
367.193;  169.225; -872.000; -842.000
367.325;  -71.150; -580.000; -684.000
367.456;   19.450; -246.000;   31.000
367.588;  165.425; -371.000; -318.000
367.719;   19.675;  -44.000;  -45.000
367.851;  -32.350; -222.000; -241.000
367.982;  -63.000; -875.000; -732.000
368.113;   76.450; -475.000; -358.000
368.245; -125.600; -960.000; -841.000
368.376;  -34.975; -254.000; -302.000
368.508;  -49.100; -188.000; -263.000
368.639; -145.250;-1166.000;-1034.000
368.770;  -30.600; -670.000; -589.000
368.902;  -74.300; -836.000; -926.000
369.033; -121.650; -906.000; -855.000
369.164;  -53.950; -720.000; -653.000
369.296; -109.725; -452.000; -601.000
369.427;  -17.050; -209.000; -144.000
369.558;  -59.775; -593.000; -377.000
369.689;  -95.725; -721.000; -569.000
369.821; -121.775; -951.000; -845.000
369.952;  -12.850;   42.000; -108.000
370.083;  -53.225; -229.000; -108.000
370.214;  -92.650; -735.000; -650.000
370.345;   -2.650;   65.000;   81.000
370.477;  -99.275; -810.000; -790.000
370.608;  192.325; -328.000; -264.000
370.739;  -71.175;-1233.000;-1292.000
370.870;  -57.075;-1102.000; -923.000
371.001;   58.150; -378.000; -467.000
371.132;  -84.850; -754.000; -735.000
371.263;  -38.600;  -42.000; -148.000
371.394; -134.650; -841.000; -748.000
371.525;   30.125;  345.000;  225.000
371.657;  -99.575; -808.000; -670.000
371.788;   57.175;  103.000;  199.000
371.919;  159.600; -384.000; -304.000
372.050; 3288.725;  -91.000; -156.000
372.181;  963.875; -188.000; -294.000
372.311;  325.075;   42.000; -127.000
372.442;   10.725; -457.000; -451.000
372.573;  -30.625; -444.000; -340.000
372.704; -122.225;-1008.000; -980.000
372.835;   60.900; -228.000; -289.000
372.966;  -63.900; -646.000; -554.000
373.097;  -73.300; -575.000; -711.000
373.228;  -45.050; -717.000; -542.000
373.359;   86.175; -824.000; -536.000
373.490;  806.925; -881.000; -727.000
373.620; 1038.800;-1001.000; -803.000
373.751; 1581.100; -332.000; -396.000
373.882;  688.900; -663.000; -733.000
374.013;   46.075; -449.000; -262.000
374.143;  -53.700; -581.000; -659.000
374.274; -112.200; -987.000; -908.000
374.405;  148.750; -388.000; -276.000
374.536;  391.375; -526.000; -387.000
374.666;  970.700; -759.000; -807.000
374.797;  184.425; -817.000; -868.000
374.928;  736.375; -710.000; -560.000
375.058;  795.200; -535.000; -500.000
375.189;   66.750;  -59.000;  -93.000
375.320; -109.600; -928.000;-1034.000
375.450;  -50.125; -625.000; -616.000
375.581;  -54.800; -526.000; -436.000
375.712;  -32.650; -574.000; -250.000
375.842;  256.975; -438.000; -415.000
375.973;  189.300; -554.000; -513.000
376.103;  -54.000; -665.000; -648.000
376.234;  -86.250; -531.000; -552.000
376.364;  -56.725; -944.000; -867.000
376.495;  301.025;  925.000;  529.000
376.625;  -24.125; -472.000; -485.000
376.756;   39.600; -709.000; -678.000
376.886;  -98.575;-1178.000;-1026.000
377.017;   44.425;-1048.000;-1061.000
377.147;  340.700; -786.000; -782.000
377.278;   59.850;  174.000;  228.000
377.408; -133.675; -801.000; -815.000
377.538; -107.375; -707.000; -693.000
377.669;  -92.175; -537.000; -613.000
377.799;  -98.425; -645.000; -635.000
377.929;  -73.600; -610.000; -428.000
378.060; -133.200; -781.000; -847.000
378.190;  -69.375; -726.000; -531.000
378.320;  -51.150; -401.000; -406.000
378.451;  -20.000; -131.000;  -22.000
378.581;   -9.975;  -67.000; -110.000
378.711;  154.850; 1035.000;  866.000
378.841;  -32.875; -533.000; -675.000
378.972;  -74.500; -871.000; -751.000
379.102;  -33.800; -652.000; -579.000
379.232;  -30.175; -126.000;  -73.000
379.362; -124.350;-1001.000; -885.000
379.492;  -12.425; -373.000; -424.000
379.623;   81.350;    0.000;  111.000
379.753; -102.750;-1107.000; -974.000
379.883;  172.225;   59.000;  156.000
380.013;   -8.800;-1081.000;-1017.000
380.143; -110.950;-1097.000;-1056.000
380.273;  -98.500; -985.000; -861.000
380.403;  -17.000; -344.000; -257.000
380.533;  -32.525; -651.000; -664.000
380.663;   60.125;  173.000;  128.000
380.793; -110.225;-1027.000;-1074.000
380.923;  -31.750; -103.000;  -34.000
381.053;  -90.550; -613.000; -623.000
381.183;  -29.425; -106.000; -248.000
381.313;   17.150; -656.000; -470.000
381.443;    2.925; -692.000; -473.000
381.573;  156.800; -402.000; -409.000
381.703;  224.500;-1249.000;-1095.000
381.833; -138.525;-1454.000;-1336.000
381.963;   81.275; -134.000;  -87.000
382.093; 1280.700; -925.000; -909.000
382.223;  390.475; -713.000; -602.000
382.353;  -25.275; -801.000; -608.000
382.482;  312.500;-1091.000; -964.000
382.612;  685.750; -872.000; -644.000
382.742;  380.575; -695.000; -622.000
382.872;  216.850; -565.000; -551.000
383.002;   49.625;  347.000; -132.000
383.131;  -19.625; -226.000; -160.000
383.261;  -55.625; -706.000; -768.000
383.391;  275.975; -552.000; -377.000
383.521; 3271.200;  451.000;  263.000
383.650;  782.075; -947.000; -904.000
383.780;  -13.300; -783.000; -656.000
383.910;  106.425;  880.000;  802.000
384.039;   -1.375; -794.000; -656.000
384.169;  160.100;-1205.000;-1017.000
384.299;  -34.350; -650.000; -662.000
384.428;  -86.025; -764.000; -680.000
384.558;  -55.775; -308.000; -275.000
384.687;  -56.150; -414.000; -334.000
384.817;   -5.550;   75.000;   -2.000
384.947;   14.650; -234.000; -141.000
385.076;  267.775;  982.000;  912.000
385.206;  104.850;  369.000;  480.000
385.335;  -58.475; -549.000; -417.000
385.465;  -88.675; -655.000; -663.000
385.594;  111.375;  -53.000;  -44.000
385.724;  384.250; -868.000; -838.000
385.853;   89.650; -296.000; -270.000
385.982; 1225.850; -743.000; -787.000
386.112; 1924.400;-1052.000; -871.000
386.241;  128.800; -307.000; -312.000
386.371;   10.200; -174.000;  -87.000
386.500;  -22.600; -825.000; -789.000
386.629;    5.950; -874.000; -817.000
386.759;   62.725;  -43.000;   68.000
386.888;  -21.775; -170.000; -250.000
387.017;  -83.800; -648.000; -620.000
387.147;  -89.350; -771.000; -798.000
387.276;   -8.350; -410.000; -397.000
387.405;  -11.350; -398.000; -342.000
387.535;  -44.800; -452.000; -361.000
387.664;  -71.550; -692.000; -620.000
387.793;   62.325; -198.000; -113.000
387.922;  448.800;  255.000;  200.000
388.052;   -2.850; -576.000; -423.000
388.181;   -4.450; -342.000; -472.000
388.310;  -25.700; -889.000; -710.000
388.439;  -67.250; -749.000; -742.000
388.568;  159.025;  365.000;  244.000
388.697;  906.400; -756.000; -653.000
388.826;  182.725; -768.000; -666.000
388.956;   33.925; -285.000; -307.000
389.085;  -45.450; -347.000; -287.000
389.214; -108.875; -842.000; -872.000
389.343;  -65.850; -645.000; -413.000
389.472;  381.375;  126.000;  149.000
389.601;  496.425;   91.000;    0.000
389.730;   -1.250; -568.000; -687.000
389.859;   54.250;  226.000;   46.000
389.988;  156.300; -423.000; -408.000
390.117;  107.875; -168.000; -146.000
390.246;  -22.575; -331.000; -320.000
390.375;   65.800; -673.000; -626.000
390.504;  -76.725; -703.000; -621.000
390.633; -109.575; -672.000; -726.000
390.761;  -64.825; -732.000; -645.000
390.890;   11.900;   -4.000; -130.000
391.019;  -26.050; -421.000; -441.000
391.148; -135.900; -826.000; -855.000
391.277;  -72.225; -576.000; -493.000
391.406;  -89.475; -821.000; -805.000
391.534;   12.425;  574.000; -301.000
391.663;  -73.575; -583.000; -645.000
391.792;  -99.225; -673.000; -701.000
391.921;   63.900;   -3.000;   15.000
392.050;  153.475; -287.000; -228.000
392.178;  -68.875;-1206.000;-1061.000
392.307;  114.250; -758.000; -712.000
392.436;   51.150; -427.000; -641.000
392.564;   20.875;  166.000;   -6.000
392.693;  -99.725; -860.000; -682.000
392.822;  179.400; -529.000; -534.000
392.950;   66.925; -880.000; -714.000
393.079;  281.150; -188.000; -328.000
393.208;   10.000; -488.000; -511.000
393.336;  -33.425; -170.000; -145.000
393.465;  -50.750; -317.000; -199.000
393.593;   -2.100;   62.000;   79.000
393.722; -166.675;-1121.000; -916.000
393.850;  -44.350; -188.000;  -61.000
393.979; -150.525; -926.000; -805.000
394.107;  -71.150; -517.000; -537.000
394.236;  -12.225; -570.000; -507.000
394.364;  172.250;  383.000;  206.000
394.493;  249.400; -911.000; -767.000
394.621;  -24.275; -955.000; -916.000
394.750;  731.275; -873.000; -923.000
394.878; 2997.725; -247.000; -149.000
395.007; 4065.800; -721.000; -807.000
395.135;  280.175; -790.000; -721.000
395.263; -103.725;-1038.000;-1040.000
395.392;  -10.375;  -25.000; -107.000
395.520; -150.075; -818.000; -679.000
395.648;  -85.625; -865.000; -915.000
395.777;  -24.650; -366.000; -405.000
395.905;  -58.750; -449.000; -564.000
396.033;   10.650;  217.000;  172.000
396.162;  437.775; -399.000; -453.000
396.290;  395.700;  -17.000;   -2.000
396.418;   68.625; -555.000; -514.000
396.546;  -87.550; -571.000; -466.000
396.674; -107.725; -850.000; -878.000
396.803;    5.575;  -72.000;  -23.000
396.931;   73.350; -179.000; -199.000
397.059;   16.275;-1026.000; -989.000
397.187; -131.900;-1026.000; -975.000
397.315; -142.200; -884.000; -649.000
397.443; -103.775; -592.000; -443.000
397.572; -115.875; -578.000; -424.000
397.700;  -11.900; -607.000; -614.000
397.828;    5.025;  120.000;  -90.000
397.956;  -60.025; -508.000; -478.000
398.084;  -66.000; -767.000; -626.000
398.212;   16.250;  137.000;  124.000
398.340;   -1.400;  -56.000;  159.000
398.468;   11.925; -390.000; -169.000
398.596; -141.925; -993.000; -953.000
398.724; -134.050; -762.000; -767.000
398.852; -152.625;-1024.000; -976.000
398.980;  -56.400; -560.000; -560.000
399.108;  -74.350; -982.000; -735.000
399.236;   16.850;   13.000;    8.000
399.363;   -4.475;  222.000;  196.000
399.491;  -70.150; -404.000; -398.000
399.619; -134.700; -829.000; -800.000
399.747; -106.425; -859.000; -771.000
399.875;   64.600;  220.000;  234.000
400.003;  -60.300; -359.000; -284.000
400.130; -103.100; -421.000; -341.000
400.258;  -39.825;  -83.000;   38.000
400.386;  -68.975; -352.000; -168.000
400.514;  -64.325; -526.000; -587.000
400.641; -110.250; -928.000; -802.000
400.769; -131.675; -979.000; -888.000
400.897; -128.500; -838.000; -793.000
401.025;  -36.250; -166.000; -152.000
401.152;  -25.725;  220.000;   38.000
401.280; -101.750; -430.000; -429.000
401.408; -125.075; -712.000; -576.000
401.535; -110.625; -735.000; -758.000
401.663; -199.550;-1134.000;-1054.000
401.790;  -83.300; -514.000; -525.000
401.918;   35.800;  436.000;  405.000
402.046;  -28.050;  134.000;  122.000
402.173;  -29.175;  -18.000;    7.000
402.301;  -73.475; -519.000; -397.000
402.428;   38.200;  528.000;  383.000
402.556; -140.425;-1188.000; -913.000
402.683;  -32.250;  -20.000;   -1.000
402.811;  -18.875;  -37.000; -206.000
402.938;  -21.875;   20.000;   27.000
403.066;  155.550; -574.000; -558.000
403.193;  289.725;  299.000;  239.000
403.321;  232.850; -396.000; -574.000
403.448;  299.375;   83.000;   27.000
403.575;  134.625;  -90.000;  -46.000
403.703; -100.975; -732.000; -557.000
403.830;  -81.075; -531.000; -496.000
403.957; -132.700;-1117.000;-1023.000
404.085;    2.625;  -61.000; -172.000
404.212;   92.125;  -50.000;   63.000
404.339;  252.475; -566.000; -306.000
404.467; 5906.500; -612.000; -524.000
404.594; 3777.150; -287.000; -227.000
404.721;  822.775; -869.000; -764.000
404.848;   68.225; -113.000; -202.000
404.976; -109.825; -856.000; -783.000
405.103;  -18.000;  -14.000;  -82.000
405.230;   -9.250;  190.000;  226.000
405.357;    7.325;  117.000;   44.000
405.484;  260.575;  -49.000;    5.000
405.612;   48.250; -548.000; -563.000
405.739;  -57.450; -488.000; -243.000
405.866;   83.975;  669.000;  385.000
405.993;  -61.800; -398.000; -102.000
406.120; -144.750; -801.000; -887.000
406.247;  -62.525; -323.000; -342.000
406.374;  382.925;  540.000;  629.000
406.501;   68.975; -632.000; -702.000
406.628;  -80.725; -621.000; -589.000
406.755; -107.825; -803.000; -620.000
406.882;  -46.475; -228.000; -277.000
407.009; -109.000; -719.000; -628.000
407.136;   25.800; -480.000; -401.000
407.263;   80.675; -939.000; -829.000
407.390;  -84.200; -692.000; -614.000
407.517; -178.150;-1139.000;-1187.000
407.644;  -60.400; -332.000; -256.000
407.771;  -82.875; -249.000; -287.000
407.898;    3.850;  168.000;  328.000
408.025;  -66.675; -421.000; -313.000
408.151;  -11.425;   82.000;  153.000
408.278;  -73.125; -267.000; -216.000
408.405; -116.425; -931.000; -899.000
408.532;  -74.575; -549.000; -542.000
408.659; -122.575; -677.000; -648.000
408.785; -203.850;-1298.000;-1170.000
408.912;  -81.575; -412.000; -296.000
409.039; -113.500; -610.000; -686.000
409.166; -112.850; -591.000; -555.000
409.292; -107.025; -571.000; -534.000
409.419; -128.475; -665.000; -649.000
409.546;  -84.250; -431.000; -192.000
409.672; -110.925; -713.000; -545.000
409.799;  -27.475;  -36.000;   34.000
409.926;  -41.600; -180.000; -179.000
410.052; -178.200;-1127.000;-1091.000
410.179;  -56.575; -368.000; -392.000
410.305;  -92.850; -375.000; -493.000
410.432;  -56.750; -220.000; -333.000
410.558;  -96.825; -305.000; -380.000
410.685; -113.475; -688.000; -431.000
410.812; -105.325; -409.000; -588.000
410.938; -149.175; -964.000; -808.000
411.065;  -96.175; -671.000; -645.000
411.191;  -39.925; -189.000; -174.000
411.317; -129.500; -823.000; -742.000
411.444;  -66.375; -317.000; -246.000
411.570;  -84.575; -339.000; -294.000
411.697; -133.225; -758.000; -752.000
411.823; -171.275; -989.000; -999.000
411.949;  -52.625;  -56.000;   17.000
412.076; -115.300; -539.000; -519.000
412.202; -126.200; -758.000; -757.000
412.329; -129.400; -798.000; -752.000
412.455; -137.775; -821.000; -657.000
412.581;  -25.750;  -15.000;  172.000
412.707;  -72.475; -540.000; -457.000
412.834;    1.525;  156.000;  219.000
412.960;  -93.375; -785.000; -784.000
413.086; -113.950; -743.000; -701.000
413.212;  132.875;  604.000;  578.000
413.339;  -85.150; -685.000; -701.000
413.465;  -13.900; -364.000; -310.000
413.591; -112.025; -757.000; -474.000
413.717;  -59.875; -358.000; -366.000
413.843; -145.650; -839.000; -861.000
413.969;  -72.675;  -47.000; -292.000
414.096; -101.725; -679.000; -679.000
414.222;  -20.925;  -33.000;   85.000
414.348;  -48.100; -652.000; -385.000
414.474;   73.950;   38.000;  -52.000
414.600;  -17.500; -126.000; -144.000
414.726;  -26.475;  -96.000;  -55.000
414.852;  -66.725; -365.000; -342.000
414.978;   25.050;  104.000;  -18.000
415.104;   33.475;   38.000;   80.000
415.230;   22.150; -329.000; -330.000
415.356;   28.100; -409.000; -514.000
415.482;  186.250;   13.000;  -35.000
415.608;  268.500; -247.000; -323.000
415.734;  959.900;   67.000;   38.000
415.860;20136.475; -875.000; -767.000
415.986;14586.075; -685.000; -607.000
416.111; 1271.975; -798.000; -652.000
416.237;  250.275; -424.000; -571.000
416.363; 1132.150; -765.000; -733.000
416.489; 4263.400; -324.000; -251.000
416.615;  443.550; -707.000; -742.000
416.741;  -15.725; -677.000; -784.000
416.866;  -97.050; -673.000; -736.000
416.992; -126.650; -801.000; -818.000
417.118;  -37.475;  -41.000;  -80.000
417.244;  -81.000; -798.000; -531.000
417.369;  -84.325; -801.000; -612.000
417.495;  -12.050; -325.000; -254.000
417.621;  -97.675;-1015.000; -803.000
417.746;    3.475; -579.000; -572.000
417.872;   38.450; -254.000; -144.000
417.998;   61.600; -515.000; -530.000
418.123; 1091.500;-1073.000; -845.000
418.249; 5516.050; -512.000; -601.000
418.374;  756.750; -916.000; -824.000
418.500;  111.625; -383.000; -482.000
418.626;  101.875;   70.000;  -59.000
418.751;  100.150; -549.000; -448.000
418.877;  191.075; -637.000; -643.000
419.002; 1840.425; -688.000; -560.000
419.128;12834.475; -930.000; -721.000
419.253; 3121.650; -967.000; -837.000
419.379;  413.425; -391.000; -338.000
419.504;  386.950;  325.000;  415.000
419.629;  531.050; -393.000; -212.000
419.755; 3667.725; -317.000; -254.000
419.880;21852.200;  -98.000;   67.000
420.006;11699.775; -280.000; -221.000
420.131;29863.175; -662.000; -775.000
420.256; 4241.200; -315.000; -316.000
420.382;  559.625; -665.000; -687.000
420.507;   68.525; -649.000; -778.000
420.632;  107.950; -337.000; -339.000
420.758;  203.550; -251.000; -425.000
420.883;  -92.575; -876.000; -672.000
421.008; -101.625; -775.000; -619.000
421.133;  -86.100; -509.000; -467.000
421.259;  -77.450; -325.000; -259.000
421.384; -120.925; -834.000; -693.000
421.509;  -71.025;-1052.000; -862.000
421.634;  991.100; -936.000; -820.000
421.759;  425.275; -359.000; -327.000
421.885;  -57.775; -717.000; -656.000
422.010;  -74.900; -673.000; -542.000
422.135; -144.250; -695.000; -727.000
422.260;   23.350;  340.000;  280.000
422.385;  -52.750;   12.000;  -98.000
422.510;   21.325;  151.000;  -26.000
422.635;   -0.850;  -87.000;  -43.000
422.760;   68.750; -766.000; -791.000
422.885;   38.900;  -57.000;  -80.000
423.010;  -33.075; -112.000; -169.000
423.135; -111.250; -481.000; -561.000
423.260;  -20.175; -150.000; -245.000
423.385;   57.850;  476.000;  222.000
423.510;   23.700;   71.000;  -22.000
423.635;   65.450;  133.000;   45.000
423.760;   44.150;  383.000;  328.000
423.885;   55.950;  336.000;  391.000
424.010;    3.050;  -68.000;  -13.000
424.135;  -29.000;    5.000;  -33.000
424.259;  -96.550; -654.000; -457.000
424.384;  -62.650; -279.000; -272.000
424.509;  -33.775; -260.000; -186.000
424.634;  -87.400; -761.000; -623.000
424.759;  -30.525; -688.000; -544.000
424.883;   -8.925; -506.000; -527.000
425.008;  161.800; -502.000; -410.000
425.133; 2040.100; -679.000; -653.000
425.258;  928.900; -517.000; -381.000
425.382;  957.050; -867.000; -774.000
425.507; 2374.025; -487.000; -543.000
425.632;  403.225; -802.000; -663.000
425.756;  446.250; -256.000; -146.000
425.881; 6853.900; -831.000; -857.000
426.006;18438.700; -604.000; -355.000
426.130; 2859.375; -696.000; -508.000
426.255;  359.675; -611.000; -491.000
426.379;  164.075; -189.000; -577.000
426.504;  361.175;  660.000;  544.000
426.629; 4101.650; -519.000; -466.000
426.753; 2780.725;   64.000;  -46.000
426.878;  304.500; -252.000; -288.000
427.002;  142.575; -651.000; -668.000
427.127; 1621.550;  -35.000; -158.000
427.251;11635.500;  372.000;  401.000
427.375; 3279.350; -191.000; -173.000
427.500; 2142.650; -616.000; -610.000
427.624;  703.250; -234.000; -400.000
427.749;   72.275; -216.000; -225.000
427.873;  -44.775; -499.000; -412.000
427.997;  -60.050; -222.000; -230.000
428.122;   74.100;  795.000;  703.000
428.246;   67.200;  433.000;  434.000
428.371; -133.625; -869.000; -773.000
428.495; -108.525; -624.000; -646.000
428.619;  -30.775; -186.000; -117.000
428.743;   25.700;   65.000;  132.000
428.868;   -5.725; -732.000; -643.000
428.992; 1253.300; -219.000; -326.000
429.116;  493.375; -329.000; -357.000
429.240;  241.825;  419.000;  426.000
429.365;  -38.075; -454.000; -574.000
429.489;  -63.775; -638.000; -647.000
429.613;   12.275; -236.000; -177.000
429.737;   15.850; -563.000; -432.000
429.861;  262.125; -247.000; -133.000
429.985; 5681.025; -425.000; -305.000
430.109; 6226.725; -770.000; -908.000
430.234;  689.825;   76.000;  -50.000
430.358;   63.600; -250.000; -160.000
430.482;  -86.700; -672.000; -564.000
430.606;  -71.125; -655.000; -375.000
430.730;   -7.975; -437.000; -388.000
430.854;   67.075; -909.000; -835.000
430.978;  -88.900; -795.000; -764.000
431.102;  -85.975; -499.000; -422.000
431.226; -118.950; -874.000; -815.000
431.350;    9.375;  345.000;  422.000
431.474;  -85.700; -661.000; -373.000
431.597; -165.350;-1060.000; -848.000
431.721;  -83.950; -276.000; -267.000
431.845; -126.775; -704.000; -472.000
431.969;  -90.975; -304.000; -349.000
432.093;  -95.425; -395.000; -317.000
432.217;  -29.725;   32.000;   82.000
432.341; -100.200; -523.000; -518.000
432.464;   -8.500;   96.000;   40.000
432.588;  162.000; -401.000; -329.000
432.712;   72.925;  -52.000;  -52.000
432.836;   37.425;  213.000;  263.000
432.959;  -28.575; -372.000; -311.000
433.083;   87.575;   11.000;    2.000
433.207;  384.250;  285.000;  930.000
433.330; 5224.300; -391.000; -200.000
433.454; 6371.800; -654.000; -638.000
433.578; 3669.825;  583.000;  278.000
433.701;  657.800; -623.000; -675.000
433.825;  126.550; -292.000; -299.000
433.949;  117.450;   28.000;  -72.000
434.072;   36.525; -410.000; -323.000
434.196;  -20.700; -309.000; -117.000
434.319; 3706.400;25482.000;25124.000
434.443;  720.250; -656.000; -603.000
434.566; 2710.425;  281.000;   62.000
434.690;  444.400; -637.000; -383.000
434.813;   49.775; -251.000; -173.000
434.937;  -82.425; -569.000; -696.000
435.060;  -64.275; -423.000; -332.000
435.184;  221.900; -492.000; -217.000
435.307;  131.875;  159.000;  102.000
435.431;  -17.400;  -40.000;   24.000
435.554;  -94.675; -399.000; -240.000
435.677; -105.750; -350.000; -258.000
435.801;  -54.500;  -25.000;   49.000
435.924;  -40.550;    1.000;  -67.000
436.048; -130.075;-1019.000; -732.000
436.171;  -70.700; -240.000;  -66.000
436.294;  -31.775; -248.000; -229.000
436.417;   88.275; -963.000; -849.000
436.541;  -87.550; -814.000; -840.000
436.664;  -62.600; -242.000; -316.000
436.787;  -32.075;   13.000;  113.000
436.910; -128.275; -792.000; -422.000
437.034;   -4.850;  142.000;  143.000
437.157;   27.000;  -11.000;    0.000
437.280;  -78.375; -392.000; -292.000
437.403;  -97.625; -982.000; -869.000
437.526;  505.475; -903.000; -865.000
437.649; 1910.175; -505.000; -332.000
437.772;  255.575; -692.000; -540.000
437.896;   95.350;  700.000;  544.000
438.019; -100.100; -758.000; -503.000
438.142;  -81.800; -596.000; -506.000
438.265;  -37.975; -639.000; -670.000
438.388;  462.000; -520.000; -410.000
438.511;   72.000; -597.000; -394.000
438.634;  -63.050; -247.000; -125.000
438.757; -137.125; -693.000; -619.000
438.880;  -39.425;  -34.000;  -57.000
439.003;  -86.275; -417.000; -437.000
439.126;  -67.025; -287.000; -167.000
439.248;  -70.100;  -98.000; -139.000
439.371;  -51.900;    9.000;  -53.000
439.494;   21.650;  510.000;  439.000
439.617;  -60.050;   65.000;  -88.000
439.740; -186.700; -968.000; -816.000
439.863; -136.950; -755.000; -595.000
439.986; -129.700; -476.000; -431.000
440.108;  -50.850; -161.000; -112.000
440.231; -172.975; -950.000; -836.000
440.354;  -55.925;  -64.000; -150.000
440.477;   -0.700; -566.000; -542.000
440.599;  -16.200; -200.000; -225.000
440.722; -136.125; -709.000; -586.000
440.845;   66.350;  751.000;  928.000
440.968; -119.225; -415.000; -311.000
441.090;  -66.675; -199.000;  -33.000
441.213; -173.500;-1021.000; -825.000
441.336;  -65.850; -159.000;   -5.000
441.458;  -97.425; -549.000; -396.000
441.581;  -91.950; -628.000; -629.000
441.703;  -73.075; -152.000;   13.000
441.826; -132.025; -557.000; -400.000
441.948;  -51.575;   56.000;   51.000
442.071;   24.000;  555.000;  424.000
442.193; -113.775; -531.000; -485.000
442.316;   11.625;  152.000;   97.000
442.438;   41.850; -233.000;  -10.000
442.561;   71.375;  272.000;  262.000
442.683;  420.450; -809.000; -522.000
442.806;  989.725;   -8.000;   74.000
442.928;    3.975; -859.000; -604.000
443.051;  -70.800; -577.000; -373.000
443.173;  -91.950; -341.000; -339.000
443.295;  -99.500; -263.000; -371.000
443.418;  -76.750; -321.000;  -29.000
443.540;  -20.825; -106.000;   -4.000
443.662; -119.975; -563.000; -465.000
443.785;  -17.825;  335.000;  199.000
443.907;  -93.400; -362.000; -208.000
444.029; -133.900; -767.000; -494.000
444.152; -151.100; -644.000; -554.000
444.274;  -42.975;  -18.000;  -24.000
444.396; -116.675; -461.000; -221.000
444.518; -124.775; -691.000; -454.000
444.640; -118.575; -268.000; -111.000
444.763;  -19.550;  388.000;  249.000
444.885; -128.900; -432.000; -392.000
445.007;  -31.125;   35.000;   86.000
445.129; -118.700; -610.000; -515.000
445.251; -118.575; -372.000; -439.000
445.373; -152.125; -537.000; -386.000
445.495;   -8.500;  242.000;  350.000
445.617;   55.400;  853.000;  753.000
445.739;  -61.125; -215.000;  -97.000
445.861;  -61.575; -245.000; -112.000
445.984;  -60.550; -267.000; -101.000
446.105;  153.650; -418.000; -251.000
446.227;  520.750; -176.000;  -19.000
446.349;  -10.025; -358.000; -249.000
446.471; -119.550; -615.000; -448.000
446.593;  -74.575; -316.000;   19.000
446.715;  -21.750;  -67.000;   41.000
446.837;   47.075;  697.000;  832.000
446.959; -112.250; -457.000; -478.000
447.081; -125.275; -628.000; -518.000
447.203;   41.300;  862.000;  834.000
447.325;  -97.850; -270.000;   42.000
447.446;  -13.150;  286.000;  530.000
447.568; -153.475; -921.000; -803.000
447.690;  -81.925; -236.000; -245.000
447.812; -156.300; -798.000; -519.000
447.933;  -27.750;  155.000;  127.000
448.055;  -77.900; -306.000; -261.000
448.177;  121.425;   31.000;   79.000
448.299;   47.225; -935.000; -727.000
448.420;    9.775;  -25.000;  159.000
448.542;  -56.675;   -3.000;   33.000
448.664;  -19.325;  109.000;  322.000
448.785;  -27.475;  265.000;   83.000
448.907; -100.650; -614.000; -353.000
449.028;  -53.375; -771.000; -471.000
449.150;   58.975;  492.000;  589.000
449.272; -179.075;-1044.000; -913.000
449.393;   11.900;  612.000;  694.000
449.515; -137.025; -634.000; -581.000
449.636;  -67.800; -264.000; -155.000
449.758;   66.625;  763.000;  622.000
449.879; -107.450; -498.000; -396.000
450.001;  -80.900; -149.000;  -49.000
450.122;  -48.450;  -95.000;  162.000
450.244;  -32.625;   37.000;  364.000
450.365; -100.400; -495.000; -301.000
450.486;  -33.400;   80.000;  268.000
450.608;    7.850;  393.000;  326.000
450.729;   68.775;  578.000;  645.000
450.850;   13.000; -574.000; -466.000
450.972;  768.375; -552.000; -389.000
451.093; 5059.250;  190.000;  588.000
451.214; 2190.350; -516.000; -337.000
451.336;  391.225;  773.000;  579.000
451.457;   66.100;  264.000;  393.000
451.578;  -58.000; -118.000;  -74.000
451.699; -124.400; -546.000; -540.000
451.821;  -63.725; -284.000;  -50.000
451.942;   -5.475;  278.000;  285.000
452.063;   33.700;  228.000;  419.000
452.184;  564.950;  -54.000;  -49.000
452.305; 1095.300;  103.000;  170.000
452.427;  123.075; -549.000; -301.000
452.548;  -15.750;   23.000;   79.000
452.669;  -58.200; -257.000;  -89.000
452.790;  -71.550;    3.000;  -18.000
452.911;    2.225;  195.000;  259.000
453.032;  -74.475; -289.000;  -60.000
453.153;  -53.350;  -29.000;   81.000
453.274;   51.450;  737.000;  868.000
453.395;  -57.875;  -51.000;  175.000
453.516;  106.275; 1317.000; 1388.000
453.637;  -74.575; -205.000; -150.000
453.758;  -57.200;   15.000;   69.000
453.879; -116.450; -462.000; -250.000
454.000;   73.525; 1086.000;  948.000
454.121; -133.250; -554.000; -326.000
454.242; -132.475; -599.000; -383.000
454.362;  -56.675;  -99.000;  114.000
454.483;  -47.350; -309.000; -229.000
454.604;   48.375;  512.000;  580.000
454.725; -136.625; -627.000; -555.000
454.846; -130.275; -474.000; -406.000
454.967;  -23.300;  230.000;  539.000
455.087;  -45.175;  179.000;  153.000
455.208;   13.625;  554.000;  856.000
455.329;  -75.300;  -22.000;   82.000
455.450;   27.600;  473.000;  633.000
455.570;  -85.075; -234.000; -211.000
455.691;  -52.350;  201.000;  407.000
455.812; -111.000; -270.000;  -92.000
455.932;  -66.350;  107.000;  -97.000
456.053;  -99.400;   36.000;   24.000
456.173; -117.500; -433.000; -355.000
456.294; -129.875; -476.000; -303.000
456.415;  -67.950;  -73.000;   70.000
456.535;  -49.775;  297.000;  273.000
456.656;  -49.175;  132.000;  240.000
456.776;  -75.450;    3.000;  298.000
456.897;  -10.600;  308.000;  513.000
457.017;  -90.700; -153.000;   -3.000
457.138; -116.475; -402.000; -249.000
457.258;  -38.250;  263.000;  224.000
457.379;  -13.975;  509.000;  521.000
457.499;  -35.375;  443.000;  432.000
457.620; -128.550; -407.000; -231.000
457.740; -108.750; -132.000;  -11.000
457.860;  -59.175;   87.000;   44.000
457.981;  -54.900;  132.000;  124.000
458.101;  -82.700;  -89.000;   40.000
458.221;  -19.450;  336.000;  402.000
458.342;  -67.625;   -4.000;  -37.000
458.462;   18.300;  617.000;  352.000
458.582;  -30.300; -302.000; -294.000
458.703;    9.250;  303.000;  154.000
458.823;  -30.275;   22.000;  163.000
458.943;   36.625;  341.000;  467.000
459.063;  -30.725; 1124.000;  192.000
459.183;  -26.925;  328.000;  313.000
459.304;   -5.025;  315.000;  517.000
459.424;  -71.450; -246.000;  -89.000
459.544;  334.100;  388.000;  764.000
459.664;  846.725;  499.000;  506.000
459.784;  314.600; 1004.000; 1175.000
459.904;   67.300;  867.000;  744.000
460.024;   67.700;  867.000;  684.000
460.144;    3.100;  449.000;  554.000
460.264;  -11.625;  515.000;  327.000
460.385; -101.625; -145.000; -119.000
460.505;   33.775;  905.000;  858.000
460.625;  -91.950;  -17.000;  -68.000
460.745;  -25.625;  396.000;  541.000
460.864;  -44.925;  153.000;  469.000
460.984;    6.450;  499.000;  573.000
461.104;  130.900; 1656.000; 1775.000
461.224;   -0.525;  657.000;  650.000
461.344;  -28.025;  431.000;  360.000
461.464;  -35.850;  258.000;  513.000
461.584;  -20.025;  283.000;  466.000
461.704;  -54.350;   58.000;  108.000
461.824;  -61.700;  238.000;  259.000
461.943;  -50.675;  191.000;  130.000
462.063;  -79.425;    2.000;  324.000
462.183;   16.950;  639.000;  717.000
462.303;  100.250; 1678.000; 1230.000
462.422;   26.225;  781.000;  840.000
462.542;  -40.750;  271.000;  391.000
462.662;   20.850;  353.000;  380.000
462.782;  240.300;  833.000;  572.000
462.901;  481.500;  545.000;  717.000
463.021;  276.225; 1702.000; 1638.000
463.141;   -5.650;  337.000;  770.000
463.260;  -16.025;  614.000;  474.000
463.380;   15.575;  902.000;  884.000
463.499;  -49.600;  342.000;  332.000
463.619;  -40.225;  581.000;  559.000
463.738;  101.675; 1644.000;  903.000
463.858;   12.025;  657.000;  811.000
463.978;  -41.175;  542.000;  396.000
464.097;   43.575;  921.000; 1114.000
464.217;  112.900; 1196.000; 1143.000
464.336;  111.800; 1068.000; 1130.000
464.455;  -22.050;  328.000;  659.000
464.575;   28.675;  597.000;  602.000
464.694;  160.825; 1204.000; 1179.000
464.814;  110.975; 1190.000; 1138.000
464.933;   86.625; 1095.000; 1027.000
465.052;   88.575; 1412.000; 1054.000
465.172;   66.650;  922.000;  799.000
465.291;  129.325; 1376.000; 1320.000
465.410;    7.275;  462.000;  735.000
465.530;   68.125; 1355.000; 1310.000
465.649;   69.175; 1209.000; 1273.000
465.768;  136.125; 1673.000; 1508.000
465.888;   25.075;  941.000; 1174.000
466.007;  104.025; 1335.000; 1440.000
466.126;  -13.500;  721.000;  641.000
466.245;   52.175; 1176.000; 1187.000
466.364;   22.950;  950.000; 1060.000
466.484;   51.550; 1024.000; 1213.000
466.603;   40.200; 1101.000; 1222.000
466.722;   98.525; 1490.000; 1769.000
466.841;   68.925; 1151.000; 1401.000
466.960;   34.500; 1069.000;  972.000
467.079;  127.925; 1971.000; 1786.000
467.198;   45.900; 1238.000; 1181.000
467.317;   96.525; 1768.000; 1162.000
467.436;   66.250; 1709.000; 1261.000
467.555;  126.800; 1796.000; 1746.000
467.674;   58.575; 1227.000; 1329.000
467.793;   32.625; 1376.000; 1374.000
467.912;   79.225; 1658.000; 1539.000
468.031;  131.300; 2038.000; 1930.000
468.150;  123.400; 1842.000; 1837.000
468.269;  185.350; 2313.000; 2090.000
468.388;  184.025; 2168.000; 2339.000
468.507;  249.950; 2884.000; 2903.000
468.626;  221.525; 2555.000; 2541.000
468.744;  147.475; 2018.000; 2174.000
468.863;  183.425; 2312.000; 2523.000
468.982;   91.575; 1503.000; 1555.000
469.101;  206.825; 2788.000; 2692.000
469.220;  153.825; 2333.000; 2176.000
469.338;  236.250; 2935.000; 3051.000
469.457;  202.025; 2719.000; 2545.000
469.576;  335.825; 3953.000; 3784.000
469.695;  224.300; 2877.000; 3066.000
469.813;  412.300; 4148.000; 4192.000
469.932;  433.875; 4255.000; 4485.000
470.051;  410.350; 4075.000; 4161.000
470.169;  860.250; 4470.000; 4338.000
470.288; 1478.625; 4700.000; 4809.000
470.406;  881.225; 5059.000; 5194.000
470.525;  625.800; 6101.000; 5787.000
470.644;  638.325; 6847.000; 6794.000
470.762;  821.000; 8397.000; 7873.000
470.881;  906.875; 8651.000; 8464.000
470.999; 1043.400; 9685.000; 9151.000
471.118; 1122.000;11174.000;10711.000

