
Integration time [ms]: 100.000
Averaging Nr. [scans]: 40
Smoothing Nr. [pixels]: 0
Data measured with spectrometer [name]: 2101012U2
Wave   ;Sample   ;Dark     ;Reference
[nm]   ;[counts] ;[counts] ;[counts] 

197.733;   64.150;  516.000;  404.000
197.879;  -72.325; -610.000; -634.000
198.025;  -36.925; -475.000; -420.000
198.171;  -77.500; -602.000; -612.000
198.317;  -32.400; -401.000; -316.000
198.463;  -65.725; -655.000; -404.000
198.609;   24.875;  181.000; -137.000
198.755;  -78.625; -644.000; -410.000
198.901;  -62.650; -505.000; -424.000
199.047;  -64.075; -615.000; -488.000
199.193;  -35.775; -230.000; -468.000
199.339;  -43.575; -222.000; -369.000
199.485;   32.600;  330.000;  271.000
199.631;   11.875;  227.000;  310.000
199.777;  -52.850; -466.000; -398.000
199.923;  -62.575; -610.000; -424.000
200.069;    1.475; -141.000;  -58.000
200.215;   48.325;  128.000;  453.000
200.361;   53.950;  243.000;  477.000
200.507;  -65.200; -600.000; -373.000
200.653;  -28.100; -371.000; -194.000
200.798;  -28.900; -215.000; -125.000
200.944;   -5.400; -146.000;  -41.000
201.090;   35.025;   61.000;  222.000
201.236;   -7.925; -116.000; -158.000
201.382;  113.875;  874.000;  903.000
201.528;   -6.075;  -58.000;  -48.000
201.674;  -57.175; -386.000; -293.000
201.819;  -59.025; -540.000; -439.000
201.965;  -81.800; -699.000; -447.000
202.111;  -19.725; -273.000; -226.000
202.257;  -34.675; -250.000; -238.000
202.402;    0.650;   13.000;  -36.000
202.548;  -31.050; -169.000; -116.000
202.694;   67.975;  410.000; -183.000
202.840;  -74.275; -603.000; -531.000
202.985;  -58.025; -681.000; -639.000
203.131; -107.800; -832.000; -666.000
203.277;  -22.050; -199.000; -262.000
203.423;  -58.450; -434.000; -520.000
203.568;  -28.025; -462.000; -237.000
203.714;  -53.950; -535.000; -542.000
203.860;  -66.675; -682.000; -641.000
204.005;    7.075;  112.000;  167.000
204.151;   70.600;  561.000;  556.000
204.296;  -42.650; -354.000; -221.000
204.442;  -65.875; -600.000; -547.000
204.588;  -65.100; -592.000; -579.000
204.733;   16.400;  178.000;  168.000
204.879; -130.925;-1018.000; -822.000
205.025;    5.800;  -99.000;  126.000
205.170;   -4.800;  -17.000;   94.000
205.316;   60.300;  438.000;  661.000
205.461;  -79.225; -698.000; -554.000
205.607;   79.900;  609.000;  665.000
205.752;  -76.600; -626.000; -551.000
205.898;  -51.700; -501.000; -391.000
206.043;  -65.150; -578.000; -506.000
206.189;  -46.625; -243.000; -285.000
206.334;   59.500;  554.000;  606.000
206.480;   78.225;  409.000;  239.000
206.625;  -91.450; -529.000; -552.000
206.771;  -45.075; -451.000; -373.000
206.916;  -36.375; -210.000; -537.000
207.062;  -73.625; -545.000; -591.000
207.207;  -61.225; -546.000; -443.000
207.353;   43.200;  185.000;  460.000
207.498;   19.050;  196.000;   85.000
207.643;  -55.750; -501.000; -370.000
207.789; -120.625;-1069.000; -910.000
207.934;  -85.000; -665.000; -713.000
208.080;  -14.825; -154.000;   66.000
208.225;   -2.900;  -22.000;  -57.000
208.370;  -95.125; -727.000; -619.000
208.516;  -73.425; -741.000; -487.000
208.661;  -36.800; -127.000;  -69.000
208.806;  -22.900; -165.000; -171.000
208.952; -126.375;-1044.000; -731.000
209.097;   61.525;  378.000;  349.000
209.242;  -42.775; -307.000; -382.000
209.387;   74.125;  392.000;  350.000
209.533;  -55.025; -321.000; -350.000
209.678;   78.375;  472.000;  543.000
209.823;  -51.850; -408.000; -310.000
209.969;  -94.325; -860.000; -757.000
210.114; -105.525; -907.000; -719.000
210.259; -122.675; -939.000; -889.000
210.404;   -9.325; -171.000;  103.000
210.549;    8.125;  108.000;    3.000
210.695;  -25.700;   -3.000;  -95.000
210.840;   22.925;   94.000;   67.000
210.985;  -66.700; -484.000; -303.000
211.130;   72.300;  268.000;  406.000
211.275;    5.650;  207.000;  199.000
211.420;  -38.025; -300.000; -289.000
211.566;  -64.450; -536.000; -489.000
211.711;   11.400;  218.000;  157.000
211.856;  -61.975; -545.000; -519.000
212.001;    6.675;  151.000;   44.000
212.146;   25.375;  153.000;   49.000
212.291;  -11.925; -210.000; -186.000
212.436;  -24.450; -280.000;   -6.000
212.581;  -78.300; -685.000; -653.000
212.726;  -75.175; -487.000; -538.000
212.871;  -55.300; -552.000; -217.000
213.016; -141.550;-1172.000;-1029.000
213.161;   67.800;  406.000;  291.000
213.306;  -72.975; -435.000; -577.000
213.451;  -87.325; -778.000; -689.000
213.596;  -36.375; -455.000; -347.000
213.741;  -46.850; -448.000; -538.000
213.886;  -72.800; -498.000; -517.000
214.031;  -13.400; -294.000; -124.000
214.176;  -48.900; -408.000; -341.000
214.321;  -20.800; -296.000; -157.000
214.466;  -30.450; -163.000;  -43.000
214.611;  -14.475;  -61.000;  -10.000
214.756; -124.675; -948.000; -858.000
214.901;  -36.650; -388.000; -226.000
215.046; -121.875; -797.000; -825.000
215.191;   25.975;  128.000;   35.000
215.336;  -12.950; -157.000;  -19.000
215.480;  -63.850; -684.000; -505.000
215.625;  -17.700; -175.000;  -19.000
215.770;  -77.075; -757.000; -662.000
215.915;  -16.575;   -5.000;  -97.000
216.060;   -2.450; -113.000;  -21.000
216.205; -118.675; -731.000; -779.000
216.349;  -67.525; -470.000; -533.000
216.494; -137.000; -939.000; -867.000
216.639;  -98.475; -823.000; -888.000
216.784;  -85.350; -577.000; -525.000
216.929;   45.625;  392.000;  281.000
217.073;  -15.250; -244.000;  -31.000
217.218;    5.275;   78.000;  -47.000
217.363;  -84.475; -656.000; -618.000
217.507;  -73.300; -623.000; -588.000
217.652; -122.575; -845.000; -874.000
217.797;  -90.075; -708.000; -659.000
217.942; -110.100; -856.000; -720.000
218.086;   68.900;  608.000;  539.000
218.231;  -30.125; -174.000;  -26.000
218.376;  -36.000; -337.000; -229.000
218.520;    2.225;  -41.000;   96.000
218.665;  -21.325; -338.000; -204.000
218.810;  -60.050; -275.000; -233.000
218.954;   10.275;  201.000;   35.000
219.099; -109.650; -713.000; -963.000
219.243;  -73.850; -589.000; -554.000
219.388;  -38.775; -264.000; -136.000
219.532;  -20.300; -116.000; -116.000
219.677;  -79.125; -564.000; -521.000
219.822;   -7.700;   33.000;   89.000
219.966;   -8.300;   17.000;  -99.000
220.111;  -29.875; -328.000;  -40.000
220.255;  -98.500; -797.000; -750.000
220.400;   -9.625; -180.000; -146.000
220.544;  -68.875; -516.000; -450.000
220.689;  -50.250; -422.000; -451.000
220.833;  -32.175; -123.000;  -58.000
220.978;  -41.800; -393.000; -563.000
221.122;   21.675;  319.000;  307.000
221.267; -111.675; -906.000; -837.000
221.411;  -72.425; -478.000; -394.000
221.555;   -6.450; -104.000;  -23.000
221.700;  -61.750; -329.000; -222.000
221.844;   24.800;  255.000;  272.000
221.989;  -57.225; -328.000; -311.000
222.133;  -36.100; -289.000; -307.000
222.277;   -1.400;    5.000;   78.000
222.422;   12.000;  227.000;  113.000
222.566;  -43.725; -381.000; -214.000
222.711;  -61.650; -414.000; -479.000
222.855;  -79.850; -643.000; -586.000
222.999;  -68.375; -642.000; -717.000
223.144;  -14.025; -195.000; -194.000
223.288;   47.700;  423.000;  251.000
223.432;    7.775;  184.000;  230.000
223.576;    3.525;  152.000;  -21.000
223.721;   42.875;  364.000;  273.000
223.865;  -63.950; -472.000; -475.000
224.009;  236.125; 1673.000; 1631.000
224.153;  -78.475; -660.000; -671.000
224.298;  -79.550; -531.000; -489.000
224.442;  -18.300;  -74.000;  -33.000
224.586;  -10.000; -169.000; -106.000
224.730;  -86.175; -858.000; -670.000
224.875; -117.350; -739.000; -688.000
225.019;   -7.775;  102.000;  188.000
225.163;   38.950;  208.000;  341.000
225.307;   15.150;   97.000;  -91.000
225.451;   37.825;  360.000;  481.000
225.595;   31.225;  264.000;  176.000
225.739;  -14.950; -170.000;  -94.000
225.884;   10.900;   86.000;    5.000
226.028;  -99.075; -760.000; -626.000
226.172;  -39.800; -260.000; -273.000
226.316; -137.850; -941.000; -902.000
226.460;  -72.000; -645.000; -493.000
226.604;  -59.325; -406.000; -400.000
226.748;  -86.150; -836.000; -733.000
226.892;  -34.350; -227.000; -181.000
227.036;  -42.175; -537.000; -447.000
227.180;  -64.775; -551.000; -375.000
227.324;  -53.650; -561.000; -580.000
227.468; -120.675; -819.000; -717.000
227.612;   10.425;  242.000;  -28.000
227.756; -112.100; -845.000; -698.000
227.900;   54.025;  342.000;  441.000
228.044;  -43.475; -509.000; -290.000
228.188;   52.825;  448.000;  568.000
228.332;  -83.000; -546.000; -472.000
228.476;  -32.450; -223.000; -149.000
228.620;  -34.575; -210.000; -150.000
228.764;   61.875;  431.000;  349.000
228.908;  -13.175; -155.000;   30.000
229.052;  -78.075; -615.000; -528.000
229.195;  -10.575; -172.000;   13.000
229.339;  -28.100; -235.000; -305.000
229.483;  -26.475;    5.000; -162.000
229.627;   -8.625; -156.000;  139.000
229.771;  -59.250; -218.000; -294.000
229.915;   12.550;  230.000;   79.000
230.059; -102.525; -648.000; -663.000
230.202;  -36.750; -370.000; -317.000
230.346;  -16.800; -107.000;  107.000
230.490;  -59.550; -489.000; -521.000
230.634; -103.175; -736.000; -553.000
230.777;   71.700;  478.000;  509.000
230.921;  -58.775; -450.000; -359.000
231.065;  -37.600; -246.000; -286.000
231.209;   26.475;  261.000;  265.000
231.352;   15.625;   54.000;   40.000
231.496;   16.500;  568.000;  188.000
231.640;  -71.825; -693.000; -621.000
231.783;   58.025;  546.000;  525.000
231.927;  -44.925; -294.000; -365.000
232.071; -124.650; -962.000; -736.000
232.214; -114.550; -980.000; -764.000
232.358;  -96.175; -683.000; -599.000
232.502;    7.125;  -19.000;    7.000
232.645; -137.075;-1090.000; -927.000
232.789;  -29.850; -257.000; -218.000
232.933;  -56.175; -407.000; -224.000
233.076; -117.575;-1038.000; -897.000
233.220; -117.275; -752.000; -777.000
233.363;  -87.800; -669.000; -477.000
233.507;   42.925;  371.000;  129.000
233.650;  -80.225; -764.000; -834.000
233.794;   31.200;  438.000;  461.000
233.938;  -60.900; -530.000; -362.000
234.081;  -30.050;  -93.000;   31.000
234.225;  -64.375; -631.000; -539.000
234.368; -122.050; -773.000; -723.000
234.512;  -55.000; -385.000; -299.000
234.655;  -88.475; -582.000; -555.000
234.798;  -74.150; -493.000; -466.000
234.942; -120.425; -884.000;-1002.000
235.085;  -80.625; -651.000; -443.000
235.229;  -71.300; -405.000; -410.000
235.372;  -54.575; -247.000; -191.000
235.516;  -62.775; -397.000; -321.000
235.659;   17.575;   92.000;  121.000
235.802;  -17.600;  -38.000;  -22.000
235.946;   11.025;  335.000;  215.000
236.089;   21.175;  126.000;  250.000
236.233;   40.200;  275.000;  298.000
236.376;  -61.100; -235.000; -378.000
236.519;  -47.625; -297.000; -319.000
236.663;  -18.925; -215.000; -117.000
236.806; -125.300;-1029.000; -999.000
236.949;   47.675;  543.000;  431.000
237.092;   55.575;  412.000;  391.000
237.236;  -77.300; -589.000; -502.000
237.379;   64.875;  352.000;  428.000
237.522; -122.925; -879.000; -768.000
237.666;  -15.350; -271.000;   18.000
237.809; -118.475; -851.000; -823.000
237.952;   26.450;  469.000;  271.000
238.095;  -67.450; -447.000; -442.000
238.238;   85.550;  688.000;  700.000
238.382;    3.725;  166.000;  103.000
238.525;  -64.050; -598.000; -511.000
238.668; -142.175;-1060.000; -985.000
238.811;  -95.525; -638.000; -643.000
238.954;  -70.250; -483.000; -334.000
239.097;   87.450;  617.000;  664.000
239.241;   10.325;  394.000;  326.000
239.384;  -26.500; -254.000; -214.000
239.527;  -51.100; -424.000; -224.000
239.670; -145.300; -994.000;-1091.000
239.813;  -99.850; -696.000; -658.000
239.956;   71.550;  579.000;  473.000
240.099; -107.825; -778.000; -725.000
240.242;   56.250;  428.000;  432.000
240.385;   37.075;  466.000;  450.000
240.528;  -65.550; -706.000; -473.000
240.671;    6.425;  189.000;  134.000
240.814;  -52.600; -441.000; -158.000
240.957;  -96.925; -767.000; -578.000
241.100;  -85.375; -779.000; -755.000
241.243; -135.475;-1234.000; -893.000
241.386;  -69.075; -508.000; -379.000
241.529;  -77.700; -735.000; -547.000
241.672;  -68.500; -566.000; -495.000
241.815; -126.600; -832.000; -808.000
241.958;  -17.000; -125.000; -182.000
242.101;  -77.325; -545.000; -390.000
242.244;  -39.175; -270.000; -325.000
242.387;  -34.025; -304.000; -246.000
242.530;   56.600;  470.000;  134.000
242.673;  -49.175; -381.000; -309.000
242.815; -114.875; -925.000; -899.000
242.958;  -66.675; -482.000; -381.000
243.101;   14.150;  132.000;  187.000
243.244;  -76.700; -564.000; -521.000
243.387;  -48.750; -313.000; -316.000
243.530;  -98.450; -657.000; -674.000
243.672;   -2.725;   43.000;  -92.000
243.815;  -56.900; -355.000; -283.000
243.958;   -9.125;   98.000;  -26.000
244.101;   -6.150;   59.000;  -16.000
244.243;  -21.650;  -47.000;  101.000
244.386; -116.400; -761.000; -630.000
244.529;  -37.200; -132.000; -139.000
244.672; -150.800;-1154.000; -951.000
244.814;  -99.225; -621.000; -794.000
244.957;  -57.150; -380.000; -304.000
245.100;  -66.150; -489.000; -489.000
245.242;  -67.500; -387.000; -374.000
245.385;  -11.325;  -59.000;  -39.000
245.528; -130.450; -871.000; -705.000
245.670;   81.475;  612.000;  634.000
245.813;  -85.325; -599.000; -547.000
245.956;  -29.450; -324.000; -275.000
246.098;  -78.750; -508.000; -650.000
246.241;    0.675;  194.000;   48.000
246.383;  -30.650; -119.000;  -73.000
246.526;  -69.775; -454.000; -525.000
246.669; -112.875; -889.000; -780.000
246.811;   15.775;  172.000;   -1.000
246.954;  -56.025; -512.000; -426.000
247.096;  -20.675;  -84.000;   -6.000
247.239;  -71.850; -482.000; -445.000
247.381;  -66.300; -647.000; -488.000
247.524;   63.250;  645.000;  679.000
247.666;   -8.000;   58.000;   11.000
247.809; -127.525; -887.000; -691.000
247.951;  -20.275;  -75.000;  138.000
248.094;   14.175;  432.000;  308.000
248.236; -139.700;-1262.000;-1238.000
248.378;  -25.600; -356.000;  -81.000
248.521;  -29.375; -334.000; -337.000
248.663;  -42.425; -236.000; -267.000
248.806;  -27.125; -300.000; -266.000
248.948; -118.175; -886.000; -763.000
249.090;  -43.700; -428.000; -398.000
249.233;  -67.000; -344.000; -381.000
249.375;  -71.800; -474.000; -451.000
249.518;  -27.475;  -83.000; -133.000
249.660;   -3.525; -103.000;    3.000
249.802; -168.125;-1303.000;-1189.000
249.945;  -77.575; -612.000; -540.000
250.087; -113.425; -834.000; -768.000
250.229;  -51.200; -362.000; -480.000
250.371;  -72.100; -494.000; -439.000
250.514;  -63.775; -310.000; -244.000
250.656;  -21.650;   69.000;  102.000
250.798; -122.700; -849.000; -800.000
250.940;  -60.550; -322.000; -322.000
251.083;  -47.675; -335.000; -111.000
251.225;   45.650;  338.000;  310.000
251.367;  -44.775; -274.000; -373.000
251.509;  -43.950; -265.000; -210.000
251.651;  -89.300; -731.000; -671.000
251.794;   45.300;  538.000;  632.000
251.936; -100.125; -821.000; -747.000
252.078;  -73.075; -540.000; -461.000
252.220;  -87.375; -645.000; -477.000
252.362;   48.150;  344.000;  462.000
252.504;  -78.225; -677.000; -584.000
252.646; -110.450; -875.000; -722.000
252.788;  -10.975;   14.000; -128.000
252.931;  -47.000; -257.000; -253.000
253.073;  -54.150; -376.000; -317.000
253.215;  -13.825;  141.000;  122.000
253.357;  -12.125;   82.000; -153.000
253.499;  -46.350; -374.000; -234.000
253.641;  -87.150; -749.000; -594.000
253.783;  -91.625; -609.000; -527.000
253.925;  -85.850; -586.000; -591.000
254.067; -118.150; -744.000; -667.000
254.209;  -23.475; -391.000; -259.000
254.351; -142.025; -865.000; -883.000
254.493;  -67.975; -441.000; -417.000
254.635; -137.800; -936.000; -818.000
254.777;  -91.150; -752.000; -687.000
254.918;  -61.050; -512.000; -430.000
255.060;  -66.775; -551.000; -395.000
255.202;  -61.550; -473.000; -261.000
255.344;  -84.075; -658.000; -455.000
255.486;  -74.350; -471.000; -406.000
255.628; -101.150; -780.000; -781.000
255.770;  -92.500; -676.000; -536.000
255.912;  -70.225; -559.000; -468.000
256.053; -103.750; -730.000; -508.000
256.195;  140.600; 1008.000;  903.000
256.337; -107.925; -861.000; -595.000
256.479;   71.725;  532.000;  416.000
256.621;  -55.075; -394.000; -212.000
256.762;  -99.175; -789.000; -742.000
256.904;   31.225;  485.000;  487.000
257.046;  -37.500; -381.000; -271.000
257.188;  -49.075; -351.000; -264.000
257.329;  -80.950; -525.000; -464.000
257.471; -120.300; -939.000; -807.000
257.613;  -70.925; -584.000; -498.000
257.755; -146.650;-1073.000; -982.000
257.896;   29.725;  286.000;  392.000
258.038;  -73.100; -403.000; -352.000
258.180;  -44.125; -354.000; -279.000
258.321;  -89.625; -581.000; -457.000
258.463;  -17.625;  -71.000;  133.000
258.605;  -90.350; -562.000; -570.000
258.746;  -97.300; -886.000; -772.000
258.888; -147.700;-1026.000;-1020.000
259.029;   17.425;  121.000;   -8.000
259.171;  -88.725; -614.000; -550.000
259.313;   -2.450;  -49.000;  -47.000
259.454;  -89.575; -536.000; -414.000
259.596;  -47.475; -483.000; -390.000
259.737;  -75.700; -590.000; -474.000
259.879;   30.250;  217.000;  311.000
260.020;   63.275;  901.000;  636.000
260.162;  -43.675; -146.000; -253.000
260.303; -113.875; -768.000; -687.000
260.445;  -86.575; -609.000; -613.000
260.586;   15.825;  392.000;  157.000
260.728;  -54.150; -360.000; -248.000
260.869;  -68.775; -350.000; -343.000
261.011;   68.275;  706.000;  537.000
261.152;  -71.700; -479.000; -319.000
261.293;  -77.625; -576.000; -595.000
261.435;  -42.625; -219.000; -184.000
261.576;  -43.775; -455.000; -325.000
261.718;   43.400;  420.000;  470.000
261.859; -126.175; -940.000; -949.000
262.000; -117.150; -951.000;-1016.000
262.142;  -28.775;  -52.000;  -60.000
262.283; -116.550; -808.000; -691.000
262.424;  -87.200; -666.000; -625.000
262.566; -153.975;-1161.000; -983.000
262.707; -112.850; -840.000; -830.000
262.848; -140.225; -769.000; -726.000
262.990;  -46.475; -362.000; -345.000
263.131;   73.825;  650.000;  681.000
263.272;    1.675;  -61.000;  -41.000
263.413; -102.000; -589.000; -561.000
263.555;  -72.050; -669.000; -143.000
263.696;  -87.625; -550.000; -641.000
263.837;  -54.125; -449.000; -551.000
263.978;  -32.175;   -5.000;  -77.000
264.119;  -41.850; -283.000; -264.000
264.261; -117.975; -847.000; -630.000
264.402;   -5.000;   33.000;   40.000
264.543;  -78.675; -509.000; -524.000
264.684;   -8.975;   61.000;  -50.000
264.825;  -80.650; -816.000; -538.000
264.966;  -20.650;  -84.000;  -67.000
265.107; -104.050; -646.000; -670.000
265.248; -125.275; -825.000; -812.000
265.390;  -28.900;  152.000;   -9.000
265.531;  -29.250; -238.000; -107.000
265.672; -100.025; -557.000; -630.000
265.813;   52.400;  563.000;  439.000
265.954; -137.200; -959.000; -940.000
266.095;  -27.700; -372.000; -322.000
266.236; -109.900; -686.000; -548.000
266.377;  -36.200; -243.000; -297.000
266.518;  -74.800; -619.000; -547.000
266.659;   25.225;  170.000;  268.000
266.800;  -13.225;   83.000;   85.000
266.941;  -74.275; -487.000; -478.000
267.082;    6.200;  354.000;   99.000
267.223;  -65.725; -344.000; -273.000
267.364; -111.975; -892.000; -686.000
267.504;  -26.025;    3.000;  135.000
267.645;   -6.300;  160.000;   67.000
267.786;  -35.700; -147.000;  -86.000
267.927;  -78.525; -473.000; -379.000
268.068;  -33.275; -186.000;  -61.000
268.209;  -42.800; -175.000; -413.000
268.350;  -66.875; -388.000; -532.000
268.490;  -96.225; -648.000; -521.000
268.631;   33.950;  127.000;  225.000
268.772; -106.925; -874.000; -647.000
268.913;  -55.050; -328.000; -476.000
269.054;  -29.475; -117.000;   12.000
269.194;  -62.125; -418.000; -402.000
269.335; -163.675;-1137.000;-1074.000
269.476;  -16.250;   33.000;  -35.000
269.617;  -56.525; -347.000; -392.000
269.757;  -95.525; -713.000; -646.000
269.898; -109.300; -856.000; -613.000
270.039;  -69.125; -415.000; -405.000
270.180; -130.300; -952.000; -816.000
270.320;  -32.900; -190.000; -250.000
270.461;  -53.675; -277.000; -249.000
270.602;  -19.375; -186.000; -156.000
270.742; -141.250; -868.000; -943.000
270.883;  -74.225; -442.000; -390.000
271.023;  -63.725; -358.000; -357.000
271.164;  -69.225; -607.000; -528.000
271.305; -111.525; -666.000; -654.000
271.445;  -90.150; -722.000; -683.000
271.586;  -80.275; -462.000; -283.000
271.726;  -35.050; -397.000; -322.000
271.867;  -80.625; -594.000; -534.000
272.008;   60.425; -473.000; -285.000
272.148;   74.700;  462.000;  468.000
272.289;  -15.250; -113.000; -181.000
272.429;   -1.250;   19.000;  185.000
272.570;  -98.425; -633.000; -737.000
272.710; -104.625; -825.000; -775.000
272.851;  -25.100;  113.000; -130.000
272.991; -169.625;-1173.000;-1077.000
273.131;  -71.800; -419.000; -459.000
273.272; -113.500; -683.000; -723.000
273.412;  -12.050; -143.000;  -31.000
273.553;  -80.875; -488.000; -507.000
273.693;  125.375;  913.000;  858.000
273.834; -111.775; -894.000; -692.000
273.974;  -76.050; -664.000; -615.000
274.114; -105.425; -772.000; -560.000
274.255;   49.825;  414.000;  373.000
274.395;  -32.125; -180.000; -125.000
274.535;   18.275;  199.000;  350.000
274.676;   -2.225;  225.000;   94.000
274.816;   -7.825;  110.000;   34.000
274.956;  -95.350; -624.000; -690.000
275.097; -103.650;-1014.000; -922.000
275.237; -123.175; -913.000; -803.000
275.377;  -95.625; -778.000; -689.000
275.517; -158.700; -878.000; -937.000
275.658;  -77.975; -590.000; -555.000
275.798;  -78.900; -606.000; -413.000
275.938;    2.500;  215.000;  323.000
276.078;  -81.275; -626.000; -395.000
276.218;   -9.475;   99.000;  104.000
276.359; -140.075;-1026.000;-1024.000
276.499;  -82.075; -605.000; -446.000
276.639;  -39.300; -305.000; -151.000
276.779;  -61.025; -475.000; -357.000
276.919; -114.200; -783.000; -624.000
277.059;  -29.475; -261.000; -212.000
277.199;  -60.525; -357.000; -259.000
277.340;   29.900;  287.000;  175.000
277.480; -124.800; -840.000; -693.000
277.620;    8.650;  192.000;   16.000
277.760; -195.875;-1533.000;-1294.000
277.900;   -1.150;  113.000;   33.000
278.040;  -13.800;  137.000;  159.000
278.180;   23.925;  270.000;  170.000
278.320;  -17.425;   21.000;   56.000
278.460;  -66.675; -443.000; -469.000
278.600;  -99.425; -708.000; -598.000
278.740;   29.250;  448.000;  224.000
278.880; -102.950; -768.000; -791.000
279.020;  -34.450; -194.000; -144.000
279.160;  -90.925; -672.000; -595.000
279.300; -111.875; -926.000; -873.000
279.440; -101.400; -709.000; -622.000
279.579;  -87.100;-1014.000; -929.000
279.719;  -67.300; -410.000; -394.000
279.859;   34.350;   -4.000;   41.000
279.999;   -8.800; -208.000;  101.000
280.139;  -44.475; -435.000; -387.000
280.279;  -93.875; -708.000; -745.000
280.419;  -20.450; -229.000; -147.000
280.559;  -64.200; -259.000; -180.000
280.698;  -95.175; -790.000; -639.000
280.838; -112.150; -778.000; -800.000
280.978; -101.350; -846.000; -790.000
281.118; -118.425; -811.000; -704.000
281.257;   -1.800;   24.000;    6.000
281.397; -145.800;-1094.000; -960.000
281.537;  -94.225; -599.000; -712.000
281.677;  -40.625; -150.000; -101.000
281.816;  -97.925; -700.000; -630.000
281.956;  -53.350; -193.000; -257.000
282.096;  -64.275; -539.000; -396.000
282.235;  -99.550; -672.000; -638.000
282.375;  -27.125; -243.000;  -98.000
282.515; -109.775; -715.000; -707.000
282.654;    6.625;   29.000;  106.000
282.794;   17.250;  388.000;  244.000
282.934;  -60.700; -530.000; -491.000
283.073; -143.675;-1030.000; -857.000
283.213;  -70.275; -460.000; -467.000
283.353;  -61.750; -408.000; -349.000
283.492;  -40.450; -264.000; -296.000
283.632;  -60.050; -254.000; -168.000
283.771;  -82.400; -859.000; -730.000
283.911;  -60.325; -369.000; -260.000
284.050; -121.950; -794.000; -748.000
284.190; -163.625;-1229.000;-1096.000
284.329; -132.750;-1055.000; -964.000
284.469;  -93.475; -516.000; -591.000
284.608;  -67.050; -559.000; -598.000
284.748;  -90.450; -614.000; -570.000
284.887;   -7.475;  -87.000;  -20.000
285.027; -138.050; -844.000; -892.000
285.166;  -43.150; -192.000; -249.000
285.306;  -31.900; -116.000;  -33.000
285.445;  -54.075; -229.000; -343.000
285.584; -106.225; -630.000; -494.000
285.724;  -48.575; -282.000; -322.000
285.863; -106.800; -857.000; -507.000
286.002;  -59.475; -366.000; -276.000
286.142; -102.075; -715.000; -622.000
286.281;  -84.575; -525.000; -493.000
286.420;  -86.975; -554.000; -417.000
286.560;   71.325;  653.000;  623.000
286.699; -128.400; -958.000; -912.000
286.838;  -74.600; -590.000; -591.000
286.978; -103.550; -533.000; -537.000
287.117; -130.650;-1085.000; -950.000
287.256;  -44.000; -228.000; -211.000
287.395;  -52.475; -197.000; -378.000
287.535;  -61.350; -370.000; -298.000
287.674;  -86.775; -509.000; -484.000
287.813;   33.925;  661.000;  533.000
287.952; -135.000;-1010.000; -871.000
288.091; -152.025;-1049.000; -915.000
288.231;   -5.050;   13.000;   15.000
288.370; -171.150;-1217.000;-1200.000
288.509;  -82.175; -728.000; -645.000
288.648;  -98.750; -770.000; -548.000
288.787;  -42.625; -243.000;  -87.000
288.926;  -73.950; -454.000; -475.000
289.065;  100.350;  859.000;  672.000
289.204;  -65.075; -377.000; -217.000
289.344;  -90.575; -791.000; -690.000
289.483;   -7.225;  416.000;  304.000
289.622;  -43.550; -291.000; -149.000
289.761;  -40.600; -309.000; -166.000
289.900; -111.325; -785.000; -626.000
290.039;  -29.250;  -12.000;  -95.000
290.178;  -43.750; -274.000; -180.000
290.317;  -92.275; -618.000; -479.000
290.456;  -66.825; -463.000; -451.000
290.595; -140.275; -961.000; -833.000
290.734; -134.725; -904.000; -891.000
290.873;  -84.725; -456.000; -420.000
291.011; -111.300; -833.000; -843.000
291.150; -108.575; -770.000; -682.000
291.289;  -27.375; -343.000; -110.000
291.428; -104.925; -599.000; -480.000
291.567;  -57.350; -370.000; -442.000
291.706;  -10.175;  109.000;  154.000
291.845;  -93.725; -597.000; -505.000
291.984; -168.300;-1234.000;-1061.000
292.122;   59.150;  602.000;  582.000
292.261;   33.825;  620.000;  463.000
292.400;   -9.375; -144.000;  211.000
292.539; -130.800; -959.000; -813.000
292.678;  -51.875; -325.000; -300.000
292.816; -169.750;-1136.000; -965.000
292.955; -102.150; -844.000; -684.000
293.094;  -40.675; -173.000; -337.000
293.233;  -54.800; -556.000; -400.000
293.371;  -49.475; -225.000;  -84.000
293.510; -109.625; -866.000; -780.000
293.649; -134.500; -959.000; -924.000
293.787; -130.950;-1083.000;-1012.000
293.926;  -30.925; -113.000;  -32.000
294.065;  -56.775; -379.000; -290.000
294.203;   25.225;  298.000;  406.000
294.342;   13.850;   74.000;  156.000
294.481; 5730.650;51180.000; -836.000
294.619;  -30.375; -425.000; -582.000
294.758; -166.275;-1230.000;-1137.000
294.896;    2.300; -125.000;    5.000
295.035; -135.175;-1040.000;-1006.000
295.174; -129.375;-1082.000; -954.000
295.312;  -59.875; -323.000; -203.000
295.451;  -46.125; -307.000; -428.000
295.589;  -77.275; -389.000; -518.000
295.728;    4.200; -292.000; -165.000
295.866;  -13.100;  -36.000;  -51.000
296.005;  -85.600; -584.000; -341.000
296.143;  -97.225; -558.000; -596.000
296.282; -112.200; -957.000; -881.000
296.420;  -99.800; -657.000; -557.000
296.559; -111.950; -892.000; -633.000
296.697;  -76.275; -847.000; -665.000
296.835;  -90.775;-1141.000;-1002.000
296.974;   16.375;  -23.000;   39.000
297.112;  -49.225; -443.000; -504.000
297.251; -108.950; -815.000; -755.000
297.389;  -30.575; -576.000; -438.000
297.527;  -16.000; -145.000;  -83.000
297.666;  -67.350; -486.000; -438.000
297.804;  -65.400; -404.000; -264.000
297.942;  -20.850; -136.000; -161.000
298.081;  -21.025; -183.000;   63.000
298.219;   10.700;  -17.000;  -19.000
298.357;  -35.850; -144.000;  -71.000
298.495;  -73.400; -810.000; -812.000
298.634;    2.825;  245.000;  219.000
298.772;  -26.675; -220.000; -338.000
298.910;  -55.600; -309.000; -182.000
299.048;  -25.925; -130.000; -153.000
299.187;  -45.100; -350.000; -250.000
299.325;   -4.100;   52.000;  122.000
299.463;  -35.275; -389.000; -299.000
299.601;   -6.275; -327.000; -271.000
299.739; -142.450; -908.000; -883.000
299.877;  -98.875; -791.000; -703.000
300.016; -107.650;-1095.000; -935.000
300.154;   22.950;  -19.000; -161.000
300.292;  -42.100; -428.000; -348.000
300.430;  -40.800; -408.000; -291.000
300.568; -122.550; -940.000; -874.000
300.706;  -68.900; -366.000; -469.000
300.844; -127.800;-1108.000; -979.000
300.982;   59.600;  246.000;  282.000
301.120; -130.500; -965.000; -866.000
301.258;  -88.400; -812.000; -705.000
301.396;   -5.725;  104.000;  -41.000
301.534;  -26.775; -218.000; -293.000
301.672;  -91.450; -664.000; -521.000
301.810;  -73.275; -613.000; -545.000
301.948;    2.025;   53.000;  149.000
302.086;  214.300; -250.000;  -32.000
302.224;  217.850; -610.000; -585.000
302.362;  -67.050; -558.000; -622.000
302.500; -102.975; -923.000; -893.000
302.638;   28.325;  128.000;  245.000
302.776;  -29.575; -352.000; -408.000
302.913;   28.050;  447.000;  236.000
303.051;  -41.600;  -86.000;  -23.000
303.189;    9.950;   90.000;  118.000
303.327;  -56.000; -341.000; -256.000
303.465;  -94.700; -832.000; -588.000
303.603;  -97.725; -805.000; -604.000
303.740;   42.600;  417.000;  241.000
303.878;  -72.175; -800.000; -759.000
304.016; -118.800; -915.000; -790.000
304.154; -159.825;-1123.000;-1152.000
304.291;  -72.500; -505.000; -554.000
304.429;  -17.500;  102.000;   74.000
304.567; -130.725; -908.000; -893.000
304.705;  -63.075; -408.000; -515.000
304.842;  -36.000; -616.000; -540.000
304.980;   13.125;  215.000;   35.000
305.118;  -24.400; -367.000; -365.000
305.255; -119.150; -945.000; -927.000
305.393;   23.975;  178.000;  239.000
305.531; -144.450;-1173.000; -956.000
305.668;  -81.075; -663.000; -582.000
305.806;    0.050; -358.000; -439.000
305.943;  -30.525; -629.000; -637.000
306.081;  -25.350; -378.000; -267.000
306.219; -113.125; -863.000; -748.000
306.356;    7.025;  158.000;   27.000
306.494;  111.800;  981.000;  761.000
306.631;  -18.400;  -11.000;  -55.000
306.769;  -42.000; -613.000; -485.000
306.906;  -32.200; -284.000; -258.000
307.044;  -58.775; -473.000; -488.000
307.181;  -72.500; -410.000; -332.000
307.319;   -1.075;  112.000;   87.000
307.456; -176.225;-1191.000;-1153.000
307.594; -118.100; -980.000; -727.000
307.731;  -39.350; -371.000; -164.000
307.868;  -18.300;  -15.000;   20.000
308.006; -134.625; -961.000; -847.000
308.143;  -68.825; -618.000; -330.000
308.281;   17.675;  -37.000; -254.000
308.418;  -70.600; -748.000; -640.000
308.555;  -89.225; -400.000; -250.000
308.693;  -74.625; -577.000; -573.000
308.830; -112.200; -712.000; -657.000
308.967;  -14.225; -215.000;  -95.000
309.105;  -60.450; -507.000; -396.000
309.242;  -26.075; -468.000; -367.000
309.379;   16.475; -577.000; -655.000
309.517; -106.700; -936.000; -948.000
309.654; -126.700; -910.000; -734.000
309.791;  -68.275; -662.000; -580.000
309.928; -133.675; -977.000; -914.000
310.065;  115.825;  819.000;  697.000
310.203;  -86.425; -825.000; -850.000
310.340;  -47.925; -465.000; -321.000
310.477;  -89.575; -412.000; -516.000
310.614;  -53.550; -383.000; -473.000
310.751;  -82.850; -427.000; -518.000
310.889;  -25.175;    1.000;   11.000
311.026; -148.800;-1161.000; -939.000
311.163;  -52.525; -386.000; -380.000
311.300;  -85.200; -512.000; -479.000
311.437;  -70.275; -658.000; -619.000
311.574; -153.275;-1226.000; -985.000
311.711;  -74.000; -595.000; -433.000
311.848;  -48.475; -380.000; -388.000
311.985;   -4.700;  270.000;   93.000
312.122; -133.500; -932.000; -762.000
312.259; -123.025; -941.000; -994.000
312.396;  -81.275; -508.000; -551.000
312.533;  -89.450; -812.000; -790.000
312.670; -142.700;-1070.000; -898.000
312.807;  -39.800; -352.000; -367.000
312.944;  -80.650; -513.000; -611.000
313.081;  -25.025; -150.000; -415.000
313.218; -103.125;-1111.000; -867.000
313.355;  -28.200; -531.000; -449.000
313.492;  -19.325; -455.000; -292.000
313.629;  110.725;  815.000;  735.000
313.766; -157.100;-1176.000;-1008.000
313.902;   -2.900; -186.000;   21.000
314.039;  -52.125; -372.000; -289.000
314.176;   26.525;  286.000;  192.000
314.313;  -63.250; -569.000; -473.000
314.450;  -74.875; -788.000; -684.000
314.587;  -67.175; -468.000; -480.000
314.723;   -3.100;  -78.000;  130.000
314.860;   24.925;  318.000;  332.000
314.997;   32.525;  223.000;  142.000
315.134;  -45.525; -385.000; -368.000
315.270;  -28.500; -480.000; -496.000
315.407; -122.550;-1094.000; -967.000
315.544;  -42.700; -657.000; -538.000
315.681;  -76.200; -681.000; -565.000
315.817;   26.425; -133.000; -176.000
315.954;   31.125; -613.000; -392.000
316.091; -126.175;-1045.000;-1023.000
316.227;  -42.850;  -71.000; -179.000
316.364;  -11.950;   23.000;    6.000
316.500;  -60.625; -113.000; -300.000
316.637;  -40.950; -181.000; -302.000
316.774;  -85.875; -625.000; -358.000
316.910;  -95.075; -598.000; -629.000
317.047;  -81.825; -487.000; -351.000
317.183;  -61.625; -435.000; -566.000
317.320;   21.325; -367.000; -321.000
317.456;  -39.500; -733.000; -805.000
317.593; -110.375; -598.000; -641.000
317.729;   -7.350;  168.000;  -67.000
317.866; -211.375;-1434.000;-1285.000
318.002;  -92.600; -708.000; -948.000
318.139; -134.150; -883.000; -867.000
318.275; -132.525;-1003.000; -738.000
318.412;  -84.000; -517.000; -336.000
318.548;  -85.675; -751.000; -720.000
318.685; -111.475; -985.000; -888.000
318.821;  -79.025; -762.000; -735.000
318.957;  -26.700;   34.000;  -23.000
319.094;   25.575;  297.000;  154.000
319.230; -101.350; -756.000; -742.000
319.367;    1.925; -471.000; -520.000
319.503;  -46.275; -538.000; -436.000
319.639;  -99.350; -877.000; -793.000
319.775; -107.850; -750.000; -685.000
319.912;  -76.350; -424.000; -519.000
320.048; -108.600;-1184.000;-1184.000
320.184;   71.100;   59.000;   70.000
320.321;  -76.175; -497.000; -467.000
320.457;   84.425;  475.000;  662.000
320.593;  -72.725; -375.000; -382.000
320.729; -104.425; -732.000; -734.000
320.866;  -81.050; -577.000; -635.000
321.002; -105.875; -759.000; -809.000
321.138;  -47.325; -135.000; -211.000
321.274;    9.550; -148.000; -115.000
321.410;  -70.275; -585.000; -353.000
321.546; -107.925;-1011.000; -911.000
321.683;   17.675;  400.000;  185.000
321.819;  -29.775;  -48.000; -117.000
321.955; -127.900; -743.000; -722.000
322.091;  -75.350; -585.000; -540.000
322.227;  -59.650; -382.000; -202.000
322.363;  -46.725; -320.000; -215.000
322.499;  -68.025; -343.000; -331.000
322.635;  104.750;  636.000;  443.000
322.771;  -16.200; -139.000;   12.000
322.907;   41.975;  129.000;  327.000
323.043;  -57.775; -115.000; -206.000
323.179;  -64.900; -394.000; -363.000
323.315;  -56.500; -401.000; -371.000
323.451;   21.475; -328.000; -236.000
323.587;   44.700;  -60.000;  -77.000
323.723;  -56.900; -682.000; -601.000
323.859;  -26.100; -258.000;  -76.000
323.995;  -55.600; -467.000; -409.000
324.131; -140.475; -967.000; -892.000
324.267;  -49.850; -254.000; -276.000
324.402; -169.025; -960.000; -983.000
324.538;  -43.850; -279.000; -104.000
324.674;    0.300;  164.000;   77.000
324.810;   40.850;  226.000;  308.000
324.946;  -63.100; -810.000; -658.000
325.082;  -84.025; -568.000; -475.000
325.217;  -20.600;  -62.000;   16.000
325.353; -105.375; -764.000; -659.000
325.489;  -80.850; -540.000; -506.000
325.625;  -81.450; -579.000; -525.000
325.760;   73.500;  517.000;  376.000
325.896;    6.150; -515.000; -702.000
326.032;  -53.700; -403.000; -352.000
326.168;  -69.150; -462.000; -369.000
326.303;  -74.600; -352.000; -461.000
326.439;   -5.850; -336.000; -276.000
326.575;  -29.825; -190.000;  -29.000
326.710;  -29.400; -156.000;  -30.000
326.846;  -22.600;  146.000;  103.000
326.982; -110.400; -530.000; -548.000
327.117;  -89.850; -481.000; -442.000
327.253;  -75.850; -745.000; -742.000
327.388; -181.150;-1137.000;-1153.000
327.524;  -84.175; -811.000; -578.000
327.659;  -40.025;  -58.000;  -22.000
327.795;  -30.075;   69.000;   45.000
327.931;  -96.425; -723.000; -499.000
328.066;  -28.475; -417.000; -276.000
328.202;  -35.825;   12.000; -129.000
328.337;   80.375;  957.000;  713.000
328.473;   27.400;  -12.000;  -74.000
328.608;  -40.550; -256.000; -267.000
328.743; -112.700; -799.000; -664.000
328.879;   11.850;  214.000;  114.000
329.014;  -42.825; -102.000; -122.000
329.150;  -94.400; -358.000; -483.000
329.285;  -98.575; -465.000; -466.000
329.421;  -69.300; -548.000; -246.000
329.556;  -42.600;  -36.000;   85.000
329.691;  -96.450; -633.000; -615.000
329.827;  -99.075; -626.000; -480.000
329.962;  -42.275;  131.000; -301.000
330.097;  -92.375; -673.000; -585.000
330.233;  -49.150; -410.000; -223.000
330.368; -138.525; -839.000; -628.000
330.503;  -15.125;    3.000;   98.000
330.638;  -30.200;  -93.000; -125.000
330.774;  -80.675; -609.000; -530.000
330.909;  -67.425; -434.000; -244.000
331.044; -101.950; -714.000; -708.000
331.179; -183.425;-1217.000;-1109.000
331.315;   -9.500;   77.000;   20.000
331.450;    3.600;  157.000;  285.000
331.585;  -93.275; -805.000; -706.000
331.720; -100.800; -510.000; -460.000
331.855;  -11.500;  -35.000; -102.000
331.990;  402.050;   62.000;  138.000
332.126;  210.700; -110.000;   71.000
332.261;  -20.150; -379.000; -265.000
332.396;   -3.175; -135.000; -242.000
332.531;  -58.075;-1074.000;-1031.000
332.666;   79.775; -519.000; -363.000
332.801; -108.450; -726.000; -807.000
332.936;  -32.175; -192.000; -122.000
333.071; -139.550; -870.000; -817.000
333.206;   -9.125;  307.000;  379.000
333.341;   22.375;  344.000;  418.000
333.476;  -97.200; -627.000; -623.000
333.611;  -44.675; -251.000; -173.000
333.746;  -59.300; -381.000; -464.000
333.881; -129.175; -973.000; -935.000
334.016; -124.450; -936.000; -917.000
334.151; -131.475; -746.000; -702.000
334.286;    1.025;  152.000;  186.000
334.421;  -43.825; -125.000; -178.000
334.556;  -75.000; -611.000; -567.000
334.690;  -93.975; -631.000; -577.000
334.825;   48.200;  381.000;   83.000
334.960;  -61.000; -285.000; -413.000
335.095;    4.650;  135.000;  -91.000
335.230;  -99.325; -722.000; -738.000
335.365; -127.175;-1084.000; -990.000
335.499; -141.450;-1108.000;-1037.000
335.634;   29.925;    9.000;  534.000
335.769; -108.600; -755.000; -720.000
335.904;  -58.650; -603.000; -561.000
336.038;  -60.950; -735.000; -657.000
336.173; -120.275;-1206.000;-1194.000
336.308;    8.725; -116.000; -189.000
336.443;   52.150; -544.000; -634.000
336.577;  -51.775; -936.000; -787.000
336.712;   56.925;   -4.000;  -12.000
336.847;  -32.450; -724.000; -607.000
336.981;   47.825; -272.000; -208.000
337.116;  284.250;  615.000;  501.000
337.250;  127.450; -434.000; -421.000
337.385;  472.950; -297.000; -208.000
337.520;  208.925; -632.000; -603.000
337.654;  -41.825; -215.000; -126.000
337.789; -146.325; -989.000; -933.000
337.923;  -44.675; -104.000; -205.000
338.058; -110.225; -673.000; -738.000
338.192;  -61.600; -611.000; -488.000
338.327;  -21.575;  -18.000; -155.000
338.461;  -76.625; -299.000; -469.000
338.596;  -98.150; -780.000; -638.000
338.730;  -96.100; -767.000; -803.000
338.865;  167.200;  -46.000; -140.000
338.999;   -0.300; -846.000; -702.000
339.134;    2.025; -634.000; -536.000
339.268;   38.950; -741.000; -603.000
339.403;  542.700; -740.000; -775.000
339.537;  271.825; -894.000; -820.000
339.671; -110.300; -829.000; -813.000
339.806;  -48.225; -556.000; -512.000
339.940;   37.400; -261.000; -235.000
340.074; -117.950; -685.000; -510.000
340.209;  -60.050; -351.000; -230.000
340.343;  -93.900; -517.000; -573.000
340.477;  124.475;  998.000; 1036.000
340.612;   -3.650;-1033.000; -900.000
340.746;  250.725; -199.000; -243.000
340.880; -120.225; -924.000; -785.000
341.014;  -31.700;  -45.000; -154.000
341.149; -119.200; -756.000; -718.000
341.283; -123.350; -839.000; -754.000
341.417; -148.175;-1124.000; -938.000
341.551;  -21.250; -768.000; -708.000
341.685;  -73.350; -633.000; -611.000
341.820;  -55.575; -562.000; -493.000
341.954;  -68.275; -218.000; -349.000
342.088; -166.825;-1102.000;-1019.000
342.222;   30.175;  565.000;  618.000
342.356;  -80.100; -395.000; -335.000
342.490; -125.275; -880.000; -841.000
342.624;  -74.250; -339.000; -242.000
342.758;  -69.950; -364.000; -312.000
342.892; -107.225; -710.000; -585.000
343.026;  -45.775;  -58.000; -116.000
343.160;  -69.775; -426.000; -376.000
343.294;  -92.425; -474.000; -337.000
343.428;  -70.725; -488.000; -448.000
343.562;  -62.475; -172.000;  -23.000
343.696;  -53.125; -385.000; -314.000
343.830;  -56.425; -362.000; -356.000
343.964;  -23.150; -231.000; -168.000
344.098;  267.700;  199.000;   70.000
344.232;  251.875; -266.000; -127.000
344.366;   70.900; -567.000; -453.000
344.500;  -53.450; -665.000; -744.000
344.634;  -34.475; -324.000; -164.000
344.768;  -70.700; -531.000; -341.000
344.902;  -21.750;  278.000;  256.000
345.035;  -72.525; -556.000; -496.000
345.169; -147.875; -933.000; -656.000
345.303;  -62.625; -308.000; -482.000
345.437; -107.975; -826.000; -717.000
345.571;  -61.325; -675.000; -594.000
345.704;  -69.575; -309.000; -532.000
345.838;   -8.450; -331.000; -284.000
345.972;  -68.650; -543.000; -495.000
346.106;  248.025; -179.000; -190.000
346.239;  466.825; -312.000; -243.000
346.373;   -3.100; -343.000; -302.000
346.507; -144.575; -950.000; -962.000
346.640;   34.200;  -30.000;   13.000
346.774; -103.525; -650.000; -797.000
346.908;  -40.125; -138.000;  -11.000
347.041; -118.600; -646.000; -593.000
347.175;  -12.800;  259.000;   27.000
347.309; -117.375; -698.000; -628.000
347.442; -127.050; -883.000; -732.000
347.576;  115.175;  670.000;  668.000
347.709;   37.750; -123.000;  -52.000
347.843; -124.275; -933.000; -825.000
347.976;   11.650;  235.000;  294.000
348.110; -183.600;-1268.000;-1186.000
348.243; -114.075; -679.000; -772.000
348.377;    7.075;  -26.000;   60.000
348.510;   47.750;  403.000;  540.000
348.644;  -58.175;  -37.000; -159.000
348.777;  -16.875;  180.000;  191.000
348.911;  -57.250; -142.000; -112.000
349.044;   84.000;  471.000;  448.000
349.178;  -36.800;-1069.000;-1006.000
349.311;   90.300;  141.000;  255.000
349.444;   23.125; -927.000; -813.000
349.578;  -43.225; -347.000; -200.000
349.711; -147.200; -959.000; -862.000
349.845;  -80.650; -661.000; -591.000
349.978; -166.925;-1224.000;-1137.000
350.111;  -88.075; -546.000; -612.000
350.244; -116.275; -596.000; -700.000
350.378;  -56.650; -392.000; -393.000
350.511;  -75.150; -393.000; -426.000
350.644; -110.075; -808.000; -806.000
350.778;   10.500;  168.000;  104.000
350.911;   -6.925;  134.000;  140.000
351.044; -107.625; -685.000; -615.000
351.177;  -53.200; -321.000; -281.000
351.310;  -37.750;    3.000; -131.000
351.444; -112.900; -888.000; -788.000
351.577;   28.175;  140.000;   90.000
351.710;   77.650;  593.000;  417.000
351.843;  -47.225; -165.000;  -77.000
351.976;  -24.975;  149.000;  -79.000
352.109;  -99.100; -621.000; -612.000
352.242;  -66.300; -464.000; -419.000
352.376; -109.700; -580.000; -636.000
352.509;    8.375; -437.000; -356.000
352.642; -111.325; -654.000; -604.000
352.775;   -8.675; -141.000;  -98.000
352.908; -134.425; -933.000; -904.000
353.041; -100.525; -814.000; -824.000
353.174;  -74.850; -551.000; -424.000
353.307;  -93.675; -753.000; -764.000
353.440;   47.350;  541.000;  453.000
353.573;  -96.850; -957.000;-1008.000
353.706;  -77.725; -384.000; -558.000
353.839;  -42.375; -264.000; -220.000
353.971; -104.725; -657.000; -512.000
354.104; -102.750; -896.000; -835.000
354.237;  -78.250; -627.000; -662.000
354.370; -102.725; -846.000; -879.000
354.503; -172.700;-1231.000;-1308.000
354.636;  -34.450; -529.000; -348.000
354.769; -140.300; -937.000; -860.000
354.902;  -28.400; -230.000; -139.000
355.034;  -31.625; -164.000; -220.000
355.167;  -13.925; -262.000; -162.000
355.300;  -74.350;-1061.000; -880.000
355.433; 1436.875;  -71.000;  -14.000
355.565; 2242.250; -402.000; -384.000
355.698;  595.025; -356.000; -296.000
355.831;  -24.525; -882.000; -801.000
355.964;   20.900; -285.000; -170.000
356.096;  -87.350; -856.000; -843.000
356.229;   -0.150; -523.000; -530.000
356.362;  508.550; -373.000; -266.000
356.494;  905.100; -229.000; -162.000
356.627;  301.025;  269.000;  377.000
356.760;  872.475;  120.000;   53.000
356.892; 1501.100; -286.000; -601.000
357.025;  339.025;  403.000;  389.000
357.157;  228.750; -167.000; -179.000
357.290; 1227.350; -856.000; -713.000
357.423;  358.425; -667.000; -556.000
357.555;   94.500; -217.000; -228.000
357.688;  112.850; -483.000; -364.000
357.820;  172.850; -870.000; -877.000
357.953; 1515.850; -563.000; -589.000
358.085;  225.375; -632.000; -612.000
358.218;   84.325;-1131.000; -932.000
358.350;   23.200;  -58.000;  312.000
358.483; -181.450;-1300.000;-1187.000
358.615; -133.025;-1182.000;-1078.000
358.747; -161.225;-1187.000;-1058.000
358.880;  -61.700; -810.000; -744.000
359.012;  -44.900; -376.000; -202.000
359.145;  -67.375; -480.000; -511.000
359.277;  -69.525; -962.000; -913.000
359.409; 1272.850;  536.000;  231.000
359.542;  267.250; -738.000; -688.000
359.674;   20.125;   46.000;   13.000
359.806;  -87.225; -565.000; -438.000
359.939;  -33.300; -617.000; -516.000
360.071;   26.450; -583.000; -579.000
360.203;  -22.900; -411.000; -364.000
360.335;   10.825;  164.000;  -16.000
360.468;   86.200; -249.000; -307.000
360.600; 1325.925; -547.000; -454.000
360.732; 4267.975; -546.000; -423.000
360.864;  632.425;-1216.000;-1044.000
360.996;   58.325; -516.000; -554.000
361.129;  -49.550; -389.000; -598.000
361.261;   -9.350;  110.000; -113.000
361.393;  -63.450; -252.000; -214.000
361.525;    4.800;   94.000;  244.000
361.657; -120.150; -821.000; -703.000
361.789;  -25.800; -139.000; -155.000
361.921;  -57.750; -642.000; -593.000
362.053;   93.850;  524.000;  541.000
362.185;   -8.450;  288.000;   72.000
362.318; -111.950; -709.000; -705.000
362.450;   31.950;  294.000;  444.000
362.582;  -84.750; -913.000; -870.000
362.714;  -68.500; -353.000; -332.000
362.846;  -84.000; -606.000; -490.000
362.978; -148.900; -941.000; -811.000
363.109;  -31.125; -161.000; -260.000
363.241;  133.200; -739.000; -749.000
363.373;  615.550; -649.000; -564.000
363.505; 1042.300; -186.000;  -91.000
363.637;  228.850; -787.000; -601.000
363.769; -140.650;-1067.000;-1080.000
363.901;  -92.750; -596.000; -654.000
364.033; -160.050;-1103.000;-1062.000
364.165;  -32.775; -283.000; -283.000
364.296;   68.550; -316.000; -177.000
364.428;  195.400;-1344.000;-1220.000
364.560;  -66.425; -679.000; -661.000
364.692;  -86.300; -738.000; -835.000
364.824;  -10.275; -588.000; -456.000
364.955;  501.400; -402.000; -564.000
365.087; 1728.375;-1097.000; -852.000
365.219;  115.950; -686.000; -816.000
365.351;  -89.475; -526.000; -572.000
365.482;   12.600;  300.000;  240.000
365.614;  -74.025; -402.000; -314.000
365.746; -121.500; -729.000; -752.000
365.877; -103.725; -706.000; -672.000
366.009;  406.975;  -35.000;  -62.000
366.141;  -37.325;-1249.000;-1134.000
366.272; -114.500; -803.000; -719.000
366.404; -131.800;-1005.000; -874.000
366.535;  -19.700; -139.000;  -12.000
366.667; -124.425; -644.000; -649.000
366.799;   19.700;  353.000;  203.000
366.930; -133.425; -862.000; -996.000
367.062;  182.175; -639.000; -613.000
367.193;  342.525; -872.000; -842.000
367.325;  -58.600; -580.000; -684.000
367.456;    1.075; -246.000;   31.000
367.588;  250.850; -371.000; -318.000
367.719;   32.300;  -44.000;  -45.000
367.851;  -48.625; -222.000; -241.000
367.982; -120.200; -875.000; -732.000
368.113;  -16.675; -475.000; -358.000
368.245; -159.800; -960.000; -841.000
368.376;  -56.975; -254.000; -302.000
368.508;  -71.900; -188.000; -263.000
368.639; -166.625;-1166.000;-1034.000
368.770; -105.700; -670.000; -589.000
368.902; -110.200; -836.000; -926.000
369.033; -143.200; -906.000; -855.000
369.164;  -48.275; -720.000; -653.000
369.296; -116.400; -452.000; -601.000
369.427;  -44.625; -209.000; -144.000
369.558;  -94.600; -593.000; -377.000
369.689;  -88.800; -721.000; -569.000
369.821; -151.900; -951.000; -845.000
369.952;  -39.050;   42.000; -108.000
370.083;  -70.000; -229.000; -108.000
370.214; -109.675; -735.000; -650.000
370.345;  -35.625;   65.000;   81.000
370.477; -126.625; -810.000; -790.000
370.608;   26.575; -328.000; -264.000
370.739; -137.300;-1233.000;-1292.000
370.870; -120.275;-1102.000; -923.000
371.001;  -34.725; -378.000; -467.000
371.132; -118.650; -754.000; -735.000
371.263;  -46.375;  -42.000; -148.000
371.394; -148.350; -841.000; -748.000
371.525;    2.675;  345.000;  225.000
371.657; -120.700; -808.000; -670.000
371.788;   28.450;  103.000;  199.000
371.919;   11.300; -384.000; -304.000
372.050; 1269.425;  -91.000; -156.000
372.181;  387.025; -188.000; -294.000
372.311;   92.075;   42.000; -127.000
372.442;  -57.400; -457.000; -451.000
372.573;  -61.850; -444.000; -340.000
372.704; -152.100;-1008.000; -980.000
372.835;  -28.150; -228.000; -289.000
372.966;  -87.925; -646.000; -554.000
373.097; -100.775; -575.000; -711.000
373.228; -109.350; -717.000; -542.000
373.359;  -65.275; -824.000; -536.000
373.490;  149.975; -881.000; -727.000
373.620;  253.475;-1001.000; -803.000
373.751;  508.975; -332.000; -396.000
373.882;  218.600; -663.000; -733.000
374.013;  -46.275; -449.000; -262.000
374.143;  -84.200; -581.000; -659.000
374.274; -146.000; -987.000; -908.000
374.405;   43.575; -388.000; -276.000
374.536;   99.000; -526.000; -387.000
374.666;  287.350; -759.000; -807.000
374.797;  -40.700; -817.000; -868.000
374.928;  165.025; -710.000; -560.000
375.058;  168.100; -535.000; -500.000
375.189;   -4.825;  -59.000;  -93.000
375.320; -146.800; -928.000;-1034.000
375.450;  -59.725; -625.000; -616.000
375.581;  -53.250; -526.000; -436.000
375.712;  -45.400; -574.000; -250.000
375.842;   -3.550; -438.000; -415.000
375.973;  -24.975; -554.000; -513.000
376.103; -121.075; -665.000; -648.000
376.234; -102.850; -531.000; -552.000
376.364; -121.475; -944.000; -867.000
376.495;  125.525;  925.000;  529.000
376.625;  -79.425; -472.000; -485.000
376.756;  -55.775; -709.000; -678.000
376.886; -137.475;-1178.000;-1026.000
377.017;  152.225;-1048.000;-1061.000
377.147;  651.425; -786.000; -782.000
377.278;   76.250;  174.000;  228.000
377.408; -124.775; -801.000; -815.000
377.538; -110.400; -707.000; -693.000
377.669; -107.850; -537.000; -613.000
377.799; -105.525; -645.000; -635.000
377.929;  -97.825; -610.000; -428.000
378.060; -137.475; -781.000; -847.000
378.190;  -42.750; -726.000; -531.000
378.320;  -69.525; -401.000; -406.000
378.451;  -36.450; -131.000;  -22.000
378.581;  -39.350;  -67.000; -110.000
378.711;   85.100; 1035.000;  866.000
378.841;  -74.925; -533.000; -675.000
378.972; -132.000; -871.000; -751.000
379.102;  -75.850; -652.000; -579.000
379.232;  -47.325; -126.000;  -73.000
379.362; -131.750;-1001.000; -885.000
379.492;  -68.000; -373.000; -424.000
379.623;   50.750;    0.000;  111.000
379.753; -128.075;-1107.000; -974.000
379.883;   75.200;   59.000;  156.000
380.013;  -99.925;-1081.000;-1017.000
380.143; -130.075;-1097.000;-1056.000
380.273; -119.525; -985.000; -861.000
380.403;   -6.475; -344.000; -257.000
380.533;  -54.425; -651.000; -664.000
380.663;   18.250;  173.000;  128.000
380.793; -166.050;-1027.000;-1074.000
380.923;  -51.975; -103.000;  -34.000
381.053; -113.000; -613.000; -623.000
381.183;  -50.400; -106.000; -248.000
381.313;  -85.050; -656.000; -470.000
381.443;  -60.450; -692.000; -473.000
381.573;  -61.750; -402.000; -409.000
381.703;  -98.175;-1249.000;-1095.000
381.833; -193.925;-1454.000;-1336.000
381.963;   11.150; -134.000;  -87.000
382.093;  376.875; -925.000; -909.000
382.223;   77.550; -713.000; -602.000
382.353; -106.775; -801.000; -608.000
382.482;   -9.125;-1091.000; -964.000
382.612;  161.150; -872.000; -644.000
382.742;   66.650; -695.000; -622.000
382.872;  -38.450; -565.000; -551.000
383.002;   10.500;  347.000; -132.000
383.131;  -46.700; -226.000; -160.000
383.261;  -48.800; -706.000; -768.000
383.391;  304.425; -552.000; -377.000
383.521; 5062.875;  451.000;  263.000
383.650; 1478.750; -947.000; -904.000
383.780;   37.950; -783.000; -656.000
383.910;   84.825;  880.000;  802.000
384.039;  -91.600; -794.000; -656.000
384.169; -100.350;-1205.000;-1017.000
384.299;  -88.850; -650.000; -662.000
384.428; -131.875; -764.000; -680.000
384.558;  -66.625; -308.000; -275.000
384.687; -108.850; -414.000; -334.000
384.817;  -29.600;   75.000;   -2.000
384.947;  -50.125; -234.000; -141.000
385.076;  149.075;  982.000;  912.000
385.206;   37.750;  369.000;  480.000
385.335;  -77.050; -549.000; -417.000
385.465; -121.675; -655.000; -663.000
385.594;    5.625;  -53.000;  -44.000
385.724;   12.600; -868.000; -838.000
385.853;  -21.250; -296.000; -270.000
385.982;  344.775; -743.000; -787.000
386.112;  655.600;-1052.000; -871.000
386.241;   -5.300; -307.000; -312.000
386.371;  -20.225; -174.000;  -87.000
386.500;  -65.175; -825.000; -789.000
386.629;  -15.025; -874.000; -817.000
386.759;   71.375;  -43.000;   68.000
386.888;  -30.450; -170.000; -250.000
387.017; -114.925; -648.000; -620.000
387.147; -116.525; -771.000; -798.000
387.276;  -83.000; -410.000; -397.000
387.405;  -52.125; -398.000; -342.000
387.535;  -95.575; -452.000; -361.000
387.664;  -75.425; -692.000; -620.000
387.793;  -24.175; -198.000; -113.000
387.922;  135.525;  255.000;  200.000
388.052;  -78.175; -576.000; -423.000
388.181;  -66.625; -342.000; -472.000
388.310; -122.725; -889.000; -710.000
388.439; -122.575; -749.000; -742.000
388.568;   37.175;  365.000;  244.000
388.697;  251.075; -756.000; -653.000
388.826;  -13.875; -768.000; -666.000
388.956;  -32.400; -285.000; -307.000
389.085;  -57.625; -347.000; -287.000
389.214; -115.650; -842.000; -872.000
389.343;  -89.950; -645.000; -413.000
389.472;  555.575;  126.000;  149.000
389.601;  608.575;   91.000;    0.000
389.730;  -25.475; -568.000; -687.000
389.859;   -0.175;  226.000;   46.000
389.988;   26.400; -423.000; -408.000
390.117;   16.775; -168.000; -146.000
390.246;  -43.450; -331.000; -320.000
390.375;  -86.625; -673.000; -626.000
390.504;  -91.225; -703.000; -621.000
390.633; -151.725; -672.000; -726.000
390.761; -107.500; -732.000; -645.000
390.890;  -46.525;   -4.000; -130.000
391.019;  -70.000; -421.000; -441.000
391.148; -148.875; -826.000; -855.000
391.277;  -96.700; -576.000; -493.000
391.406; -128.525; -821.000; -805.000
391.534;    4.950;  574.000; -301.000
391.663; -117.475; -583.000; -645.000
391.792;  -98.725; -673.000; -701.000
391.921;  -27.725;   -3.000;   15.000
392.050;  -11.925; -287.000; -228.000
392.178; -141.875;-1206.000;-1061.000
392.307;  -35.950; -758.000; -712.000
392.436;  -58.300; -427.000; -641.000
392.564;   -2.875;  166.000;   -6.000
392.693; -123.875; -860.000; -682.000
392.822;  -20.625; -529.000; -534.000
392.950;  -62.075; -880.000; -714.000
393.079;   45.075; -188.000; -328.000
393.208;  -56.100; -488.000; -511.000
393.336;  -30.100; -170.000; -145.000
393.465;  -61.950; -317.000; -199.000
393.593;  -14.475;   62.000;   79.000
393.722; -156.925;-1121.000; -916.000
393.850;  -46.175; -188.000;  -61.000
393.979; -157.300; -926.000; -805.000
394.107;  -88.775; -517.000; -537.000
394.236;  -65.250; -570.000; -507.000
394.364;   84.375;  383.000;  206.000
394.493;   38.550; -911.000; -767.000
394.621;   -9.000; -955.000; -916.000
394.750; 1135.350; -873.000; -923.000
394.878; 4404.800; -247.000; -149.000
395.007; 6361.075; -721.000; -807.000
395.135;  547.325; -790.000; -721.000
395.263;  -65.800;-1038.000;-1040.000
395.392;   -8.400;  -25.000; -107.000
395.520; -139.500; -818.000; -679.000
395.648; -133.475; -865.000; -915.000
395.777;  -88.825; -366.000; -405.000
395.905;  -90.900; -449.000; -564.000
396.033;  -35.400;  217.000;  172.000
396.162;  120.825; -399.000; -453.000
396.290;  112.600;  -17.000;   -2.000
396.418;  -65.875; -555.000; -514.000
396.546; -113.850; -571.000; -466.000
396.674; -141.175; -850.000; -878.000
396.803;  -41.450;  -72.000;  -23.000
396.931;  -35.350; -179.000; -199.000
397.059; -146.300;-1026.000; -989.000
397.187; -148.375;-1026.000; -975.000
397.315; -164.500; -884.000; -649.000
397.443; -101.450; -592.000; -443.000
397.572; -107.200; -578.000; -424.000
397.700; -102.950; -607.000; -614.000
397.828;  -21.900;  120.000;  -90.000
397.956;  -41.325; -508.000; -478.000
398.084;  -38.175; -767.000; -626.000
398.212;  -14.175;  137.000;  124.000
398.340;  -28.050;  -56.000;  159.000
398.468;  -63.175; -390.000; -169.000
398.596; -151.200; -993.000; -953.000
398.724; -130.750; -762.000; -767.000
398.852; -168.400;-1024.000; -976.000
398.980;  -97.650; -560.000; -560.000
399.108; -125.625; -982.000; -735.000
399.236;  -16.675;   13.000;    8.000
399.363;  -12.500;  222.000;  196.000
399.491;  -81.775; -404.000; -398.000
399.619; -132.100; -829.000; -800.000
399.747; -123.300; -859.000; -771.000
399.875;   33.050;  220.000;  234.000
400.003;  -67.975; -359.000; -284.000
400.130; -108.225; -421.000; -341.000
400.258;  -30.300;  -83.000;   38.000
400.386;  -81.750; -352.000; -168.000
400.514;  -98.150; -526.000; -587.000
400.641; -172.075; -928.000; -802.000
400.769; -151.325; -979.000; -888.000
400.897; -138.200; -838.000; -793.000
401.025;  -58.875; -166.000; -152.000
401.152;  -29.900;  220.000;   38.000
401.280;  -86.950; -430.000; -429.000
401.408; -131.850; -712.000; -576.000
401.535; -115.200; -735.000; -758.000
401.663; -203.450;-1134.000;-1054.000
401.790; -109.600; -514.000; -525.000
401.918;   19.600;  436.000;  405.000
402.046;  -22.475;  134.000;  122.000
402.173;  -57.675;  -18.000;    7.000
402.301;  -84.900; -519.000; -397.000
402.428;   13.850;  528.000;  383.000
402.556; -157.000;-1188.000; -913.000
402.683;  -47.750;  -20.000;   -1.000
402.811;  -39.875;  -37.000; -206.000
402.938;  -55.050;   20.000;   27.000
403.066;  -15.700; -574.000; -558.000
403.193;   94.750;  299.000;  239.000
403.321;   51.625; -396.000; -574.000
403.448;   90.100;   83.000;   27.000
403.575;   26.425;  -90.000;  -46.000
403.703; -105.175; -732.000; -557.000
403.830;  -58.250; -531.000; -496.000
403.957; -129.950;-1117.000;-1023.000
404.085;   19.250;  -61.000; -172.000
404.212;  101.350;  -50.000;   63.000
404.339;  435.100; -566.000; -306.000
404.467; 8860.875; -612.000; -524.000
404.594; 5390.750; -287.000; -227.000
404.721;  906.675; -869.000; -764.000
404.848;  104.125; -113.000; -202.000
404.976; -121.900; -856.000; -783.000
405.103;   -8.200;  -14.000;  -82.000
405.230;  -13.950;  190.000;  226.000
405.357;   32.875;  117.000;   44.000
405.484;  403.175;  -49.000;    5.000
405.612;  101.525; -548.000; -563.000
405.739;  -55.225; -488.000; -243.000
405.866;   55.250;  669.000;  385.000
405.993;  -60.100; -398.000; -102.000
406.120; -130.225; -801.000; -887.000
406.247;  -81.675; -323.000; -342.000
406.374;   96.225;  540.000;  629.000
406.501; -101.025; -632.000; -702.000
406.628; -113.800; -621.000; -589.000
406.755; -138.400; -803.000; -620.000
406.882;  -82.075; -228.000; -277.000
407.009; -128.075; -719.000; -628.000
407.136;  -61.550; -480.000; -401.000
407.263;  -82.700; -939.000; -829.000
407.390; -101.450; -692.000; -614.000
407.517; -185.450;-1139.000;-1187.000
407.644;  -85.350; -332.000; -256.000
407.771;  -94.925; -249.000; -287.000
407.898;  -22.225;  168.000;  328.000
408.025;  -93.850; -421.000; -313.000
408.151;    0.875;   82.000;  153.000
408.278;  -68.050; -267.000; -216.000
408.405; -121.775; -931.000; -899.000
408.532; -107.425; -549.000; -542.000
408.659; -129.275; -677.000; -648.000
408.785; -208.700;-1298.000;-1170.000
408.912;  -77.500; -412.000; -296.000
409.039; -125.250; -610.000; -686.000
409.166; -124.175; -591.000; -555.000
409.292; -120.725; -571.000; -534.000
409.419; -128.575; -665.000; -649.000
409.546;  -92.500; -431.000; -192.000
409.672; -112.400; -713.000; -545.000
409.799;  -39.200;  -36.000;   34.000
409.926;  -56.300; -180.000; -179.000
410.052; -190.150;-1127.000;-1091.000
410.179;  -87.075; -368.000; -392.000
410.305;  -98.125; -375.000; -493.000
410.432;  -43.650; -220.000; -333.000
410.558; -107.750; -305.000; -380.000
410.685; -115.425; -688.000; -431.000
410.812; -113.575; -409.000; -588.000
410.938; -151.600; -964.000; -808.000
411.065; -119.100; -671.000; -645.000
411.191;  -41.175; -189.000; -174.000
411.317; -157.175; -823.000; -742.000
411.444;  -74.675; -317.000; -246.000
411.570;  -87.500; -339.000; -294.000
411.697; -127.925; -758.000; -752.000
411.823; -180.650; -989.000; -999.000
411.949;  -63.175;  -56.000;   17.000
412.076; -122.200; -539.000; -519.000
412.202; -126.975; -758.000; -757.000
412.329; -143.050; -798.000; -752.000
412.455; -126.525; -821.000; -657.000
412.581;  -36.550;  -15.000;  172.000
412.707;  -99.950; -540.000; -457.000
412.834;   -9.525;  156.000;  219.000
412.960;  -99.675; -785.000; -784.000
413.086; -119.850; -743.000; -701.000
413.212;   85.150;  604.000;  578.000
413.339; -119.650; -685.000; -701.000
413.465;  -70.900; -364.000; -310.000
413.591; -112.500; -757.000; -474.000
413.717;  -54.950; -358.000; -366.000
413.843; -145.350; -839.000; -861.000
413.969;  -59.650;  -47.000; -292.000
414.096; -100.900; -679.000; -679.000
414.222;  -18.975;  -33.000;   85.000
414.348;  -98.500; -652.000; -385.000
414.474;    3.100;   38.000;  -52.000
414.600;  -39.850; -126.000; -144.000
414.726;   -4.825;  -96.000;  -55.000
414.852;  -62.050; -365.000; -342.000
414.978;   27.325;  104.000;  -18.000
415.104;   44.050;   38.000;   80.000
415.230;   27.175; -329.000; -330.000
415.356;   58.550; -409.000; -514.000
415.482;  212.350;   13.000;  -35.000
415.608;  381.875; -247.000; -323.000
415.734; 1289.125;   67.000;   38.000
415.860;27022.125; -875.000; -767.000
415.986;22155.725; -685.000; -607.000
416.111; 2060.000; -798.000; -652.000
416.237;  448.400; -424.000; -571.000
416.363; 1653.975; -765.000; -733.000
416.489; 6630.550; -324.000; -251.000
416.615;  900.775; -707.000; -742.000
416.741;   28.700; -677.000; -784.000
416.866;  -72.175; -673.000; -736.000
416.992; -103.075; -801.000; -818.000
417.118;  -37.175;  -41.000;  -80.000
417.244;  -84.950; -798.000; -531.000
417.369;  -96.300; -801.000; -612.000
417.495;  -24.325; -325.000; -254.000
417.621;  -76.275;-1015.000; -803.000
417.746;   -6.575; -579.000; -572.000
417.872;   48.400; -254.000; -144.000
417.998;  115.225; -515.000; -530.000
418.123; 1514.050;-1073.000; -845.000
418.249; 8420.700; -512.000; -601.000
418.374; 1406.375; -916.000; -824.000
418.500;  226.375; -383.000; -482.000
418.626;  161.600;   70.000;  -59.000
418.751;  157.100; -549.000; -448.000
418.877;  305.500; -637.000; -643.000
419.002; 2538.275; -688.000; -560.000
419.128;19231.075; -930.000; -721.000
419.253; 5411.350; -967.000; -837.000
419.379;  734.000; -391.000; -338.000
419.504;  560.425;  325.000;  415.000
419.629;  805.550; -393.000; -212.000
419.755; 5315.500; -317.000; -254.000
419.880;34462.050;  -98.000;   67.000
420.006;17247.375; -280.000; -221.000
420.131;42966.750; -662.000; -775.000
420.256; 6870.900; -315.000; -316.000
420.382;  929.150; -665.000; -687.000
420.507;  166.425; -649.000; -778.000
420.632;   41.700; -337.000; -339.000
420.758;   32.000; -251.000; -425.000
420.883; -121.050; -876.000; -672.000
421.008; -107.050; -775.000; -619.000
421.133; -115.075; -509.000; -467.000
421.259;  -60.475; -325.000; -259.000
421.384; -132.525; -834.000; -693.000
421.509; -120.775;-1052.000; -862.000
421.634;  133.000; -936.000; -820.000
421.759;   78.825; -359.000; -327.000
421.885; -112.450; -717.000; -656.000
422.010; -108.250; -673.000; -542.000
422.135; -154.700; -695.000; -727.000
422.260;    4.600;  340.000;  280.000
422.385;  -60.075;   12.000;  -98.000
422.510;    2.650;  151.000;  -26.000
422.635;  -14.400;  -87.000;  -43.000
422.760;  -17.825; -766.000; -791.000
422.885;    2.525;  -57.000;  -80.000
423.010;  -33.600; -112.000; -169.000
423.135; -108.250; -481.000; -561.000
423.260;  -30.675; -150.000; -245.000
423.385;    2.275;  476.000;  222.000
423.510;  -14.200;   71.000;  -22.000
423.635;  -10.650;  133.000;   45.000
423.760;   40.900;  383.000;  328.000
423.885;   22.850;  336.000;  391.000
424.010;  -15.025;  -68.000;  -13.000
424.135;  -38.700;    5.000;  -33.000
424.259;  -80.550; -654.000; -457.000
424.384;  -67.100; -279.000; -272.000
424.509;  -39.450; -260.000; -186.000
424.634; -101.250; -761.000; -623.000
424.759;  -32.600; -688.000; -544.000
424.883;  -16.300; -506.000; -527.000
425.008;  188.850; -502.000; -410.000
425.133; 2830.200; -679.000; -653.000
425.258; 1520.350; -517.000; -381.000
425.382;  501.075; -867.000; -774.000
425.507; 1146.650; -487.000; -543.000
425.632;  383.400; -802.000; -663.000
425.756;  712.400; -256.000; -146.000
425.881;10044.550; -831.000; -857.000
426.006;30855.350; -604.000; -355.000
426.130; 5025.050; -696.000; -508.000
426.255;  663.650; -611.000; -491.000
426.379;  268.550; -189.000; -577.000
426.504;  487.775;  660.000;  544.000
426.629; 5589.725; -519.000; -466.000
426.753; 4306.825;   64.000;  -46.000
426.878;  521.575; -252.000; -288.000
427.002;  292.750; -651.000; -668.000
427.127; 2065.700;  -35.000; -158.000
427.251;17068.950;  372.000;  401.000
427.375; 5483.825; -191.000; -173.000
427.500; 1314.200; -616.000; -610.000
427.624;  406.825; -234.000; -400.000
427.749;   74.300; -216.000; -225.000
427.873;  -39.225; -499.000; -412.000
427.997;  -44.000; -222.000; -230.000
428.122;   42.300;  795.000;  703.000
428.246;   25.750;  433.000;  434.000
428.371; -160.825; -869.000; -773.000
428.495; -112.325; -624.000; -646.000
428.619;  -44.325; -186.000; -117.000
428.743;   -8.950;   65.000;  132.000
428.868;  -74.975; -732.000; -643.000
428.992;  454.100; -219.000; -326.000
429.116;  163.925; -329.000; -357.000
429.240;  102.075;  419.000;  426.000
429.365;  -64.550; -454.000; -574.000
429.489;  -70.125; -638.000; -647.000
429.613;   16.325; -236.000; -177.000
429.737;   84.875; -563.000; -432.000
429.861;  368.600; -247.000; -133.000
429.985; 7815.075; -425.000; -305.000
430.109; 9913.600; -770.000; -908.000
430.234; 1188.000;   76.000;  -50.000
430.358;  147.000; -250.000; -160.000
430.482;  -52.225; -672.000; -564.000
430.606;  -82.500; -655.000; -375.000
430.730;  -67.425; -437.000; -388.000
430.854; -106.625; -909.000; -835.000
430.978;  -92.775; -795.000; -764.000
431.102; -107.500; -499.000; -422.000
431.226; -129.775; -874.000; -815.000
431.350;   -0.150;  345.000;  422.000
431.474;  -89.925; -661.000; -373.000
431.597; -162.375;-1060.000; -848.000
431.721;  -96.025; -276.000; -267.000
431.845; -127.750; -704.000; -472.000
431.969;  -91.950; -304.000; -349.000
432.093; -106.525; -395.000; -317.000
432.217;  -18.250;   32.000;   82.000
432.341;  -92.975; -523.000; -518.000
432.464;  -12.475;   96.000;   40.000
432.588;  -30.600; -401.000; -329.000
432.712;   16.100;  -52.000;  -52.000
432.836;   40.400;  213.000;  263.000
432.959;   13.050; -372.000; -311.000
433.083;  152.250;   11.000;    2.000
433.207;  560.175;  285.000;  930.000
433.330; 7550.725; -391.000; -200.000
433.454;10400.175; -654.000; -638.000
433.578; 5731.825;  583.000;  278.000
433.701; 1215.325; -623.000; -675.000
433.825;  136.450; -292.000; -299.000
433.949;   42.150;   28.000;  -72.000
434.072;  -34.800; -410.000; -323.000
434.196;  -20.175; -309.000; -117.000
434.319; 3495.125;25482.000;25124.000
434.443;  849.375; -656.000; -603.000
434.566; 4050.450;  281.000;   62.000
434.690;  859.725; -637.000; -383.000
434.813;  127.475; -251.000; -173.000
434.937;  -60.250; -569.000; -696.000
435.060;  -83.950; -423.000; -332.000
435.184;  -17.350; -492.000; -217.000
435.307;   -8.825;  159.000;  102.000
435.431;  -27.725;  -40.000;   24.000
435.554;  -87.800; -399.000; -240.000
435.677;  -93.000; -350.000; -258.000
435.801;  -56.125;  -25.000;   49.000
435.924;  -50.025;    1.000;  -67.000
436.048; -175.900;-1019.000; -732.000
436.171;  -79.975; -240.000;  -66.000
436.294;   -9.275; -248.000; -229.000
436.417;  217.000; -963.000; -849.000
436.541;  -35.800; -814.000; -840.000
436.664;  -55.375; -242.000; -316.000
436.787;  -38.600;   13.000;  113.000
436.910; -125.575; -792.000; -422.000
437.034;  -18.850;  142.000;  143.000
437.157;   -0.475;  -11.000;    0.000
437.280;  -83.400; -392.000; -292.000
437.403; -155.600; -982.000; -869.000
437.526;   -7.375; -903.000; -865.000
437.649;  415.350; -505.000; -332.000
437.772;  -20.000; -692.000; -540.000
437.896;   41.725;  700.000;  544.000
438.019; -115.300; -758.000; -503.000
438.142; -101.725; -596.000; -506.000
438.265; -134.675; -639.000; -670.000
438.388;    5.425; -520.000; -410.000
438.511;  -90.725; -597.000; -394.000
438.634;  -81.675; -247.000; -125.000
438.757; -157.575; -693.000; -619.000
438.880;  -59.100;  -34.000;  -57.000
439.003; -131.525; -417.000; -437.000
439.126;  -75.250; -287.000; -167.000
439.248;  -79.300;  -98.000; -139.000
439.371;  -60.800;    9.000;  -53.000
439.494;   -1.175;  510.000;  439.000
439.617;  -63.275;   65.000;  -88.000
439.740; -175.250; -968.000; -816.000
439.863; -146.275; -755.000; -595.000
439.986; -124.750; -476.000; -431.000
440.108;  -56.550; -161.000; -112.000
440.231; -185.875; -950.000; -836.000
440.354;  -62.800;  -64.000; -150.000
440.477; -121.775; -566.000; -542.000
440.599;  -99.100; -200.000; -225.000
440.722; -146.625; -709.000; -586.000
440.845;   45.125;  751.000;  928.000
440.968; -125.625; -415.000; -311.000
441.090;  -71.175; -199.000;  -33.000
441.213; -177.275;-1021.000; -825.000
441.336;  -57.650; -159.000;   -5.000
441.458; -110.325; -549.000; -396.000
441.581; -139.875; -628.000; -629.000
441.703;  -95.075; -152.000;   13.000
441.826; -118.825; -557.000; -400.000
441.948;  -75.925;   56.000;   51.000
442.071;   14.175;  555.000;  424.000
442.193; -129.450; -531.000; -485.000
442.316;    6.625;  152.000;   97.000
442.438;   56.775; -233.000;  -10.000
442.561;   61.750;  272.000;  262.000
442.683;   14.350; -809.000; -522.000
442.806;  208.950;   -8.000;   74.000
442.928; -113.125; -859.000; -604.000
443.051; -102.650; -577.000; -373.000
443.173; -113.650; -341.000; -339.000
443.295;  -88.325; -263.000; -371.000
443.418;  -86.850; -321.000;  -29.000
443.540;  -39.200; -106.000;   -4.000
443.662; -139.800; -563.000; -465.000
443.785;  -26.750;  335.000;  199.000
443.907; -113.275; -362.000; -208.000
444.029; -131.975; -767.000; -494.000
444.152; -141.575; -644.000; -554.000
444.274;  -57.500;  -18.000;  -24.000
444.396; -126.950; -461.000; -221.000
444.518; -137.450; -691.000; -454.000
444.640; -107.675; -268.000; -111.000
444.763;  -25.800;  388.000;  249.000
444.885; -138.650; -432.000; -392.000
445.007;  -44.850;   35.000;   86.000
445.129; -132.825; -610.000; -515.000
445.251; -115.650; -372.000; -439.000
445.373; -153.750; -537.000; -386.000
445.495;  -12.975;  242.000;  350.000
445.617;   25.650;  853.000;  753.000
445.739;  -90.750; -215.000;  -97.000
445.861;  -75.925; -245.000; -112.000
445.984;  -78.050; -267.000; -101.000
446.105;  -32.825; -418.000; -251.000
446.227;  102.150; -176.000;  -19.000
446.349;  -96.150; -358.000; -249.000
446.471; -123.050; -615.000; -448.000
446.593; -108.250; -316.000;   19.000
446.715;  -70.425;  -67.000;   41.000
446.837;   22.800;  697.000;  832.000
446.959; -101.575; -457.000; -478.000
447.081; -136.850; -628.000; -518.000
447.203;   23.875;  862.000;  834.000
447.325; -107.050; -270.000;   42.000
447.446;  -10.200;  286.000;  530.000
447.568; -163.125; -921.000; -803.000
447.690;  -89.225; -236.000; -245.000
447.812; -159.250; -798.000; -519.000
447.933;  -50.300;  155.000;  127.000
448.055;  -79.125; -306.000; -261.000
448.177;   14.850;   31.000;   79.000
448.299; -127.375; -935.000; -727.000
448.420;  -29.300;  -25.000;  159.000
448.542;  -59.475;   -3.000;   33.000
448.664;  -29.600;  109.000;  322.000
448.785;  -58.650;  265.000;   83.000
448.907; -100.775; -614.000; -353.000
449.028; -135.125; -771.000; -471.000
449.150;   27.025;  492.000;  589.000
449.272; -186.425;-1044.000; -913.000
449.393;   17.125;  612.000;  694.000
449.515; -156.425; -634.000; -581.000
449.636;  -81.575; -264.000; -155.000
449.758;   21.000;  763.000;  622.000
449.879; -106.675; -498.000; -396.000
450.001;  -81.550; -149.000;  -49.000
450.122;  -48.050;  -95.000;  162.000
450.244;  -22.575;   37.000;  364.000
450.365;  -92.825; -495.000; -301.000
450.486;  -19.075;   80.000;  268.000
450.608;   43.575;  393.000;  326.000
450.729;   96.825;  578.000;  645.000
450.850;   96.550; -574.000; -466.000
450.972; 1217.900; -552.000; -389.000
451.093; 7926.125;  190.000;  588.000
451.214; 4059.150; -516.000; -337.000
451.336;  676.275;  773.000;  579.000
451.457;   93.725;  264.000;  393.000
451.578;  -33.500; -118.000;  -74.000
451.699; -112.900; -546.000; -540.000
451.821;  -45.825; -284.000;  -50.000
451.942;  -23.825;  278.000;  285.000
452.063;   60.600;  228.000;  419.000
452.184;  793.625;  -54.000;  -49.000
452.305; 1692.500;  103.000;  170.000
452.427;  321.900; -549.000; -301.000
452.548;    9.550;   23.000;   79.000
452.669;  -88.150; -257.000;  -89.000
452.790;  -56.500;    3.000;  -18.000
452.911;  -29.625;  195.000;  259.000
453.032;  -82.875; -289.000;  -60.000
453.153;  -63.250;  -29.000;   81.000
453.274;   42.400;  737.000;  868.000
453.395;  -64.475;  -51.000;  175.000
453.516;   94.425; 1317.000; 1388.000
453.637;  -97.400; -205.000; -150.000
453.758;  -70.350;   15.000;   69.000
453.879; -124.175; -462.000; -250.000
454.000;   53.275; 1086.000;  948.000
454.121; -134.825; -554.000; -326.000
454.242; -121.900; -599.000; -383.000
454.362;  -70.050;  -99.000;  114.000
454.483;  -28.350; -309.000; -229.000
454.604;   52.000;  512.000;  580.000
454.725; -126.150; -627.000; -555.000
454.846; -123.575; -474.000; -406.000
454.967;  -31.225;  230.000;  539.000
455.087;  -53.725;  179.000;  153.000
455.208;   10.725;  554.000;  856.000
455.329;  -61.725;  -22.000;   82.000
455.450;   44.700;  473.000;  633.000
455.570;  -76.100; -234.000; -211.000
455.691;  -40.275;  201.000;  407.000
455.812; -127.575; -270.000;  -92.000
455.932;  -62.025;  107.000;  -97.000
456.053;  -90.525;   36.000;   24.000
456.173; -108.325; -433.000; -355.000
456.294; -149.575; -476.000; -303.000
456.415;  -71.675;  -73.000;   70.000
456.535;  -62.825;  297.000;  273.000
456.656;  -47.525;  132.000;  240.000
456.776;  -73.850;    3.000;  298.000
456.897;  -22.625;  308.000;  513.000
457.017;  -78.850; -153.000;   -3.000
457.138; -119.325; -402.000; -249.000
457.258;  -55.525;  263.000;  224.000
457.379;  -26.050;  509.000;  521.000
457.499;  -37.400;  443.000;  432.000
457.620; -109.925; -407.000; -231.000
457.740;  -98.750; -132.000;  -11.000
457.860;  -53.450;   87.000;   44.000
457.981;  -67.075;  132.000;  124.000
458.101;  -85.075;  -89.000;   40.000
458.221;  -41.700;  336.000;  402.000
458.342;  -52.500;   -4.000;  -37.000
458.462;   49.550;  617.000;  352.000
458.582;   24.075; -302.000; -294.000
458.703;   63.975;  303.000;  154.000
458.823;   -0.250;   22.000;  163.000
458.943;   43.175;  341.000;  467.000
459.063;   17.800; 1124.000;  192.000
459.183;  -27.125;  328.000;  313.000
459.304;   13.200;  315.000;  517.000
459.424;  -65.300; -246.000;  -89.000
459.544;  452.050;  388.000;  764.000
459.664; 1281.200;  499.000;  506.000
459.784;  500.575; 1004.000; 1175.000
459.904;   78.825;  867.000;  744.000
460.024;   46.150;  867.000;  684.000
460.144;  -31.900;  449.000;  554.000
460.264;  -19.700;  515.000;  327.000
460.385;  -84.525; -145.000; -119.000
460.505;   14.100;  905.000;  858.000
460.625;  -96.825;  -17.000;  -68.000
460.745;  -35.625;  396.000;  541.000
460.864;  -52.175;  153.000;  469.000
460.984;   23.475;  499.000;  573.000
461.104;  145.600; 1656.000; 1775.000
461.224;    7.575;  657.000;  650.000
461.344;  -61.100;  431.000;  360.000
461.464;  -51.600;  258.000;  513.000
461.584;  -31.175;  283.000;  466.000
461.704;  -65.425;   58.000;  108.000
461.824;  -79.300;  238.000;  259.000
461.943;  -49.325;  191.000;  130.000
462.063;  -82.875;    2.000;  324.000
462.183;   15.725;  639.000;  717.000
462.303;   71.575; 1678.000; 1230.000
462.422;   28.025;  781.000;  840.000
462.542;  -43.950;  271.000;  391.000
462.662;   29.900;  353.000;  380.000
462.782;  324.050;  833.000;  572.000
462.901;  730.775;  545.000;  717.000
463.021;  387.100; 1702.000; 1638.000
463.141;   10.000;  337.000;  770.000
463.260;  -15.200;  614.000;  474.000
463.380;   11.800;  902.000;  884.000
463.499;  -45.350;  342.000;  332.000
463.619;  -38.100;  581.000;  559.000
463.738;   88.750; 1644.000;  903.000
463.858;   15.400;  657.000;  811.000
463.978;  -39.600;  542.000;  396.000
464.097;   47.250;  921.000; 1114.000
464.217;  144.225; 1196.000; 1143.000
464.336;  150.575; 1068.000; 1130.000
464.455;  -13.025;  328.000;  659.000
464.575;   10.600;  597.000;  602.000
464.694;  118.175; 1204.000; 1179.000
464.814;  150.275; 1190.000; 1138.000
464.933;   57.025; 1095.000; 1027.000
465.052;  100.900; 1412.000; 1054.000
465.172;   65.650;  922.000;  799.000
465.291;  105.775; 1376.000; 1320.000
465.410;   -6.600;  462.000;  735.000
465.530;   75.125; 1355.000; 1310.000
465.649;   37.775; 1209.000; 1273.000
465.768;  122.450; 1673.000; 1508.000
465.888;   37.500;  941.000; 1174.000
466.007;   88.700; 1335.000; 1440.000
466.126;   -4.425;  721.000;  641.000
466.245;   40.600; 1176.000; 1187.000
466.364;    2.775;  950.000; 1060.000
466.484;   47.750; 1024.000; 1213.000
466.603;   21.425; 1101.000; 1222.000
466.722;   99.700; 1490.000; 1769.000
466.841;   55.200; 1151.000; 1401.000
466.960;   32.175; 1069.000;  972.000
467.079;  124.500; 1971.000; 1786.000
467.198;   42.775; 1238.000; 1181.000
467.317;   84.225; 1768.000; 1162.000
467.436;   52.000; 1709.000; 1261.000
467.555;  111.300; 1796.000; 1746.000
467.674;   53.675; 1227.000; 1329.000
467.793;   47.750; 1376.000; 1374.000
467.912;   81.150; 1658.000; 1539.000
468.031;  129.475; 2038.000; 1930.000
468.150;  139.125; 1842.000; 1837.000
468.269;  174.825; 2313.000; 2090.000
468.388;  169.000; 2168.000; 2339.000
468.507;  227.500; 2884.000; 2903.000
468.626;  253.925; 2555.000; 2541.000
468.744;  126.550; 2018.000; 2174.000
468.863;  185.800; 2312.000; 2523.000
468.982;   82.650; 1503.000; 1555.000
469.101;  227.875; 2788.000; 2692.000
469.220;  132.050; 2333.000; 2176.000
469.338;  248.925; 2935.000; 3051.000
469.457;  196.625; 2719.000; 2545.000
469.576;  348.350; 3953.000; 3784.000
469.695;  241.325; 2877.000; 3066.000
469.813;  410.225; 4148.000; 4192.000
469.932;  392.275; 4255.000; 4485.000
470.051;  430.900; 4075.000; 4161.000
470.169; 1021.950; 4470.000; 4338.000
470.288; 2004.000; 4700.000; 4809.000
470.406; 1141.525; 5059.000; 5194.000
470.525;  662.200; 6101.000; 5787.000
470.644;  647.825; 6847.000; 6794.000
470.762;  791.725; 8397.000; 7873.000
470.881;  900.300; 8651.000; 8464.000
470.999; 1076.775; 9685.000; 9151.000
471.118; 1104.850;11174.000;10711.000

