
Integration time [ms]: 100.000
Averaging Nr. [scans]: 40
Smoothing Nr. [pixels]: 0
Data measured with spectrometer [name]: 2101012U2
Wave   ;Sample   ;Dark     ;Reference
[nm]   ;[counts] ;[counts] ;[counts] 

197.733;   48.825;  516.000;  404.000
197.879;  -75.750; -610.000; -634.000
198.025;  -45.275; -475.000; -420.000
198.171;  -70.250; -602.000; -612.000
198.317;  -34.675; -401.000; -316.000
198.463;  -62.450; -655.000; -404.000
198.609;   26.250;  181.000; -137.000
198.755;  -86.425; -644.000; -410.000
198.901;  -66.150; -505.000; -424.000
199.047;  -67.850; -615.000; -488.000
199.193;  -48.550; -230.000; -468.000
199.339;  -43.975; -222.000; -369.000
199.485;   35.025;  330.000;  271.000
199.631;   16.400;  227.000;  310.000
199.777;  -53.600; -466.000; -398.000
199.923;  -54.650; -610.000; -424.000
200.069;   -1.925; -141.000;  -58.000
200.215;   69.425;  128.000;  453.000
200.361;   41.875;  243.000;  477.000
200.507;  -63.900; -600.000; -373.000
200.653;  -27.725; -371.000; -194.000
200.798;  -45.875; -215.000; -125.000
200.944;   -6.775; -146.000;  -41.000
201.090;   34.050;   61.000;  222.000
201.236;  -19.350; -116.000; -158.000
201.382;  121.900;  874.000;  903.000
201.528;   -7.125;  -58.000;  -48.000
201.674;  -53.600; -386.000; -293.000
201.819;  -65.600; -540.000; -439.000
201.965;  -80.725; -699.000; -447.000
202.111;  -19.350; -273.000; -226.000
202.257;  -50.675; -250.000; -238.000
202.402;    0.425;   13.000;  -36.000
202.548;  -36.300; -169.000; -116.000
202.694;   81.925;  410.000; -183.000
202.840;  -79.375; -603.000; -531.000
202.985;  -61.625; -681.000; -639.000
203.131; -103.150; -832.000; -666.000
203.277;  -33.925; -199.000; -262.000
203.423;  -59.350; -434.000; -520.000
203.568;  -46.725; -462.000; -237.000
203.714;  -49.800; -535.000; -542.000
203.860;  -88.100; -682.000; -641.000
204.005;   21.325;  112.000;  167.000
204.151;   71.125;  561.000;  556.000
204.296;  -43.350; -354.000; -221.000
204.442;  -60.075; -600.000; -547.000
204.588;  -74.450; -592.000; -579.000
204.733;   16.475;  178.000;  168.000
204.879; -123.225;-1018.000; -822.000
205.025;    6.150;  -99.000;  126.000
205.170;    9.175;  -17.000;   94.000
205.316;   74.100;  438.000;  661.000
205.461;  -81.150; -698.000; -554.000
205.607;   81.850;  609.000;  665.000
205.752;  -75.625; -626.000; -551.000
205.898;  -42.350; -501.000; -391.000
206.043;  -75.625; -578.000; -506.000
206.189;  -61.125; -243.000; -285.000
206.334;   66.950;  554.000;  606.000
206.480;   57.450;  409.000;  239.000
206.625;  -77.250; -529.000; -552.000
206.771;  -50.725; -451.000; -373.000
206.916;  -38.300; -210.000; -537.000
207.062;  -76.900; -545.000; -591.000
207.207;  -50.625; -546.000; -443.000
207.353;   39.275;  185.000;  460.000
207.498;   19.475;  196.000;   85.000
207.643;  -55.850; -501.000; -370.000
207.789; -130.550;-1069.000; -910.000
207.934; -105.275; -665.000; -713.000
208.080;  -18.825; -154.000;   66.000
208.225;   -4.750;  -22.000;  -57.000
208.370;  -86.475; -727.000; -619.000
208.516;  -76.825; -741.000; -487.000
208.661;  -32.675; -127.000;  -69.000
208.806;  -25.925; -165.000; -171.000
208.952; -125.000;-1044.000; -731.000
209.097;   63.450;  378.000;  349.000
209.242;  -40.900; -307.000; -382.000
209.387;   51.000;  392.000;  350.000
209.533;  -64.825; -321.000; -350.000
209.678;   83.725;  472.000;  543.000
209.823;  -57.700; -408.000; -310.000
209.969; -108.775; -860.000; -757.000
210.114; -109.925; -907.000; -719.000
210.259; -113.900; -939.000; -889.000
210.404;   -4.975; -171.000;  103.000
210.549;   15.025;  108.000;    3.000
210.695;  -20.500;   -3.000;  -95.000
210.840;   29.975;   94.000;   67.000
210.985;  -62.600; -484.000; -303.000
211.130;   64.250;  268.000;  406.000
211.275;    5.750;  207.000;  199.000
211.420;  -57.900; -300.000; -289.000
211.566;  -69.475; -536.000; -489.000
211.711;   27.600;  218.000;  157.000
211.856;  -72.900; -545.000; -519.000
212.001;    0.400;  151.000;   44.000
212.146;   21.150;  153.000;   49.000
212.291;  -32.525; -210.000; -186.000
212.436;  -29.550; -280.000;   -6.000
212.581;  -85.500; -685.000; -653.000
212.726;  -76.750; -487.000; -538.000
212.871;  -56.975; -552.000; -217.000
213.016; -144.825;-1172.000;-1029.000
213.161;   52.700;  406.000;  291.000
213.306;  -78.175; -435.000; -577.000
213.451; -100.900; -778.000; -689.000
213.596;  -49.875; -455.000; -347.000
213.741;  -70.100; -448.000; -538.000
213.886;  -79.025; -498.000; -517.000
214.031;  -21.900; -294.000; -124.000
214.176;  -57.150; -408.000; -341.000
214.321;  -28.400; -296.000; -157.000
214.466;  -29.500; -163.000;  -43.000
214.611;  -18.750;  -61.000;  -10.000
214.756; -115.800; -948.000; -858.000
214.901;  -36.050; -388.000; -226.000
215.046; -128.225; -797.000; -825.000
215.191;    9.125;  128.000;   35.000
215.336;   -8.725; -157.000;  -19.000
215.480;  -74.075; -684.000; -505.000
215.625;  -18.725; -175.000;  -19.000
215.770;  -82.200; -757.000; -662.000
215.915;  -20.650;   -5.000;  -97.000
216.060;  -10.925; -113.000;  -21.000
216.205; -101.050; -731.000; -779.000
216.349;  -69.600; -470.000; -533.000
216.494; -126.425; -939.000; -867.000
216.639; -134.325; -823.000; -888.000
216.784;  -98.150; -577.000; -525.000
216.929;   41.425;  392.000;  281.000
217.073;   -4.900; -244.000;  -31.000
217.218;   10.525;   78.000;  -47.000
217.363;  -89.825; -656.000; -618.000
217.507;  -89.325; -623.000; -588.000
217.652; -126.975; -845.000; -874.000
217.797;  -89.500; -708.000; -659.000
217.942; -108.025; -856.000; -720.000
218.086;   81.950;  608.000;  539.000
218.231;  -29.950; -174.000;  -26.000
218.376;  -39.075; -337.000; -229.000
218.520;   -2.450;  -41.000;   96.000
218.665;  -35.150; -338.000; -204.000
218.810;  -46.075; -275.000; -233.000
218.954;   20.525;  201.000;   35.000
219.099; -123.850; -713.000; -963.000
219.243;  -60.150; -589.000; -554.000
219.388;  -21.825; -264.000; -136.000
219.532;  -19.250; -116.000; -116.000
219.677;  -68.825; -564.000; -521.000
219.822;  -11.525;   33.000;   89.000
219.966;    8.775;   17.000;  -99.000
220.111;  -21.250; -328.000;  -40.000
220.255; -101.250; -797.000; -750.000
220.400;  -12.375; -180.000; -146.000
220.544;  -60.175; -516.000; -450.000
220.689;  -55.425; -422.000; -451.000
220.833;  -13.475; -123.000;  -58.000
220.978;  -51.375; -393.000; -563.000
221.122;   27.725;  319.000;  307.000
221.267; -118.275; -906.000; -837.000
221.411;  -74.725; -478.000; -394.000
221.555;   -6.650; -104.000;  -23.000
221.700;  -41.175; -329.000; -222.000
221.844;   22.150;  255.000;  272.000
221.989;  -54.675; -328.000; -311.000
222.133;  -45.675; -289.000; -307.000
222.277;  -17.375;    5.000;   78.000
222.422;   10.025;  227.000;  113.000
222.566;  -47.275; -381.000; -214.000
222.711;  -60.750; -414.000; -479.000
222.855;  -81.750; -643.000; -586.000
222.999;  -90.400; -642.000; -717.000
223.144;  -45.600; -195.000; -194.000
223.288;   59.975;  423.000;  251.000
223.432;   11.450;  184.000;  230.000
223.576;    4.150;  152.000;  -21.000
223.721;   41.300;  364.000;  273.000
223.865;  -69.675; -472.000; -475.000
224.009;  202.425; 1673.000; 1631.000
224.153;  -85.650; -660.000; -671.000
224.298;  -66.275; -531.000; -489.000
224.442;   -9.950;  -74.000;  -33.000
224.586;   -9.025; -169.000; -106.000
224.730;  -97.375; -858.000; -670.000
224.875; -117.775; -739.000; -688.000
225.019;   11.075;  102.000;  188.000
225.163;   39.550;  208.000;  341.000
225.307;   11.750;   97.000;  -91.000
225.451;   44.900;  360.000;  481.000
225.595;   30.900;  264.000;  176.000
225.739;  -17.225; -170.000;  -94.000
225.884;   -0.775;   86.000;    5.000
226.028;  -98.700; -760.000; -626.000
226.172;  -37.075; -260.000; -273.000
226.316; -111.575; -941.000; -902.000
226.460;  -69.575; -645.000; -493.000
226.604;  -55.625; -406.000; -400.000
226.748;  -97.950; -836.000; -733.000
226.892;  -36.800; -227.000; -181.000
227.036;  -64.975; -537.000; -447.000
227.180;  -63.200; -551.000; -375.000
227.324;  -65.500; -561.000; -580.000
227.468; -123.475; -819.000; -717.000
227.612;    7.475;  242.000;  -28.000
227.756; -104.100; -845.000; -698.000
227.900;   43.300;  342.000;  441.000
228.044;  -61.200; -509.000; -290.000
228.188;   41.550;  448.000;  568.000
228.332;  -97.300; -546.000; -472.000
228.476;  -30.325; -223.000; -149.000
228.620;  -29.950; -210.000; -150.000
228.764;   64.650;  431.000;  349.000
228.908;  -26.450; -155.000;   30.000
229.052;  -79.375; -615.000; -528.000
229.195;  -10.525; -172.000;   13.000
229.339;  -30.500; -235.000; -305.000
229.483;  -29.625;    5.000; -162.000
229.627;   -7.075; -156.000;  139.000
229.771;  -39.425; -218.000; -294.000
229.915;   19.175;  230.000;   79.000
230.059;  -94.650; -648.000; -663.000
230.202;  -39.950; -370.000; -317.000
230.346;   -5.375; -107.000;  107.000
230.490;  -75.100; -489.000; -521.000
230.634;  -96.975; -736.000; -553.000
230.777;   75.225;  478.000;  509.000
230.921;  -50.825; -450.000; -359.000
231.065;  -54.875; -246.000; -286.000
231.209;   37.300;  261.000;  265.000
231.352;    0.800;   54.000;   40.000
231.496;   -1.675;  568.000;  188.000
231.640;  -86.075; -693.000; -621.000
231.783;   41.625;  546.000;  525.000
231.927;  -53.500; -294.000; -365.000
232.071; -108.850; -962.000; -736.000
232.214; -120.425; -980.000; -764.000
232.358; -102.200; -683.000; -599.000
232.502;   -0.450;  -19.000;    7.000
232.645; -139.375;-1090.000; -927.000
232.789;  -29.750; -257.000; -218.000
232.933;  -48.600; -407.000; -224.000
233.076; -124.350;-1038.000; -897.000
233.220; -108.750; -752.000; -777.000
233.363;  -60.275; -669.000; -477.000
233.507;   63.775;  371.000;  129.000
233.650; -107.250; -764.000; -834.000
233.794;   49.650;  438.000;  461.000
233.938;  -74.000; -530.000; -362.000
234.081;  -32.300;  -93.000;   31.000
234.225;  -77.500; -631.000; -539.000
234.368; -132.550; -773.000; -723.000
234.512;  -47.825; -385.000; -299.000
234.655;  -94.875; -582.000; -555.000
234.798;  -69.175; -493.000; -466.000
234.942; -127.650; -884.000;-1002.000
235.085;  -72.075; -651.000; -443.000
235.229;  -71.200; -405.000; -410.000
235.372;  -63.550; -247.000; -191.000
235.516;  -66.275; -397.000; -321.000
235.659;   10.000;   92.000;  121.000
235.802;  -20.825;  -38.000;  -22.000
235.946;   25.350;  335.000;  215.000
236.089;   24.325;  126.000;  250.000
236.233;   47.425;  275.000;  298.000
236.376;  -54.675; -235.000; -378.000
236.519;  -58.725; -297.000; -319.000
236.663;  -16.850; -215.000; -117.000
236.806; -138.150;-1029.000; -999.000
236.949;   35.900;  543.000;  431.000
237.092;   55.825;  412.000;  391.000
237.236;  -96.525; -589.000; -502.000
237.379;   61.750;  352.000;  428.000
237.522; -116.775; -879.000; -768.000
237.666;  -21.775; -271.000;   18.000
237.809; -122.650; -851.000; -823.000
237.952;   32.775;  469.000;  271.000
238.095;  -67.000; -447.000; -442.000
238.238;   80.050;  688.000;  700.000
238.382;   -3.450;  166.000;  103.000
238.525;  -74.350; -598.000; -511.000
238.668; -137.925;-1060.000; -985.000
238.811;  -94.650; -638.000; -643.000
238.954;  -55.700; -483.000; -334.000
239.097;   79.425;  617.000;  664.000
239.241;    5.650;  394.000;  326.000
239.384;  -43.800; -254.000; -214.000
239.527;  -57.300; -424.000; -224.000
239.670; -143.950; -994.000;-1091.000
239.813; -120.750; -696.000; -658.000
239.956;   76.525;  579.000;  473.000
240.099; -116.050; -778.000; -725.000
240.242;   49.925;  428.000;  432.000
240.385;   46.350;  466.000;  450.000
240.528;  -72.400; -706.000; -473.000
240.671;   19.825;  189.000;  134.000
240.814;  -48.350; -441.000; -158.000
240.957; -106.925; -767.000; -578.000
241.100; -106.650; -779.000; -755.000
241.243; -129.700;-1234.000; -893.000
241.386;  -66.800; -508.000; -379.000
241.529;  -92.150; -735.000; -547.000
241.672;  -79.400; -566.000; -495.000
241.815; -128.750; -832.000; -808.000
241.958;  -28.800; -125.000; -182.000
242.101;  -94.275; -545.000; -390.000
242.244;  -55.300; -270.000; -325.000
242.387;  -45.525; -304.000; -246.000
242.530;   53.250;  470.000;  134.000
242.673;  -44.550; -381.000; -309.000
242.815; -118.800; -925.000; -899.000
242.958;  -71.825; -482.000; -381.000
243.101;   11.975;  132.000;  187.000
243.244;  -86.375; -564.000; -521.000
243.387;  -52.925; -313.000; -316.000
243.530;  -96.950; -657.000; -674.000
243.672;  -17.850;   43.000;  -92.000
243.815;  -59.775; -355.000; -283.000
243.958;  -11.000;   98.000;  -26.000
244.101;  -13.300;   59.000;  -16.000
244.243;  -15.125;  -47.000;  101.000
244.386; -104.025; -761.000; -630.000
244.529;  -37.625; -132.000; -139.000
244.672; -162.225;-1154.000; -951.000
244.814; -102.750; -621.000; -794.000
244.957;  -52.225; -380.000; -304.000
245.100;  -76.100; -489.000; -489.000
245.242;  -61.400; -387.000; -374.000
245.385;   -9.500;  -59.000;  -39.000
245.528; -125.200; -871.000; -705.000
245.670;   77.175;  612.000;  634.000
245.813;  -94.375; -599.000; -547.000
245.956;  -48.225; -324.000; -275.000
246.098;  -79.900; -508.000; -650.000
246.241;   -6.875;  194.000;   48.000
246.383;  -22.600; -119.000;  -73.000
246.526;  -78.250; -454.000; -525.000
246.669; -115.800; -889.000; -780.000
246.811;   11.475;  172.000;   -1.000
246.954;  -69.575; -512.000; -426.000
247.096;  -18.800;  -84.000;   -6.000
247.239;  -75.775; -482.000; -445.000
247.381;  -77.600; -647.000; -488.000
247.524;   74.900;  645.000;  679.000
247.666;   -9.425;   58.000;   11.000
247.809; -101.825; -887.000; -691.000
247.951;  -19.775;  -75.000;  138.000
248.094;   25.525;  432.000;  308.000
248.236; -153.375;-1262.000;-1238.000
248.378;   20.625; -356.000;  -81.000
248.521;  -22.475; -334.000; -337.000
248.663;  -48.775; -236.000; -267.000
248.806;  -26.725; -300.000; -266.000
248.948;  -99.300; -886.000; -763.000
249.090;  -51.975; -428.000; -398.000
249.233;  -54.300; -344.000; -381.000
249.375;  -63.850; -474.000; -451.000
249.518;  -26.950;  -83.000; -133.000
249.660;  -18.450; -103.000;    3.000
249.802; -166.500;-1303.000;-1189.000
249.945;  -93.925; -612.000; -540.000
250.087; -111.400; -834.000; -768.000
250.229;  -68.100; -362.000; -480.000
250.371;  -72.925; -494.000; -439.000
250.514;  -58.525; -310.000; -244.000
250.656;  -11.225;   69.000;  102.000
250.798; -125.850; -849.000; -800.000
250.940;  -65.000; -322.000; -322.000
251.083;  -31.675; -335.000; -111.000
251.225;   35.825;  338.000;  310.000
251.367;  -50.550; -274.000; -373.000
251.509;  -33.925; -265.000; -210.000
251.651;  -98.300; -731.000; -671.000
251.794;   56.075;  538.000;  632.000
251.936; -107.400; -821.000; -747.000
252.078;  -79.600; -540.000; -461.000
252.220;  -69.900; -645.000; -477.000
252.362;   78.500;  344.000;  462.000
252.504;  -72.050; -677.000; -584.000
252.646; -108.500; -875.000; -722.000
252.788;   -5.350;   14.000; -128.000
252.931;  -30.125; -257.000; -253.000
253.073;  -39.975; -376.000; -317.000
253.215;   -6.725;  141.000;  122.000
253.357;  -21.200;   82.000; -153.000
253.499;  -52.025; -374.000; -234.000
253.641;  -83.775; -749.000; -594.000
253.783; -102.050; -609.000; -527.000
253.925;  -91.825; -586.000; -591.000
254.067; -106.300; -744.000; -667.000
254.209;  -30.850; -391.000; -259.000
254.351; -140.200; -865.000; -883.000
254.493;  -73.300; -441.000; -417.000
254.635; -129.325; -936.000; -818.000
254.777;  -91.175; -752.000; -687.000
254.918;  -72.800; -512.000; -430.000
255.060;  -65.725; -551.000; -395.000
255.202;  -61.275; -473.000; -261.000
255.344; -101.525; -658.000; -455.000
255.486;  -76.575; -471.000; -406.000
255.628; -114.700; -780.000; -781.000
255.770;  -91.875; -676.000; -536.000
255.912;  -75.850; -559.000; -468.000
256.053; -100.150; -730.000; -508.000
256.195;  133.875; 1008.000;  903.000
256.337; -100.450; -861.000; -595.000
256.479;   42.475;  532.000;  416.000
256.621;  -49.625; -394.000; -212.000
256.762; -108.100; -789.000; -742.000
256.904;   40.175;  485.000;  487.000
257.046;  -50.600; -381.000; -271.000
257.188;  -45.000; -351.000; -264.000
257.329;  -72.150; -525.000; -464.000
257.471; -115.600; -939.000; -807.000
257.613;  -69.900; -584.000; -498.000
257.755; -151.450;-1073.000; -982.000
257.896;   12.075;  286.000;  392.000
258.038;  -73.875; -403.000; -352.000
258.180;  -59.600; -354.000; -279.000
258.321;  -94.975; -581.000; -457.000
258.463;  -15.625;  -71.000;  133.000
258.605; -101.925; -562.000; -570.000
258.746; -109.725; -886.000; -772.000
258.888; -154.675;-1026.000;-1020.000
259.029;    2.425;  121.000;   -8.000
259.171;  -97.725; -614.000; -550.000
259.313;  -19.300;  -49.000;  -47.000
259.454;  -70.175; -536.000; -414.000
259.596;  -76.775; -483.000; -390.000
259.737;  -70.375; -590.000; -474.000
259.879;   21.400;  217.000;  311.000
260.020;   75.525;  901.000;  636.000
260.162;  -42.375; -146.000; -253.000
260.303; -101.175; -768.000; -687.000
260.445;  -92.375; -609.000; -613.000
260.586;    9.575;  392.000;  157.000
260.728;  -47.000; -360.000; -248.000
260.869; -121.625; -350.000; -343.000
261.011;   60.675;  706.000;  537.000
261.152;  -62.550; -479.000; -319.000
261.293;  -84.200; -576.000; -595.000
261.435;  -40.125; -219.000; -184.000
261.576;  -57.550; -455.000; -325.000
261.718;   65.000;  420.000;  470.000
261.859; -130.500; -940.000; -949.000
262.000; -136.025; -951.000;-1016.000
262.142;  -41.100;  -52.000;  -60.000
262.283; -110.775; -808.000; -691.000
262.424;  -95.725; -666.000; -625.000
262.566; -165.675;-1161.000; -983.000
262.707; -129.550; -840.000; -830.000
262.848; -126.050; -769.000; -726.000
262.990;  -57.275; -362.000; -345.000
263.131;   71.625;  650.000;  681.000
263.272;  -16.800;  -61.000;  -41.000
263.413;  -88.700; -589.000; -561.000
263.555;  -75.700; -669.000; -143.000
263.696;  -81.425; -550.000; -641.000
263.837;  -68.675; -449.000; -551.000
263.978;   -7.875;   -5.000;  -77.000
264.119;  -61.200; -283.000; -264.000
264.261; -115.275; -847.000; -630.000
264.402;   -4.125;   33.000;   40.000
264.543;  -81.575; -509.000; -524.000
264.684;  -16.450;   61.000;  -50.000
264.825;  -80.925; -816.000; -538.000
264.966;  -20.625;  -84.000;  -67.000
265.107; -117.550; -646.000; -670.000
265.248; -128.400; -825.000; -812.000
265.390;  -14.250;  152.000;   -9.000
265.531;  -33.550; -238.000; -107.000
265.672;  -94.400; -557.000; -630.000
265.813;   55.175;  563.000;  439.000
265.954; -154.450; -959.000; -940.000
266.095;  -26.600; -372.000; -322.000
266.236;  -89.500; -686.000; -548.000
266.377;  -48.650; -243.000; -297.000
266.518;  -75.300; -619.000; -547.000
266.659;   28.175;  170.000;  268.000
266.800;   -2.050;   83.000;   85.000
266.941;  -74.425; -487.000; -478.000
267.082;   11.600;  354.000;   99.000
267.223;  -64.175; -344.000; -273.000
267.364; -122.525; -892.000; -686.000
267.504;  -33.350;    3.000;  135.000
267.645;   -0.750;  160.000;   67.000
267.786;  -50.925; -147.000;  -86.000
267.927;  -76.125; -473.000; -379.000
268.068;  -24.100; -186.000;  -61.000
268.209;  -46.625; -175.000; -413.000
268.350;  -67.825; -388.000; -532.000
268.490;  -84.550; -648.000; -521.000
268.631;   20.150;  127.000;  225.000
268.772; -105.925; -874.000; -647.000
268.913;  -61.075; -328.000; -476.000
269.054;  -13.275; -117.000;   12.000
269.194;  -49.800; -418.000; -402.000
269.335; -174.650;-1137.000;-1074.000
269.476;  -25.800;   33.000;  -35.000
269.617;  -41.825; -347.000; -392.000
269.757; -100.825; -713.000; -646.000
269.898; -118.475; -856.000; -613.000
270.039;  -63.175; -415.000; -405.000
270.180; -142.350; -952.000; -816.000
270.320;  -39.675; -190.000; -250.000
270.461;  -44.025; -277.000; -249.000
270.602;  -30.400; -186.000; -156.000
270.742; -113.350; -868.000; -943.000
270.883;  -74.650; -442.000; -390.000
271.023;  -66.450; -358.000; -357.000
271.164;  -80.000; -607.000; -528.000
271.305; -109.325; -666.000; -654.000
271.445; -112.200; -722.000; -683.000
271.586;  -81.875; -462.000; -283.000
271.726;  -58.125; -397.000; -322.000
271.867;  -62.075; -594.000; -534.000
272.008;  166.225; -473.000; -285.000
272.148;  117.350;  462.000;  468.000
272.289;   -3.175; -113.000; -181.000
272.429;    5.200;   19.000;  185.000
272.570;  -96.075; -633.000; -737.000
272.710; -110.550; -825.000; -775.000
272.851;  -35.575;  113.000; -130.000
272.991; -167.250;-1173.000;-1077.000
273.131;  -80.500; -419.000; -459.000
273.272;  -97.500; -683.000; -723.000
273.412;   -2.950; -143.000;  -31.000
273.553;  -40.325; -488.000; -507.000
273.693;  118.750;  913.000;  858.000
273.834;  -93.900; -894.000; -692.000
273.974;  -96.575; -664.000; -615.000
274.114;  -91.975; -772.000; -560.000
274.255;   62.350;  414.000;  373.000
274.395;   17.650; -180.000; -125.000
274.535;   39.900;  199.000;  350.000
274.676;   24.450;  225.000;   94.000
274.816;  -16.050;  110.000;   34.000
274.956;  -89.550; -624.000; -690.000
275.097;  -70.250;-1014.000; -922.000
275.237; -107.550; -913.000; -803.000
275.377; -116.200; -778.000; -689.000
275.517; -143.250; -878.000; -937.000
275.658;  -58.775; -590.000; -555.000
275.798;  -82.850; -606.000; -413.000
275.938;   17.075;  215.000;  323.000
276.078; -112.100; -626.000; -395.000
276.218;   -9.950;   99.000;  104.000
276.359; -135.100;-1026.000;-1024.000
276.499;  -74.700; -605.000; -446.000
276.639;  -49.500; -305.000; -151.000
276.779;  -57.050; -475.000; -357.000
276.919; -109.875; -783.000; -624.000
277.059;  -36.550; -261.000; -212.000
277.199;  -61.350; -357.000; -259.000
277.340;   35.400;  287.000;  175.000
277.480; -110.950; -840.000; -693.000
277.620;   32.925;  192.000;   16.000
277.760; -208.625;-1533.000;-1294.000
277.900;    8.500;  113.000;   33.000
278.040;   17.125;  137.000;  159.000
278.180;   18.800;  270.000;  170.000
278.320;   -2.975;   21.000;   56.000
278.460;  -71.300; -443.000; -469.000
278.600;  -83.725; -708.000; -598.000
278.740;   46.725;  448.000;  224.000
278.880;  -76.575; -768.000; -791.000
279.020;  -23.675; -194.000; -144.000
279.160;  -89.800; -672.000; -595.000
279.300; -134.400; -926.000; -873.000
279.440;  -89.550; -709.000; -622.000
279.579;  -26.550;-1014.000; -929.000
279.719;  -58.775; -410.000; -394.000
279.859;   64.600;   -4.000;   41.000
279.999;   13.750; -208.000;  101.000
280.139;  -11.150; -435.000; -387.000
280.279;  -78.075; -708.000; -745.000
280.419;  -27.675; -229.000; -147.000
280.559;  -37.375; -259.000; -180.000
280.698;  -83.375; -790.000; -639.000
280.838;  -90.000; -778.000; -800.000
280.978; -122.050; -846.000; -790.000
281.118; -114.375; -811.000; -704.000
281.257;   -5.725;   24.000;    6.000
281.397; -119.750;-1094.000; -960.000
281.537; -104.075; -599.000; -712.000
281.677;  -28.850; -150.000; -101.000
281.816;  -90.600; -700.000; -630.000
281.956;  -37.900; -193.000; -257.000
282.096;  -61.400; -539.000; -396.000
282.235; -106.050; -672.000; -638.000
282.375;  -27.875; -243.000;  -98.000
282.515; -100.800; -715.000; -707.000
282.654;   17.100;   29.000;  106.000
282.794;   14.600;  388.000;  244.000
282.934;  -59.400; -530.000; -491.000
283.073; -143.625;-1030.000; -857.000
283.213;  -63.225; -460.000; -467.000
283.353;  -29.200; -408.000; -349.000
283.492;  -49.825; -264.000; -296.000
283.632;  -46.700; -254.000; -168.000
283.771; -114.350; -859.000; -730.000
283.911;  -52.050; -369.000; -260.000
284.050; -111.525; -794.000; -748.000
284.190; -148.325;-1229.000;-1096.000
284.329; -155.125;-1055.000; -964.000
284.469;  -66.275; -516.000; -591.000
284.608;  -62.900; -559.000; -598.000
284.748;  -92.900; -614.000; -570.000
284.887;  -18.350;  -87.000;  -20.000
285.027; -124.550; -844.000; -892.000
285.166;  -45.300; -192.000; -249.000
285.306;   -3.425; -116.000;  -33.000
285.445;  -50.225; -229.000; -343.000
285.584;  -89.575; -630.000; -494.000
285.724;  -53.500; -282.000; -322.000
285.863; -120.300; -857.000; -507.000
286.002;  -65.300; -366.000; -276.000
286.142; -107.750; -715.000; -622.000
286.281;  -85.225; -525.000; -493.000
286.420;  -94.225; -554.000; -417.000
286.560;   96.200;  653.000;  623.000
286.699; -138.800; -958.000; -912.000
286.838;  -96.050; -590.000; -591.000
286.978;  -87.450; -533.000; -537.000
287.117; -134.675;-1085.000; -950.000
287.256;  -37.350; -228.000; -211.000
287.395;  -57.925; -197.000; -378.000
287.535;  -42.175; -370.000; -298.000
287.674;  -89.675; -509.000; -484.000
287.813;   46.400;  661.000;  533.000
287.952; -125.325;-1010.000; -871.000
288.091; -153.775;-1049.000; -915.000
288.231;   -7.150;   13.000;   15.000
288.370; -179.900;-1217.000;-1200.000
288.509;  -85.775; -728.000; -645.000
288.648;  -87.800; -770.000; -548.000
288.787;  -44.775; -243.000;  -87.000
288.926;  -65.500; -454.000; -475.000
289.065;   98.875;  859.000;  672.000
289.204;  -59.275; -377.000; -217.000
289.344; -104.275; -791.000; -690.000
289.483;   26.000;  416.000;  304.000
289.622;  -27.000; -291.000; -149.000
289.761;  -13.650; -309.000; -166.000
289.900; -111.625; -785.000; -626.000
290.039;  -26.475;  -12.000;  -95.000
290.178;  -54.675; -274.000; -180.000
290.317;  -82.125; -618.000; -479.000
290.456;  -76.625; -463.000; -451.000
290.595; -125.475; -961.000; -833.000
290.734; -132.925; -904.000; -891.000
290.873;  -74.950; -456.000; -420.000
291.011; -114.450; -833.000; -843.000
291.150; -106.875; -770.000; -682.000
291.289;  -34.950; -343.000; -110.000
291.428;  -96.200; -599.000; -480.000
291.567;  -64.550; -370.000; -442.000
291.706;   -6.225;  109.000;  154.000
291.845;  -92.275; -597.000; -505.000
291.984; -167.500;-1234.000;-1061.000
292.122;   57.225;  602.000;  582.000
292.261;   42.925;  620.000;  463.000
292.400;   -8.275; -144.000;  211.000
292.539; -127.700; -959.000; -813.000
292.678;  -47.325; -325.000; -300.000
292.816; -165.200;-1136.000; -965.000
292.955;  -88.575; -844.000; -684.000
293.094;  -26.000; -173.000; -337.000
293.233;  -68.775; -556.000; -400.000
293.371;  -42.625; -225.000;  -84.000
293.510; -114.300; -866.000; -780.000
293.649; -126.225; -959.000; -924.000
293.787;  -67.000;-1083.000;-1012.000
293.926;   -7.150; -113.000;  -32.000
294.065;  -53.425; -379.000; -290.000
294.203;   44.825;  298.000;  406.000
294.342;   11.950;   74.000;  156.000
294.481; 5291.625;51180.000; -836.000
294.619;  -39.725; -425.000; -582.000
294.758; -151.950;-1230.000;-1137.000
294.896;   48.375; -125.000;    5.000
295.035; -121.875;-1040.000;-1006.000
295.174; -122.600;-1082.000; -954.000
295.312;  -42.175; -323.000; -203.000
295.451;  -16.875; -307.000; -428.000
295.589;  -57.500; -389.000; -518.000
295.728;    9.150; -292.000; -165.000
295.866;   -5.400;  -36.000;  -51.000
296.005;  -72.225; -584.000; -341.000
296.143;  -72.550; -558.000; -596.000
296.282; -119.525; -957.000; -881.000
296.420;  -88.275; -657.000; -557.000
296.559;  -91.850; -892.000; -633.000
296.697;    8.425; -847.000; -665.000
296.835;   36.325;-1141.000;-1002.000
296.974;   38.125;  -23.000;   39.000
297.112;    1.050; -443.000; -504.000
297.251;  -76.100; -815.000; -755.000
297.389;   76.950; -576.000; -438.000
297.527;   12.075; -145.000;  -83.000
297.666;  -59.100; -486.000; -438.000
297.804;  -50.675; -404.000; -264.000
297.942;  -20.850; -136.000; -161.000
298.081;   -3.725; -183.000;   63.000
298.219;   55.650;  -17.000;  -19.000
298.357;   38.775; -144.000;  -71.000
298.495;   18.700; -810.000; -812.000
298.634;   60.525;  245.000;  219.000
298.772;   40.725; -220.000; -338.000
298.910;  -53.600; -309.000; -182.000
299.048;  -16.875; -130.000; -153.000
299.187;  -20.875; -350.000; -250.000
299.325;    3.675;   52.000;  122.000
299.463;   40.225; -389.000; -299.000
299.601;   93.850; -327.000; -271.000
299.739; -125.175; -908.000; -883.000
299.877;  -87.200; -791.000; -703.000
300.016;  -51.400;-1095.000; -935.000
300.154;  158.525;  -19.000; -161.000
300.292;   48.900; -428.000; -348.000
300.430;   30.425; -408.000; -291.000
300.568; -113.250; -940.000; -874.000
300.706;  -56.200; -366.000; -469.000
300.844;  -75.150;-1108.000; -979.000
300.982;   91.325;  246.000;  282.000
301.120; -109.850; -965.000; -866.000
301.258;  -81.575; -812.000; -705.000
301.396;   23.650;  104.000;  -41.000
301.534;   67.725; -218.000; -293.000
301.672;  -14.100; -664.000; -521.000
301.810;   15.900; -613.000; -545.000
301.948;   95.775;   53.000;  149.000
302.086;  615.050; -250.000;  -32.000
302.224;  915.725; -610.000; -585.000
302.362;   24.625; -558.000; -622.000
302.500;  -30.475; -923.000; -893.000
302.638;   96.425;  128.000;  245.000
302.776;    0.175; -352.000; -408.000
302.913;   34.125;  447.000;  236.000
303.051;   -4.925;  -86.000;  -23.000
303.189;   28.400;   90.000;  118.000
303.327;  -43.175; -341.000; -256.000
303.465;  -87.275; -832.000; -588.000
303.603;  -94.400; -805.000; -604.000
303.740;   86.000;  417.000;  241.000
303.878;   13.700; -800.000; -759.000
304.016;  -99.025; -915.000; -790.000
304.154; -133.525;-1123.000;-1152.000
304.291;  -49.375; -505.000; -554.000
304.429;    8.000;  102.000;   74.000
304.567; -132.475; -908.000; -893.000
304.705;  -67.250; -408.000; -515.000
304.842;   94.950; -616.000; -540.000
304.980;   32.975;  215.000;   35.000
305.118;   21.350; -367.000; -365.000
305.255;  -87.850; -945.000; -927.000
305.393;   50.850;  178.000;  239.000
305.531; -106.050;-1173.000; -956.000
305.668;  -78.600; -663.000; -582.000
305.806;  101.475; -358.000; -439.000
305.943;   96.850; -629.000; -637.000
306.081;   47.575; -378.000; -267.000
306.219; -111.825; -863.000; -748.000
306.356;  -10.875;  158.000;   27.000
306.494;   96.700;  981.000;  761.000
306.631;  -11.225;  -11.000;  -55.000
306.769;   -2.325; -613.000; -485.000
306.906;  -27.750; -284.000; -258.000
307.044;  -75.775; -473.000; -488.000
307.181;  -71.850; -410.000; -332.000
307.319;   -2.575;  112.000;   87.000
307.456; -162.000;-1191.000;-1153.000
307.594; -103.250; -980.000; -727.000
307.731;  -24.050; -371.000; -164.000
307.868;  -14.500;  -15.000;   20.000
308.006; -137.375; -961.000; -847.000
308.143;  -68.850; -618.000; -330.000
308.281;  174.075;  -37.000; -254.000
308.418;  -13.425; -748.000; -640.000
308.555;  -73.825; -400.000; -250.000
308.693;  -77.950; -577.000; -573.000
308.830; -105.550; -712.000; -657.000
308.967;  -21.550; -215.000;  -95.000
309.105;  -51.600; -507.000; -396.000
309.242;   29.400; -468.000; -367.000
309.379;  325.000; -577.000; -655.000
309.517;  -86.825; -936.000; -948.000
309.654; -103.725; -910.000; -734.000
309.791;  -92.800; -662.000; -580.000
309.928; -119.375; -977.000; -914.000
310.065;  185.250;  819.000;  697.000
310.203;  -16.700; -825.000; -850.000
310.340;  -24.025; -465.000; -321.000
310.477;  -91.750; -412.000; -516.000
310.614;  -83.200; -383.000; -473.000
310.751;  -86.050; -427.000; -518.000
310.889;  -32.250;    1.000;   11.000
311.026; -156.550;-1161.000; -939.000
311.163;  -51.950; -386.000; -380.000
311.300;  -84.700; -512.000; -479.000
311.437;  -71.750; -658.000; -619.000
311.574; -151.400;-1226.000; -985.000
311.711;  -63.425; -595.000; -433.000
311.848;  -46.600; -380.000; -388.000
311.985;    1.675;  270.000;   93.000
312.122; -120.825; -932.000; -762.000
312.259; -138.750; -941.000; -994.000
312.396;  -80.175; -508.000; -551.000
312.533; -101.325; -812.000; -790.000
312.670; -136.200;-1070.000; -898.000
312.807;  -53.400; -352.000; -367.000
312.944;  -82.775; -513.000; -611.000
313.081;  -42.775; -150.000; -415.000
313.218;  -96.825;-1111.000; -867.000
313.355;  -11.400; -531.000; -449.000
313.492;   -1.175; -455.000; -292.000
313.629;  108.300;  815.000;  735.000
313.766; -160.050;-1176.000;-1008.000
313.902;  -29.100; -186.000;   21.000
314.039;  -55.675; -372.000; -289.000
314.176;   11.450;  286.000;  192.000
314.313;  -78.125; -569.000; -473.000
314.450;  -89.050; -788.000; -684.000
314.587;  -55.375; -468.000; -480.000
314.723;    2.375;  -78.000;  130.000
314.860;   38.025;  318.000;  332.000
314.997;   17.625;  223.000;  142.000
315.134;  -33.475; -385.000; -368.000
315.270;  -44.250; -480.000; -496.000
315.407; -125.725;-1094.000; -967.000
315.544;  -63.250; -657.000; -538.000
315.681;  -61.125; -681.000; -565.000
315.817;   19.975; -133.000; -176.000
315.954;   19.625; -613.000; -392.000
316.091; -114.275;-1045.000;-1023.000
316.227;  -32.300;  -71.000; -179.000
316.364;  -12.125;   23.000;    6.000
316.500;  -47.575; -113.000; -300.000
316.637;  -47.375; -181.000; -302.000
316.774;  -85.475; -625.000; -358.000
316.910;  -93.475; -598.000; -629.000
317.047;  -64.250; -487.000; -351.000
317.183;  -50.850; -435.000; -566.000
317.320;   -5.100; -367.000; -321.000
317.456;  -79.475; -733.000; -805.000
317.593;  -95.600; -598.000; -641.000
317.729;  -13.300;  168.000;  -67.000
317.866; -187.450;-1434.000;-1285.000
318.002; -103.800; -708.000; -948.000
318.139;  -96.175; -883.000; -867.000
318.275; -114.725;-1003.000; -738.000
318.412;  -67.875; -517.000; -336.000
318.548;  -48.675; -751.000; -720.000
318.685; -107.950; -985.000; -888.000
318.821; -101.850; -762.000; -735.000
318.957;  -20.600;   34.000;  -23.000
319.094;   31.100;  297.000;  154.000
319.230;  -69.150; -756.000; -742.000
319.367;  124.350; -471.000; -520.000
319.503;   44.575; -538.000; -436.000
319.639;  -83.575; -877.000; -793.000
319.775;  -72.575; -750.000; -685.000
319.912;  -67.600; -424.000; -519.000
320.048;  -93.200;-1184.000;-1184.000
320.184;   67.025;   59.000;   70.000
320.321;  -68.100; -497.000; -467.000
320.457;   48.275;  475.000;  662.000
320.593;  -73.075; -375.000; -382.000
320.729; -110.750; -732.000; -734.000
320.866;  -77.750; -577.000; -635.000
321.002;  -85.850; -759.000; -809.000
321.138;  -10.400; -135.000; -211.000
321.274;   75.175; -148.000; -115.000
321.410;  -35.050; -585.000; -353.000
321.546;  -44.700;-1011.000; -911.000
321.683;   53.200;  400.000;  185.000
321.819;   -6.025;  -48.000; -117.000
321.955; -100.900; -743.000; -722.000
322.091;  -60.850; -585.000; -540.000
322.227;  -23.775; -382.000; -202.000
322.363;  -28.400; -320.000; -215.000
322.499;  -53.150; -343.000; -331.000
322.635;  151.775;  636.000;  443.000
322.771;   25.450; -139.000;   12.000
322.907;   80.225;  129.000;  327.000
323.043;  -23.000; -115.000; -206.000
323.179;  -37.450; -394.000; -363.000
323.315;   11.775; -401.000; -371.000
323.451;   62.375; -328.000; -236.000
323.587;   46.975;  -60.000;  -77.000
323.723;    7.800; -682.000; -601.000
323.859;  -12.700; -258.000;  -76.000
323.995;  -42.425; -467.000; -409.000
324.131; -122.125; -967.000; -892.000
324.267;  -55.325; -254.000; -276.000
324.402; -119.425; -960.000; -983.000
324.538;  -16.600; -279.000; -104.000
324.674;   10.300;  164.000;   77.000
324.810;  102.575;  226.000;  308.000
324.946;   -8.075; -810.000; -658.000
325.082;  -82.900; -568.000; -475.000
325.217;  -22.625;  -62.000;   16.000
325.353; -113.400; -764.000; -659.000
325.489;  -95.075; -540.000; -506.000
325.625;  -80.750; -579.000; -525.000
325.760;   52.875;  517.000;  376.000
325.896;  -25.625; -515.000; -702.000
326.032;  -61.500; -403.000; -352.000
326.168;  -76.550; -462.000; -369.000
326.303;  -66.075; -352.000; -461.000
326.439;  -34.125; -336.000; -276.000
326.575;   -2.050; -190.000;  -29.000
326.710;   -8.525; -156.000;  -30.000
326.846;  -20.750;  146.000;  103.000
326.982; -108.250; -530.000; -548.000
327.117;  -74.900; -481.000; -442.000
327.253;  -99.525; -745.000; -742.000
327.388; -144.125;-1137.000;-1153.000
327.524;  -67.675; -811.000; -578.000
327.659;  -36.950;  -58.000;  -22.000
327.795;  -24.700;   69.000;   45.000
327.931; -103.850; -723.000; -499.000
328.066;  -41.000; -417.000; -276.000
328.202;  -48.575;   12.000; -129.000
328.337;   90.525;  957.000;  713.000
328.473;   32.050;  -12.000;  -74.000
328.608;  -33.525; -256.000; -267.000
328.743;  -81.300; -799.000; -664.000
328.879;    2.300;  214.000;  114.000
329.014;  -44.425; -102.000; -122.000
329.150;  -95.275; -358.000; -483.000
329.285;  -84.025; -465.000; -466.000
329.421;  -54.675; -548.000; -246.000
329.556;  -33.525;  -36.000;   85.000
329.691; -113.950; -633.000; -615.000
329.827;  -77.300; -626.000; -480.000
329.962;  -51.950;  131.000; -301.000
330.097;  -96.450; -673.000; -585.000
330.233;  -54.525; -410.000; -223.000
330.368; -136.550; -839.000; -628.000
330.503;  -25.125;    3.000;   98.000
330.638;   -8.650;  -93.000; -125.000
330.774;  -73.075; -609.000; -530.000
330.909;  -57.050; -434.000; -244.000
331.044; -105.550; -714.000; -708.000
331.179; -182.900;-1217.000;-1109.000
331.315;    5.875;   77.000;   20.000
331.450;    3.475;  157.000;  285.000
331.585;  -99.750; -805.000; -706.000
331.720;  -92.450; -510.000; -460.000
331.855;  -29.650;  -35.000; -102.000
331.990;  249.175;   62.000;  138.000
332.126;  122.025; -110.000;   71.000
332.261;  -26.550; -379.000; -265.000
332.396;  -10.100; -135.000; -242.000
332.531;  -90.325;-1074.000;-1031.000
332.666;   32.975; -519.000; -363.000
332.801; -119.550; -726.000; -807.000
332.936;  -32.725; -192.000; -122.000
333.071; -138.675; -870.000; -817.000
333.206;   13.775;  307.000;  379.000
333.341;   18.225;  344.000;  418.000
333.476;  -95.325; -627.000; -623.000
333.611;  -42.700; -251.000; -173.000
333.746;  -71.625; -381.000; -464.000
333.881; -130.500; -973.000; -935.000
334.016; -132.450; -936.000; -917.000
334.151; -108.400; -746.000; -702.000
334.286;   12.375;  152.000;  186.000
334.421;  -33.750; -125.000; -178.000
334.556;  -87.150; -611.000; -567.000
334.690;  -96.200; -631.000; -577.000
334.825;   48.225;  381.000;   83.000
334.960;  -70.950; -285.000; -413.000
335.095;  -11.975;  135.000;  -91.000
335.230; -106.975; -722.000; -738.000
335.365; -147.725;-1084.000; -990.000
335.499; -139.375;-1108.000;-1037.000
335.634;    4.075;    9.000;  534.000
335.769; -109.625; -755.000; -720.000
335.904;  -76.250; -603.000; -561.000
336.038;  -63.225; -735.000; -657.000
336.173; -124.325;-1206.000;-1194.000
336.308;   -8.375; -116.000; -189.000
336.443;    3.250; -544.000; -634.000
336.577;  -81.500; -936.000; -787.000
336.712;   43.100;   -4.000;  -12.000
336.847;  -46.750; -724.000; -607.000
336.981;   54.250; -272.000; -208.000
337.116;  271.700;  615.000;  501.000
337.250;  112.525; -434.000; -421.000
337.385;  246.225; -297.000; -208.000
337.520;   95.500; -632.000; -603.000
337.654;  -51.900; -215.000; -126.000
337.789; -139.275; -989.000; -933.000
337.923;  -29.975; -104.000; -205.000
338.058;  -91.625; -673.000; -738.000
338.192;  -30.625; -611.000; -488.000
338.327;  -23.225;  -18.000; -155.000
338.461;  -64.275; -299.000; -469.000
338.596;  -85.250; -780.000; -638.000
338.730; -106.125; -767.000; -803.000
338.865;   96.125;  -46.000; -140.000
338.999;  -51.625; -846.000; -702.000
339.134;  -35.200; -634.000; -536.000
339.268;   10.850; -741.000; -603.000
339.403;  355.975; -740.000; -775.000
339.537;  115.500; -894.000; -820.000
339.671; -115.425; -829.000; -813.000
339.806;  -71.625; -556.000; -512.000
339.940;    4.800; -261.000; -235.000
340.074;  -94.775; -685.000; -510.000
340.209;  -64.375; -351.000; -230.000
340.343;  -95.750; -517.000; -573.000
340.477;  134.450;  998.000; 1036.000
340.612;  -57.650;-1033.000; -900.000
340.746;  136.500; -199.000; -243.000
340.880;  -66.350; -924.000; -785.000
341.014;  -29.225;  -45.000; -154.000
341.149; -126.075; -756.000; -718.000
341.283; -108.400; -839.000; -754.000
341.417;  -94.675;-1124.000; -938.000
341.551;  109.325; -768.000; -708.000
341.685;  -37.275; -633.000; -611.000
341.820;  -64.650; -562.000; -493.000
341.954;  -40.750; -218.000; -349.000
342.088; -157.675;-1102.000;-1019.000
342.222;   42.300;  565.000;  618.000
342.356;  -68.950; -395.000; -335.000
342.490;  -86.875; -880.000; -841.000
342.624;  -56.425; -339.000; -242.000
342.758;    6.225; -364.000; -312.000
342.892;  -75.650; -710.000; -585.000
343.026;  -36.775;  -58.000; -116.000
343.160;  -53.950; -426.000; -376.000
343.294;  -83.775; -474.000; -337.000
343.428;  -39.375; -488.000; -448.000
343.562;  -33.150; -172.000;  -23.000
343.696;  -33.600; -385.000; -314.000
343.830;  -29.425; -362.000; -356.000
343.964;    8.375; -231.000; -168.000
344.098;  857.250;  199.000;   70.000
344.232;  722.600; -266.000; -127.000
344.366;   84.475; -567.000; -453.000
344.500;   47.100; -665.000; -744.000
344.634;   20.550; -324.000; -164.000
344.768;  -33.725; -531.000; -341.000
344.902;   19.400;  278.000;  256.000
345.035;  -85.850; -556.000; -496.000
345.169; -137.025; -933.000; -656.000
345.303;  -49.050; -308.000; -482.000
345.437;  -91.275; -826.000; -717.000
345.571;  -69.925; -675.000; -594.000
345.704;  -63.750; -309.000; -532.000
345.838;  -27.075; -331.000; -284.000
345.972;  -45.275; -543.000; -495.000
346.106;  164.675; -179.000; -190.000
346.239;  422.850; -312.000; -243.000
346.373;    2.450; -343.000; -302.000
346.507; -141.925; -950.000; -962.000
346.640;  135.575;  -30.000;   13.000
346.774;  -53.175; -650.000; -797.000
346.908;  -32.725; -138.000;  -11.000
347.041;  -87.675; -646.000; -593.000
347.175;   -0.425;  259.000;   27.000
347.309;  -72.075; -698.000; -628.000
347.442; -100.950; -883.000; -732.000
347.576;  256.975;  670.000;  668.000
347.709;  184.050; -123.000;  -52.000
347.843; -112.575; -933.000; -825.000
347.976;   23.800;  235.000;  294.000
348.110; -181.625;-1268.000;-1186.000
348.243;  -86.350; -679.000; -772.000
348.377;  -10.050;  -26.000;   60.000
348.510;   30.800;  403.000;  540.000
348.644;  -43.425;  -37.000; -159.000
348.777;  -22.250;  180.000;  191.000
348.911;  -54.675; -142.000; -112.000
349.044;  151.275;  471.000;  448.000
349.178;  146.850;-1069.000;-1006.000
349.311;  107.725;  141.000;  255.000
349.444;   -5.125; -927.000; -813.000
349.578;  -23.925; -347.000; -200.000
349.711; -104.950; -959.000; -862.000
349.845;   -8.850; -661.000; -591.000
349.978; -131.325;-1224.000;-1137.000
350.111;  -90.150; -546.000; -612.000
350.244;  -80.875; -596.000; -700.000
350.378;   -4.525; -392.000; -393.000
350.511;  -82.025; -393.000; -426.000
350.644; -110.325; -808.000; -806.000
350.778;   -5.900;  168.000;  104.000
350.911;   -4.325;  134.000;  140.000
351.044; -101.050; -685.000; -615.000
351.177;  -42.175; -321.000; -281.000
351.310;  -20.725;    3.000; -131.000
351.444;  -99.575; -888.000; -788.000
351.577;  105.700;  140.000;   90.000
351.710;   88.100;  593.000;  417.000
351.843;  -31.700; -165.000;  -77.000
351.976;  -10.800;  149.000;  -79.000
352.109; -104.075; -621.000; -612.000
352.242;  -31.600; -464.000; -419.000
352.376;  -76.875; -580.000; -636.000
352.509;  144.875; -437.000; -356.000
352.642;  -18.100; -654.000; -604.000
352.775;   37.875; -141.000;  -98.000
352.908; -117.075; -933.000; -904.000
353.041; -109.650; -814.000; -824.000
353.174;  -72.000; -551.000; -424.000
353.307;  -99.800; -753.000; -764.000
353.440;   59.750;  541.000;  453.000
353.573; -117.700; -957.000;-1008.000
353.706;  -66.150; -384.000; -558.000
353.839;  -24.000; -264.000; -220.000
353.971; -105.150; -657.000; -512.000
354.104;  -97.875; -896.000; -835.000
354.237;  -22.975; -627.000; -662.000
354.370;  -93.325; -846.000; -879.000
354.503; -184.150;-1231.000;-1308.000
354.636;  -43.475; -529.000; -348.000
354.769; -133.450; -937.000; -860.000
354.902;  -27.850; -230.000; -139.000
355.034;  -24.550; -164.000; -220.000
355.167;  -23.050; -262.000; -162.000
355.300;  -68.850;-1061.000; -880.000
355.433;  991.950;  -71.000;  -14.000
355.565; 1572.825; -402.000; -384.000
355.698;  384.350; -356.000; -296.000
355.831;   13.425; -882.000; -801.000
355.964;   52.050; -285.000; -170.000
356.096;  -92.600; -856.000; -843.000
356.229;  -16.925; -523.000; -530.000
356.362;  331.175; -373.000; -266.000
356.494;  607.950; -229.000; -162.000
356.627;  450.125;  269.000;  377.000
356.760;  670.600;  120.000;   53.000
356.892;  990.375; -286.000; -601.000
357.025;  624.825;  403.000;  389.000
357.157;  589.700; -167.000; -179.000
357.290;  700.325; -856.000; -713.000
357.423;  193.450; -667.000; -556.000
357.555;  105.550; -217.000; -228.000
357.688;  110.150; -483.000; -364.000
357.820;  447.550; -870.000; -877.000
357.953; 3637.150; -563.000; -589.000
358.085;  781.550; -632.000; -612.000
358.218; 1058.175;-1131.000; -932.000
358.350;  191.300;  -58.000;  312.000
358.483; -115.500;-1300.000;-1187.000
358.615;  -36.450;-1182.000;-1078.000
358.747;  -68.150;-1187.000;-1058.000
358.880;    8.075; -810.000; -744.000
359.012;   -5.875; -376.000; -202.000
359.145;  -57.600; -480.000; -511.000
359.277;   62.600; -962.000; -913.000
359.409; 2961.350;  536.000;  231.000
359.542;  815.525; -738.000; -688.000
359.674;   45.375;   46.000;   13.000
359.806;  -63.900; -565.000; -438.000
359.939;  -41.300; -617.000; -516.000
360.071;  -11.075; -583.000; -579.000
360.203;  -23.150; -411.000; -364.000
360.335;   44.450;  164.000;  -16.000
360.468;  187.600; -249.000; -307.000
360.600; 2443.650; -547.000; -454.000
360.732; 2964.600; -546.000; -423.000
360.864;  438.025;-1216.000;-1044.000
360.996;  261.950; -516.000; -554.000
361.129;   38.900; -389.000; -598.000
361.261;   13.950;  110.000; -113.000
361.393;  -37.625; -252.000; -214.000
361.525;   24.575;   94.000;  244.000
361.657;  -57.725; -821.000; -703.000
361.789;    6.525; -139.000; -155.000
361.921;  198.800; -642.000; -593.000
362.053;  224.600;  524.000;  541.000
362.185;   38.650;  288.000;   72.000
362.318;  -95.575; -709.000; -705.000
362.450;   87.850;  294.000;  444.000
362.582;   71.075; -913.000; -870.000
362.714;  -45.275; -353.000; -332.000
362.846;  -95.075; -606.000; -490.000
362.978; -149.275; -941.000; -811.000
363.109;   22.200; -161.000; -260.000
363.241;  403.725; -739.000; -749.000
363.373;  436.375; -649.000; -564.000
363.505;  682.075; -186.000;  -91.000
363.637;  171.100; -787.000; -601.000
363.769; -121.700;-1067.000;-1080.000
363.901;  -75.550; -596.000; -654.000
364.033; -123.325;-1103.000;-1062.000
364.165;  -10.375; -283.000; -283.000
364.296;   58.100; -316.000; -177.000
364.428;   73.875;-1344.000;-1220.000
364.560;  -63.350; -679.000; -661.000
364.692;  -70.600; -738.000; -835.000
364.824;  220.850; -588.000; -456.000
364.955;  426.125; -402.000; -564.000
365.087;  961.150;-1097.000; -852.000
365.219;   37.225; -686.000; -816.000
365.351;  -68.725; -526.000; -572.000
365.482;   37.625;  300.000;  240.000
365.614;  -51.625; -402.000; -314.000
365.746; -100.275; -729.000; -752.000
365.877; -103.575; -706.000; -672.000
366.009;  256.075;  -35.000;  -62.000
366.141;  -88.375;-1249.000;-1134.000
366.272; -112.500; -803.000; -719.000
366.404; -107.350;-1005.000; -874.000
366.535;  -14.025; -139.000;  -12.000
366.667; -115.700; -644.000; -649.000
366.799;   35.225;  353.000;  203.000
366.930; -120.000; -862.000; -996.000
367.062;  122.325; -639.000; -613.000
367.193;  172.475; -872.000; -842.000
367.325;  -64.100; -580.000; -684.000
367.456;   26.200; -246.000;   31.000
367.588;  158.100; -371.000; -318.000
367.719;   23.700;  -44.000;  -45.000
367.851;  -36.875; -222.000; -241.000
367.982;  -50.825; -875.000; -732.000
368.113;   83.625; -475.000; -358.000
368.245; -118.975; -960.000; -841.000
368.376;  -38.675; -254.000; -302.000
368.508;  -46.775; -188.000; -263.000
368.639; -134.050;-1166.000;-1034.000
368.770;  -36.925; -670.000; -589.000
368.902;  -61.100; -836.000; -926.000
369.033; -111.725; -906.000; -855.000
369.164;  -49.625; -720.000; -653.000
369.296; -105.550; -452.000; -601.000
369.427;  -15.250; -209.000; -144.000
369.558;  -64.075; -593.000; -377.000
369.689;  -90.025; -721.000; -569.000
369.821; -136.600; -951.000; -845.000
369.952;  -27.275;   42.000; -108.000
370.083;  -60.325; -229.000; -108.000
370.214;  -86.450; -735.000; -650.000
370.345;  -17.500;   65.000;   81.000
370.477;  -97.925; -810.000; -790.000
370.608;  209.075; -328.000; -264.000
370.739;  -54.175;-1233.000;-1292.000
370.870;  -53.850;-1102.000; -923.000
371.001;   66.575; -378.000; -467.000
371.132;  -79.475; -754.000; -735.000
371.263;  -35.100;  -42.000; -148.000
371.394; -143.075; -841.000; -748.000
371.525;   30.775;  345.000;  225.000
371.657;  -95.575; -808.000; -670.000
371.788;   66.075;  103.000;  199.000
371.919;  167.700; -384.000; -304.000
372.050; 3490.300;  -91.000; -156.000
372.181; 1079.125; -188.000; -294.000
372.311;  343.325;   42.000; -127.000
372.442;   20.875; -457.000; -451.000
372.573;  -32.775; -444.000; -340.000
372.704; -118.875;-1008.000; -980.000
372.835;   77.600; -228.000; -289.000
372.966;  -62.975; -646.000; -554.000
373.097;  -79.550; -575.000; -711.000
373.228;  -44.450; -717.000; -542.000
373.359;  103.400; -824.000; -536.000
373.490;  897.050; -881.000; -727.000
373.620; 1117.975;-1001.000; -803.000
373.751; 1681.550; -332.000; -396.000
373.882;  762.950; -663.000; -733.000
374.013;   61.875; -449.000; -262.000
374.143;  -37.450; -581.000; -659.000
374.274; -102.875; -987.000; -908.000
374.405;  154.150; -388.000; -276.000
374.536;  411.950; -526.000; -387.000
374.666; 1080.150; -759.000; -807.000
374.797;  220.450; -817.000; -868.000
374.928;  801.625; -710.000; -560.000
375.058;  859.875; -535.000; -500.000
375.189;   65.875;  -59.000;  -93.000
375.320; -113.050; -928.000;-1034.000
375.450;  -43.400; -625.000; -616.000
375.581;  -44.075; -526.000; -436.000
375.712;  -40.075; -574.000; -250.000
375.842;  270.725; -438.000; -415.000
375.973;  216.775; -554.000; -513.000
376.103;  -53.075; -665.000; -648.000
376.234;  -89.525; -531.000; -552.000
376.364;  -51.475; -944.000; -867.000
376.495;  308.775;  925.000;  529.000
376.625;  -10.675; -472.000; -485.000
376.756;   37.700; -709.000; -678.000
376.886;  -72.675;-1178.000;-1026.000
377.017;   54.050;-1048.000;-1061.000
377.147;  382.950; -786.000; -782.000
377.278;   62.375;  174.000;  228.000
377.408; -128.075; -801.000; -815.000
377.538; -122.925; -707.000; -693.000
377.669;  -70.225; -537.000; -613.000
377.799;  -96.075; -645.000; -635.000
377.929;  -65.100; -610.000; -428.000
378.060; -135.975; -781.000; -847.000
378.190;  -55.550; -726.000; -531.000
378.320;  -50.125; -401.000; -406.000
378.451;  -12.475; -131.000;  -22.000
378.581;  -19.175;  -67.000; -110.000
378.711;  149.900; 1035.000;  866.000
378.841;  -26.500; -533.000; -675.000
378.972;  -67.175; -871.000; -751.000
379.102;  -15.250; -652.000; -579.000
379.232;  -33.825; -126.000;  -73.000
379.362; -113.850;-1001.000; -885.000
379.492;   -0.625; -373.000; -424.000
379.623;   80.575;    0.000;  111.000
379.753; -104.475;-1107.000; -974.000
379.883;  182.225;   59.000;  156.000
380.013;    8.525;-1081.000;-1017.000
380.143; -108.600;-1097.000;-1056.000
380.273; -112.050; -985.000; -861.000
380.403;  -20.225; -344.000; -257.000
380.533;  -31.125; -651.000; -664.000
380.663;   56.250;  173.000;  128.000
380.793;  -98.700;-1027.000;-1074.000
380.923;  -25.500; -103.000;  -34.000
381.053;  -95.500; -613.000; -623.000
381.183;  -42.125; -106.000; -248.000
381.313;   13.625; -656.000; -470.000
381.443;   17.275; -692.000; -473.000
381.573;  189.050; -402.000; -409.000
381.703;  251.325;-1249.000;-1095.000
381.833; -147.325;-1454.000;-1336.000
381.963;   91.050; -134.000;  -87.000
382.093; 1347.650; -925.000; -909.000
382.223;  445.175; -713.000; -602.000
382.353;  -38.150; -801.000; -608.000
382.482;  335.100;-1091.000; -964.000
382.612;  744.700; -872.000; -644.000
382.742;  419.600; -695.000; -622.000
382.872;  253.125; -565.000; -551.000
383.002;   65.975;  347.000; -132.000
383.131;  -22.750; -226.000; -160.000
383.261;  -38.600; -706.000; -768.000
383.391;  282.300; -552.000; -377.000
383.521; 3341.850;  451.000;  263.000
383.650;  846.400; -947.000; -904.000
383.780;   -6.925; -783.000; -656.000
383.910;   94.275;  880.000;  802.000
384.039;   16.425; -794.000; -656.000
384.169;  198.550;-1205.000;-1017.000
384.299;  -35.225; -650.000; -662.000
384.428;  -87.700; -764.000; -680.000
384.558;  -54.550; -308.000; -275.000
384.687;  -49.925; -414.000; -334.000
384.817;   -0.350;   75.000;   -2.000
384.947;   16.850; -234.000; -141.000
385.076;  261.150;  982.000;  912.000
385.206;   84.025;  369.000;  480.000
385.335;  -39.050; -549.000; -417.000
385.465;  -86.950; -655.000; -663.000
385.594;  117.000;  -53.000;  -44.000
385.724;  382.100; -868.000; -838.000
385.853;  100.775; -296.000; -270.000
385.982; 1264.725; -743.000; -787.000
386.112; 2092.475;-1052.000; -871.000
386.241;  143.600; -307.000; -312.000
386.371;    7.800; -174.000;  -87.000
386.500;   -9.175; -825.000; -789.000
386.629;   15.375; -874.000; -817.000
386.759;   64.750;  -43.000;   68.000
386.888;  -21.225; -170.000; -250.000
387.017;  -90.750; -648.000; -620.000
387.147;  -93.050; -771.000; -798.000
387.276;    1.900; -410.000; -397.000
387.405;   -6.600; -398.000; -342.000
387.535;  -49.625; -452.000; -361.000
387.664;  -68.200; -692.000; -620.000
387.793;   48.675; -198.000; -113.000
387.922;  497.775;  255.000;  200.000
388.052;    7.400; -576.000; -423.000
388.181;   -5.850; -342.000; -472.000
388.310;  -29.525; -889.000; -710.000
388.439;  -51.125; -749.000; -742.000
388.568;  170.375;  365.000;  244.000
388.697;  958.275; -756.000; -653.000
388.826;  214.700; -768.000; -666.000
388.956;   47.375; -285.000; -307.000
389.085;  -35.800; -347.000; -287.000
389.214; -115.625; -842.000; -872.000
389.343;  -72.775; -645.000; -413.000
389.472;  400.125;  126.000;  149.000
389.601;  513.925;   91.000;    0.000
389.730;    2.900; -568.000; -687.000
389.859;   54.150;  226.000;   46.000
389.988;  164.800; -423.000; -408.000
390.117;  130.750; -168.000; -146.000
390.246;  -17.650; -331.000; -320.000
390.375;  105.900; -673.000; -626.000
390.504;  -59.850; -703.000; -621.000
390.633; -107.050; -672.000; -726.000
390.761;  -67.350; -732.000; -645.000
390.890;    8.825;   -4.000; -130.000
391.019;  -43.375; -421.000; -441.000
391.148; -130.075; -826.000; -855.000
391.277;  -91.675; -576.000; -493.000
391.406; -101.250; -821.000; -805.000
391.534;    3.400;  574.000; -301.000
391.663;  -64.250; -583.000; -645.000
391.792;  -86.600; -673.000; -701.000
391.921;   76.400;   -3.000;   15.000
392.050;  151.375; -287.000; -228.000
392.178;  -51.675;-1206.000;-1061.000
392.307;  127.775; -758.000; -712.000
392.436;   65.875; -427.000; -641.000
392.564;   13.725;  166.000;   -6.000
392.693;  -90.950; -860.000; -682.000
392.822;  153.225; -529.000; -534.000
392.950;   78.425; -880.000; -714.000
393.079;  283.700; -188.000; -328.000
393.208;   21.375; -488.000; -511.000
393.336;  -17.050; -170.000; -145.000
393.465;  -39.575; -317.000; -199.000
393.593;  -11.600;   62.000;   79.000
393.722; -155.250;-1121.000; -916.000
393.850;  -39.275; -188.000;  -61.000
393.979; -155.650; -926.000; -805.000
394.107;  -69.800; -517.000; -537.000
394.236;  -26.500; -570.000; -507.000
394.364;  217.325;  383.000;  206.000
394.493;  379.750; -911.000; -767.000
394.621;  -15.550; -955.000; -916.000
394.750;  740.125; -873.000; -923.000
394.878; 2981.725; -247.000; -149.000
395.007; 4265.750; -721.000; -807.000
395.135;  336.675; -790.000; -721.000
395.263;  -86.625;-1038.000;-1040.000
395.392;  -15.100;  -25.000; -107.000
395.520; -132.400; -818.000; -679.000
395.648;  -99.250; -865.000; -915.000
395.777;  -19.175; -366.000; -405.000
395.905;  -63.450; -449.000; -564.000
396.033;    8.725;  217.000;  172.000
396.162;  575.775; -399.000; -453.000
396.290;  532.300;  -17.000;   -2.000
396.418;   89.025; -555.000; -514.000
396.546;  -82.175; -571.000; -466.000
396.674; -119.100; -850.000; -878.000
396.803;   20.675;  -72.000;  -23.000
396.931;   64.500; -179.000; -199.000
397.059;   30.800;-1026.000; -989.000
397.187; -118.525;-1026.000; -975.000
397.315; -130.925; -884.000; -649.000
397.443; -105.800; -592.000; -443.000
397.572;  -99.525; -578.000; -424.000
397.700;  -31.675; -607.000; -614.000
397.828;    4.225;  120.000;  -90.000
397.956;  -51.100; -508.000; -478.000
398.084;  -65.925; -767.000; -626.000
398.212;    9.800;  137.000;  124.000
398.340;   -6.950;  -56.000;  159.000
398.468;   13.675; -390.000; -169.000
398.596; -140.850; -993.000; -953.000
398.724; -120.800; -762.000; -767.000
398.852; -170.850;-1024.000; -976.000
398.980;  -74.000; -560.000; -560.000
399.108;  -53.075; -982.000; -735.000
399.236;   15.350;   13.000;    8.000
399.363;   -1.825;  222.000;  196.000
399.491;  -79.400; -404.000; -398.000
399.619; -127.575; -829.000; -800.000
399.747; -109.775; -859.000; -771.000
399.875;   68.125;  220.000;  234.000
400.003;  -46.700; -359.000; -284.000
400.130;  -87.950; -421.000; -341.000
400.258;  -38.700;  -83.000;   38.000
400.386;  -60.425; -352.000; -168.000
400.514;  -55.850; -526.000; -587.000
400.641; -107.450; -928.000; -802.000
400.769; -145.575; -979.000; -888.000
400.897; -121.075; -838.000; -793.000
401.025;  -21.325; -166.000; -152.000
401.152;  -10.975;  220.000;   38.000
401.280; -100.200; -430.000; -429.000
401.408; -122.225; -712.000; -576.000
401.535; -118.650; -735.000; -758.000
401.663; -186.100;-1134.000;-1054.000
401.790;  -94.050; -514.000; -525.000
401.918;   37.500;  436.000;  405.000
402.046;  -27.950;  134.000;  122.000
402.173;  -41.400;  -18.000;    7.000
402.301;  -84.625; -519.000; -397.000
402.428;   24.700;  528.000;  383.000
402.556; -151.850;-1188.000; -913.000
402.683;  -42.400;  -20.000;   -1.000
402.811;  -39.775;  -37.000; -206.000
402.938;  -19.950;   20.000;   27.000
403.066;  164.475; -574.000; -558.000
403.193;  315.050;  299.000;  239.000
403.321;  251.050; -396.000; -574.000
403.448;  304.325;   83.000;   27.000
403.575;  125.400;  -90.000;  -46.000
403.703; -101.350; -732.000; -557.000
403.830;  -72.675; -531.000; -496.000
403.957; -136.225;-1117.000;-1023.000
404.085;    4.125;  -61.000; -172.000
404.212;   82.775;  -50.000;   63.000
404.339;  270.975; -566.000; -306.000
404.467; 5963.225; -612.000; -524.000
404.594; 4054.325; -287.000; -227.000
404.721;  956.175; -869.000; -764.000
404.848;   81.300; -113.000; -202.000
404.976; -112.175; -856.000; -783.000
405.103;  -20.325;  -14.000;  -82.000
405.230;   -7.725;  190.000;  226.000
405.357;   -0.700;  117.000;   44.000
405.484;  271.200;  -49.000;    5.000
405.612;   55.875; -548.000; -563.000
405.739;  -73.375; -488.000; -243.000
405.866;   74.425;  669.000;  385.000
405.993;  -52.350; -398.000; -102.000
406.120; -144.550; -801.000; -887.000
406.247;  -71.675; -323.000; -342.000
406.374;  406.250;  540.000;  629.000
406.501;  104.975; -632.000; -702.000
406.628;  -84.800; -621.000; -589.000
406.755;  -98.700; -803.000; -620.000
406.882;  -55.325; -228.000; -277.000
407.009; -108.375; -719.000; -628.000
407.136;   30.350; -480.000; -401.000
407.263;  132.225; -939.000; -829.000
407.390;  -68.900; -692.000; -614.000
407.517; -174.975;-1139.000;-1187.000
407.644;  -77.225; -332.000; -256.000
407.771;  -67.175; -249.000; -287.000
407.898;   -2.200;  168.000;  328.000
408.025;  -74.500; -421.000; -313.000
408.151;  -18.725;   82.000;  153.000
408.278;  -71.600; -267.000; -216.000
408.405; -124.900; -931.000; -899.000
408.532;  -79.650; -549.000; -542.000
408.659; -128.625; -677.000; -648.000
408.785; -188.200;-1298.000;-1170.000
408.912;  -91.225; -412.000; -296.000
409.039; -111.175; -610.000; -686.000
409.166; -119.250; -591.000; -555.000
409.292; -111.450; -571.000; -534.000
409.419; -131.725; -665.000; -649.000
409.546;  -94.275; -431.000; -192.000
409.672; -114.700; -713.000; -545.000
409.799;  -38.350;  -36.000;   34.000
409.926;  -55.500; -180.000; -179.000
410.052; -177.775;-1127.000;-1091.000
410.179;  -65.875; -368.000; -392.000
410.305;  -84.550; -375.000; -493.000
410.432;  -68.900; -220.000; -333.000
410.558;  -95.850; -305.000; -380.000
410.685; -121.675; -688.000; -431.000
410.812; -100.000; -409.000; -588.000
410.938; -146.900; -964.000; -808.000
411.065; -108.525; -671.000; -645.000
411.191;  -29.700; -189.000; -174.000
411.317; -115.250; -823.000; -742.000
411.444;  -68.225; -317.000; -246.000
411.570;  -66.725; -339.000; -294.000
411.697; -129.325; -758.000; -752.000
411.823; -166.125; -989.000; -999.000
411.949;  -40.250;  -56.000;   17.000
412.076; -113.800; -539.000; -519.000
412.202; -116.950; -758.000; -757.000
412.329; -134.250; -798.000; -752.000
412.455; -117.100; -821.000; -657.000
412.581;  -27.900;  -15.000;  172.000
412.707;  -89.675; -540.000; -457.000
412.834;    9.400;  156.000;  219.000
412.960;  -88.425; -785.000; -784.000
413.086; -102.375; -743.000; -701.000
413.212;  123.425;  604.000;  578.000
413.339;  -64.150; -685.000; -701.000
413.465;   -2.075; -364.000; -310.000
413.591;  -96.975; -757.000; -474.000
413.717;  -56.300; -358.000; -366.000
413.843; -141.375; -839.000; -861.000
413.969;  -69.000;  -47.000; -292.000
414.096; -100.975; -679.000; -679.000
414.222;  -21.300;  -33.000;   85.000
414.348;  -32.350; -652.000; -385.000
414.474;   68.875;   38.000;  -52.000
414.600;  -23.925; -126.000; -144.000
414.726;  -27.575;  -96.000;  -55.000
414.852;  -62.800; -365.000; -342.000
414.978;   24.525;  104.000;  -18.000
415.104;   22.925;   38.000;   80.000
415.230;   12.900; -329.000; -330.000
415.356;   36.025; -409.000; -514.000
415.482;  201.725;   13.000;  -35.000
415.608;  279.575; -247.000; -323.000
415.734;  974.275;   67.000;   38.000
415.860;20358.825; -875.000; -767.000
415.986;15958.875; -685.000; -607.000
416.111; 1407.600; -798.000; -652.000
416.237;  282.800; -424.000; -571.000
416.363; 1114.175; -765.000; -733.000
416.489; 4464.400; -324.000; -251.000
416.615;  534.125; -707.000; -742.000
416.741;  -29.275; -677.000; -784.000
416.866;  -90.650; -673.000; -736.000
416.992; -123.225; -801.000; -818.000
417.118;  -26.225;  -41.000;  -80.000
417.244;  -81.150; -798.000; -531.000
417.369;  -81.350; -801.000; -612.000
417.495;  -21.125; -325.000; -254.000
417.621;  -73.150;-1015.000; -803.000
417.746;  -12.950; -579.000; -572.000
417.872;   50.175; -254.000; -144.000
417.998;   54.150; -515.000; -530.000
418.123; 1015.175;-1073.000; -845.000
418.249; 5721.050; -512.000; -601.000
418.374;  896.950; -916.000; -824.000
418.500;  133.250; -383.000; -482.000
418.626;  107.175;   70.000;  -59.000
418.751;  125.150; -549.000; -448.000
418.877;  206.500; -637.000; -643.000
419.002; 1778.225; -688.000; -560.000
419.128;13159.675; -930.000; -721.000
419.253; 3492.050; -967.000; -837.000
419.379;  451.000; -391.000; -338.000
419.504;  402.750;  325.000;  415.000
419.629;  555.375; -393.000; -212.000
419.755; 3529.300; -317.000; -254.000
419.880;22404.875;  -98.000;   67.000
420.006;12028.000; -280.000; -221.000
420.131;31354.100; -662.000; -775.000
420.256; 4848.100; -315.000; -316.000
420.382;  642.925; -665.000; -687.000
420.507;   72.600; -649.000; -778.000
420.632;  117.775; -337.000; -339.000
420.758;  200.800; -251.000; -425.000
420.883;  -74.450; -876.000; -672.000
421.008; -102.475; -775.000; -619.000
421.133;  -93.625; -509.000; -467.000
421.259;  -52.725; -325.000; -259.000
421.384; -116.050; -834.000; -693.000
421.509;  -65.900;-1052.000; -862.000
421.634;  983.625; -936.000; -820.000
421.759;  463.300; -359.000; -327.000
421.885;  -61.600; -717.000; -656.000
422.010;  -99.350; -673.000; -542.000
422.135; -148.000; -695.000; -727.000
422.260;   32.625;  340.000;  280.000
422.385;  -34.500;   12.000;  -98.000
422.510;    0.550;  151.000;  -26.000
422.635;   12.000;  -87.000;  -43.000
422.760;   81.875; -766.000; -791.000
422.885;   62.875;  -57.000;  -80.000
423.010;  -45.275; -112.000; -169.000
423.135; -102.100; -481.000; -561.000
423.260;  -34.100; -150.000; -245.000
423.385;   67.600;  476.000;  222.000
423.510;   25.025;   71.000;  -22.000
423.635;   75.875;  133.000;   45.000
423.760;   39.700;  383.000;  328.000
423.885;   53.050;  336.000;  391.000
424.010;   -2.075;  -68.000;  -13.000
424.135;  -31.900;    5.000;  -33.000
424.259;  -83.975; -654.000; -457.000
424.384;  -70.875; -279.000; -272.000
424.509;  -42.500; -260.000; -186.000
424.634;  -88.925; -761.000; -623.000
424.759;  -29.425; -688.000; -544.000
424.883;  -12.925; -506.000; -527.000
425.008;  155.475; -502.000; -410.000
425.133; 2066.825; -679.000; -653.000
425.258; 1054.050; -517.000; -381.000
425.382;  945.850; -867.000; -774.000
425.507; 2599.375; -487.000; -543.000
425.632;  452.600; -802.000; -663.000
425.756;  479.075; -256.000; -146.000
425.881; 6563.300; -831.000; -857.000
426.006;19166.675; -604.000; -355.000
426.130; 3213.050; -696.000; -508.000
426.255;  414.325; -611.000; -491.000
426.379;  182.350; -189.000; -577.000
426.504;  377.500;  660.000;  544.000
426.629; 4089.950; -519.000; -466.000
426.753; 3061.400;   64.000;  -46.000
426.878;  361.775; -252.000; -288.000
427.002;  161.525; -651.000; -668.000
427.127; 1597.175;  -35.000; -158.000
427.251;11849.000;  372.000;  401.000
427.375; 3692.725; -191.000; -173.000
427.500; 2214.550; -616.000; -610.000
427.624;  793.450; -234.000; -400.000
427.749;   75.950; -216.000; -225.000
427.873;  -42.175; -499.000; -412.000
427.997;  -49.675; -222.000; -230.000
428.122;   64.150;  795.000;  703.000
428.246;   68.000;  433.000;  434.000
428.371; -123.475; -869.000; -773.000
428.495; -110.275; -624.000; -646.000
428.619;  -44.750; -186.000; -117.000
428.743;    4.725;   65.000;  132.000
428.868;    5.800; -732.000; -643.000
428.992; 1317.025; -219.000; -326.000
429.116;  565.300; -329.000; -357.000
429.240;  258.150;  419.000;  426.000
429.365;  -19.750; -454.000; -574.000
429.489;  -48.850; -638.000; -647.000
429.613;   23.400; -236.000; -177.000
429.737;   36.225; -563.000; -432.000
429.861;  274.000; -247.000; -133.000
429.985; 5551.475; -425.000; -305.000
430.109; 6674.475; -770.000; -908.000
430.234;  795.025;   76.000;  -50.000
430.358;   77.425; -250.000; -160.000
430.482;  -73.025; -672.000; -564.000
430.606;  -65.950; -655.000; -375.000
430.730;   -5.725; -437.000; -388.000
430.854;  111.175; -909.000; -835.000
430.978;  -87.825; -795.000; -764.000
431.102;  -92.525; -499.000; -422.000
431.226; -127.375; -874.000; -815.000
431.350;   21.925;  345.000;  422.000
431.474;  -79.100; -661.000; -373.000
431.597; -154.350;-1060.000; -848.000
431.721;  -82.275; -276.000; -267.000
431.845; -137.100; -704.000; -472.000
431.969;  -92.700; -304.000; -349.000
432.093;  -78.600; -395.000; -317.000
432.217;  -24.500;   32.000;   82.000
432.341;  -96.225; -523.000; -518.000
432.464;  -12.225;   96.000;   40.000
432.588;  167.525; -401.000; -329.000
432.712;   88.275;  -52.000;  -52.000
432.836;   42.125;  213.000;  263.000
432.959;  -31.425; -372.000; -311.000
433.083;   83.075;   11.000;    2.000
433.207;  363.700;  285.000;  930.000
433.330; 5106.200; -391.000; -200.000
433.454; 6783.300; -654.000; -638.000
433.578; 3847.625;  583.000;  278.000
433.701;  759.725; -623.000; -675.000
433.825;  124.425; -292.000; -299.000
433.949;  140.100;   28.000;  -72.000
434.072;   50.625; -410.000; -323.000
434.196;  -31.475; -309.000; -117.000
434.319; 3584.850;25482.000;25124.000
434.443;  673.400; -656.000; -603.000
434.566; 2807.625;  281.000;   62.000
434.690;  522.400; -637.000; -383.000
434.813;   55.800; -251.000; -173.000
434.937;  -83.750; -569.000; -696.000
435.060;  -57.050; -423.000; -332.000
435.184;  228.325; -492.000; -217.000
435.307;  161.350;  159.000;  102.000
435.431;  -22.200;  -40.000;   24.000
435.554;  -88.875; -399.000; -240.000
435.677;  -96.150; -350.000; -258.000
435.801;  -51.675;  -25.000;   49.000
435.924;  -29.825;    1.000;  -67.000
436.048; -132.100;-1019.000; -732.000
436.171;  -78.875; -240.000;  -66.000
436.294;  -32.400; -248.000; -229.000
436.417;   94.125; -963.000; -849.000
436.541;  -77.350; -814.000; -840.000
436.664;  -54.575; -242.000; -316.000
436.787;  -29.375;   13.000;  113.000
436.910; -122.050; -792.000; -422.000
437.034;    0.875;  142.000;  143.000
437.157;   45.075;  -11.000;    0.000
437.280;  -59.275; -392.000; -292.000
437.403; -114.450; -982.000; -869.000
437.526;  498.175; -903.000; -865.000
437.649; 1985.825; -505.000; -332.000
437.772;  301.125; -692.000; -540.000
437.896;   97.425;  700.000;  544.000
438.019; -108.975; -758.000; -503.000
438.142;  -81.150; -596.000; -506.000
438.265;  -37.775; -639.000; -670.000
438.388;  498.750; -520.000; -410.000
438.511;   81.050; -597.000; -394.000
438.634;  -59.950; -247.000; -125.000
438.757; -134.475; -693.000; -619.000
438.880;  -39.100;  -34.000;  -57.000
439.003;  -72.350; -417.000; -437.000
439.126;  -73.875; -287.000; -167.000
439.248;  -72.750;  -98.000; -139.000
439.371;  -73.075;    9.000;  -53.000
439.494;    2.925;  510.000;  439.000
439.617;  -58.650;   65.000;  -88.000
439.740; -174.775; -968.000; -816.000
439.863; -152.300; -755.000; -595.000
439.986; -126.800; -476.000; -431.000
440.108;  -61.675; -161.000; -112.000
440.231; -161.975; -950.000; -836.000
440.354;  -56.500;  -64.000; -150.000
440.477;   11.250; -566.000; -542.000
440.599;   -8.850; -200.000; -225.000
440.722; -117.425; -709.000; -586.000
440.845;   54.025;  751.000;  928.000
440.968; -110.025; -415.000; -311.000
441.090;  -70.025; -199.000;  -33.000
441.213; -180.525;-1021.000; -825.000
441.336;  -55.725; -159.000;   -5.000
441.458;  -86.700; -549.000; -396.000
441.581;  -94.800; -628.000; -629.000
441.703;  -86.825; -152.000;   13.000
441.826; -123.050; -557.000; -400.000
441.948;  -53.425;   56.000;   51.000
442.071;    9.425;  555.000;  424.000
442.193; -119.125; -531.000; -485.000
442.316;    8.100;  152.000;   97.000
442.438;   45.275; -233.000;  -10.000
442.561;   51.875;  272.000;  262.000
442.683;  432.375; -809.000; -522.000
442.806; 1057.650;   -8.000;   74.000
442.928;   16.450; -859.000; -604.000
443.051;  -88.950; -577.000; -373.000
443.173;  -91.800; -341.000; -339.000
443.295;  -94.075; -263.000; -371.000
443.418;  -89.950; -321.000;  -29.000
443.540;  -30.725; -106.000;   -4.000
443.662; -121.800; -563.000; -465.000
443.785;  -21.400;  335.000;  199.000
443.907; -103.575; -362.000; -208.000
444.029; -132.250; -767.000; -494.000
444.152; -150.300; -644.000; -554.000
444.274;  -46.725;  -18.000;  -24.000
444.396; -116.475; -461.000; -221.000
444.518; -142.850; -691.000; -454.000
444.640; -109.000; -268.000; -111.000
444.763;  -19.400;  388.000;  249.000
444.885; -112.050; -432.000; -392.000
445.007;  -33.375;   35.000;   86.000
445.129; -113.825; -610.000; -515.000
445.251; -116.550; -372.000; -439.000
445.373; -132.250; -537.000; -386.000
445.495;    2.125;  242.000;  350.000
445.617;   32.650;  853.000;  753.000
445.739;  -77.475; -215.000;  -97.000
445.861;  -42.225; -245.000; -112.000
445.984;  -45.975; -267.000; -101.000
446.105;  147.175; -418.000; -251.000
446.227;  534.125; -176.000;  -19.000
446.349;   -2.150; -358.000; -249.000
446.471; -107.200; -615.000; -448.000
446.593;  -69.425; -316.000;   19.000
446.715;   -5.050;  -67.000;   41.000
446.837;   52.175;  697.000;  832.000
446.959;  -99.750; -457.000; -478.000
447.081; -135.700; -628.000; -518.000
447.203;   57.300;  862.000;  834.000
447.325;  -98.750; -270.000;   42.000
447.446;   -9.825;  286.000;  530.000
447.568; -164.375; -921.000; -803.000
447.690;  -84.425; -236.000; -245.000
447.812; -144.600; -798.000; -519.000
447.933;  -44.650;  155.000;  127.000
448.055;  -67.400; -306.000; -261.000
448.177;  109.500;   31.000;   79.000
448.299;   68.925; -935.000; -727.000
448.420;   27.625;  -25.000;  159.000
448.542;  -70.125;   -3.000;   33.000
448.664;  -28.725;  109.000;  322.000
448.785;  -45.275;  265.000;   83.000
448.907;  -84.050; -614.000; -353.000
449.028;  -50.500; -771.000; -471.000
449.150;   51.575;  492.000;  589.000
449.272; -183.625;-1044.000; -913.000
449.393;   19.900;  612.000;  694.000
449.515; -148.900; -634.000; -581.000
449.636;  -80.225; -264.000; -155.000
449.758;   57.625;  763.000;  622.000
449.879;  -96.275; -498.000; -396.000
450.001;  -88.125; -149.000;  -49.000
450.122;  -56.975;  -95.000;  162.000
450.244;  -28.600;   37.000;  364.000
450.365;  -93.575; -495.000; -301.000
450.486;  -36.300;   80.000;  268.000
450.608;   -0.675;  393.000;  326.000
450.729;   58.300;  578.000;  645.000
450.850;    8.950; -574.000; -466.000
450.972;  757.850; -552.000; -389.000
451.093; 5086.825;  190.000;  588.000
451.214; 2437.000; -516.000; -337.000
451.336;  443.450;  773.000;  579.000
451.457;   74.625;  264.000;  393.000
451.578;  -49.275; -118.000;  -74.000
451.699; -130.050; -546.000; -540.000
451.821;  -79.800; -284.000;  -50.000
451.942;    4.450;  278.000;  285.000
452.063;   15.450;  228.000;  419.000
452.184;  537.950;  -54.000;  -49.000
452.305; 1163.300;  103.000;  170.000
452.427;  170.400; -549.000; -301.000
452.548;  -33.725;   23.000;   79.000
452.669;  -50.175; -257.000;  -89.000
452.790;  -65.750;    3.000;  -18.000
452.911;   -3.550;  195.000;  259.000
453.032;  -65.100; -289.000;  -60.000
453.153;  -41.950;  -29.000;   81.000
453.274;   59.825;  737.000;  868.000
453.395;  -48.000;  -51.000;  175.000
453.516;  111.150; 1317.000; 1388.000
453.637;  -71.250; -205.000; -150.000
453.758;  -62.225;   15.000;   69.000
453.879; -120.625; -462.000; -250.000
454.000;   63.300; 1086.000;  948.000
454.121; -119.525; -554.000; -326.000
454.242; -115.975; -599.000; -383.000
454.362;  -61.975;  -99.000;  114.000
454.483;  -51.575; -309.000; -229.000
454.604;   55.250;  512.000;  580.000
454.725; -129.300; -627.000; -555.000
454.846; -121.775; -474.000; -406.000
454.967;  -34.000;  230.000;  539.000
455.087;  -50.625;  179.000;  153.000
455.208;    4.475;  554.000;  856.000
455.329;  -67.400;  -22.000;   82.000
455.450;   17.250;  473.000;  633.000
455.570;  -80.250; -234.000; -211.000
455.691;  -56.025;  201.000;  407.000
455.812; -120.225; -270.000;  -92.000
455.932;  -66.925;  107.000;  -97.000
456.053;  -87.625;   36.000;   24.000
456.173; -128.650; -433.000; -355.000
456.294; -129.850; -476.000; -303.000
456.415;  -65.625;  -73.000;   70.000
456.535;  -38.050;  297.000;  273.000
456.656;  -56.100;  132.000;  240.000
456.776;  -73.825;    3.000;  298.000
456.897;  -14.250;  308.000;  513.000
457.017;  -73.600; -153.000;   -3.000
457.138; -109.850; -402.000; -249.000
457.258;  -26.050;  263.000;  224.000
457.379;   -9.125;  509.000;  521.000
457.499;  -36.725;  443.000;  432.000
457.620; -122.200; -407.000; -231.000
457.740; -112.650; -132.000;  -11.000
457.860;  -57.650;   87.000;   44.000
457.981;  -54.575;  132.000;  124.000
458.101;  -70.975;  -89.000;   40.000
458.221;  -18.600;  336.000;  402.000
458.342;  -70.325;   -4.000;  -37.000
458.462;   10.100;  617.000;  352.000
458.582;  -41.625; -302.000; -294.000
458.703;   16.375;  303.000;  154.000
458.823;  -34.775;   22.000;  163.000
458.943;   11.750;  341.000;  467.000
459.063;  -13.000; 1124.000;  192.000
459.183;  -28.225;  328.000;  313.000
459.304;   -7.250;  315.000;  517.000
459.424;  -50.975; -246.000;  -89.000
459.544;  315.850;  388.000;  764.000
459.664;  857.725;  499.000;  506.000
459.784;  336.675; 1004.000; 1175.000
459.904;   56.275;  867.000;  744.000
460.024;   49.525;  867.000;  684.000
460.144;   16.400;  449.000;  554.000
460.264;   -2.750;  515.000;  327.000
460.385;  -84.250; -145.000; -119.000
460.505;   21.425;  905.000;  858.000
460.625;  -83.350;  -17.000;  -68.000
460.745;  -36.425;  396.000;  541.000
460.864;  -54.625;  153.000;  469.000
460.984;    5.600;  499.000;  573.000
461.104;  129.550; 1656.000; 1775.000
461.224;    8.925;  657.000;  650.000
461.344;  -34.175;  431.000;  360.000
461.464;  -37.725;  258.000;  513.000
461.584;  -28.550;  283.000;  466.000
461.704;  -48.425;   58.000;  108.000
461.824;  -64.725;  238.000;  259.000
461.943;  -62.400;  191.000;  130.000
462.063;  -75.800;    2.000;  324.000
462.183;    4.775;  639.000;  717.000
462.303;  100.050; 1678.000; 1230.000
462.422;   24.250;  781.000;  840.000
462.542;  -38.950;  271.000;  391.000
462.662;   40.100;  353.000;  380.000
462.782;  226.850;  833.000;  572.000
462.901;  513.875;  545.000;  717.000
463.021;  283.400; 1702.000; 1638.000
463.141;  -13.425;  337.000;  770.000
463.260;  -19.175;  614.000;  474.000
463.380;    9.175;  902.000;  884.000
463.499;  -41.925;  342.000;  332.000
463.619;  -33.850;  581.000;  559.000
463.738;   96.150; 1644.000;  903.000
463.858;   13.600;  657.000;  811.000
463.978;  -26.200;  542.000;  396.000
464.097;   28.925;  921.000; 1114.000
464.217;   90.700; 1196.000; 1143.000
464.336;  100.250; 1068.000; 1130.000
464.455;  -33.075;  328.000;  659.000
464.575;   40.450;  597.000;  602.000
464.694;  163.750; 1204.000; 1179.000
464.814;  124.000; 1190.000; 1138.000
464.933;   81.725; 1095.000; 1027.000
465.052;   84.250; 1412.000; 1054.000
465.172;   81.900;  922.000;  799.000
465.291;  126.650; 1376.000; 1320.000
465.410;   16.025;  462.000;  735.000
465.530;   79.275; 1355.000; 1310.000
465.649;   64.125; 1209.000; 1273.000
465.768;  145.225; 1673.000; 1508.000
465.888;   50.075;  941.000; 1174.000
466.007;   84.425; 1335.000; 1440.000
466.126;   -4.575;  721.000;  641.000
466.245;   24.975; 1176.000; 1187.000
466.364;   16.150;  950.000; 1060.000
466.484;   54.275; 1024.000; 1213.000
466.603;   46.975; 1101.000; 1222.000
466.722;  112.625; 1490.000; 1769.000
466.841;   63.825; 1151.000; 1401.000
466.960;   29.500; 1069.000;  972.000
467.079;  137.675; 1971.000; 1786.000
467.198;   19.500; 1238.000; 1181.000
467.317;   77.975; 1768.000; 1162.000
467.436;   59.825; 1709.000; 1261.000
467.555;  111.550; 1796.000; 1746.000
467.674;   50.050; 1227.000; 1329.000
467.793;   41.975; 1376.000; 1374.000
467.912;   87.775; 1658.000; 1539.000
468.031;  127.700; 2038.000; 1930.000
468.150;  128.125; 1842.000; 1837.000
468.269;  181.750; 2313.000; 2090.000
468.388;  171.350; 2168.000; 2339.000
468.507;  234.825; 2884.000; 2903.000
468.626;  254.550; 2555.000; 2541.000
468.744;  133.775; 2018.000; 2174.000
468.863;  186.500; 2312.000; 2523.000
468.982;   89.750; 1503.000; 1555.000
469.101;  209.000; 2788.000; 2692.000
469.220;  151.375; 2333.000; 2176.000
469.338;  250.775; 2935.000; 3051.000
469.457;  201.875; 2719.000; 2545.000
469.576;  340.625; 3953.000; 3784.000
469.695;  250.025; 2877.000; 3066.000
469.813;  416.925; 4148.000; 4192.000
469.932;  394.800; 4255.000; 4485.000
470.051;  418.200; 4075.000; 4161.000
470.169;  830.325; 4470.000; 4338.000
470.288; 1499.425; 4700.000; 4809.000
470.406;  917.975; 5059.000; 5194.000
470.525;  620.225; 6101.000; 5787.000
470.644;  634.025; 6847.000; 6794.000
470.762;  829.650; 8397.000; 7873.000
470.881;  910.800; 8651.000; 8464.000
470.999; 1029.750; 9685.000; 9151.000
471.118; 1089.325;11174.000;10711.000

