
Integration time [ms]: 200.000
Averaging Nr. [scans]: 10
Smoothing Nr. [pixels]: 0
Data measured with spectrometer [name]: 2101012U2
Wave   ;Sample   ;Dark     ;Reference
[nm]   ;[counts] ;[counts] ;[counts] 

197.733;  110.300;  516.000;  404.000
197.879; -150.600; -610.000; -634.000
198.025; -103.200; -475.000; -420.000
198.171; -171.900; -602.000; -612.000
198.317;  -66.200; -401.000; -316.000
198.463; -150.800; -655.000; -404.000
198.609;   97.400;  181.000; -137.000
198.755; -171.900; -644.000; -410.000
198.901; -135.900; -505.000; -424.000
199.047; -142.700; -615.000; -488.000
199.193;  -79.600; -230.000; -468.000
199.339;  -75.600; -222.000; -369.000
199.485;   87.500;  330.000;  271.000
199.631;   12.300;  227.000;  310.000
199.777;  -92.700; -466.000; -398.000
199.923; -145.400; -610.000; -424.000
200.069;  -10.400; -141.000;  -58.000
200.215;  134.400;  128.000;  453.000
200.361;  121.300;  243.000;  477.000
200.507; -120.800; -600.000; -373.000
200.653;  -34.500; -371.000; -194.000
200.798; -107.900; -215.000; -125.000
200.944;  -20.700; -146.000;  -41.000
201.090;   38.000;   61.000;  222.000
201.236;    1.600; -116.000; -158.000
201.382;  251.600;  874.000;  903.000
201.528;   10.100;  -58.000;  -48.000
201.674; -121.400; -386.000; -293.000
201.819;  -98.400; -540.000; -439.000
201.965; -173.700; -699.000; -447.000
202.111;  -39.200; -273.000; -226.000
202.257;  -92.900; -250.000; -238.000
202.402;   12.400;   13.000;  -36.000
202.548;  -47.500; -169.000; -116.000
202.694;  169.300;  410.000; -183.000
202.840; -169.100; -603.000; -531.000
202.985; -146.600; -681.000; -639.000
203.131; -233.300; -832.000; -666.000
203.277;  -47.400; -199.000; -262.000
203.423; -134.300; -434.000; -520.000
203.568;  -75.400; -462.000; -237.000
203.714; -137.400; -535.000; -542.000
203.860; -165.400; -682.000; -641.000
204.005;   67.000;  112.000;  167.000
204.151;  169.400;  561.000;  556.000
204.296; -115.100; -354.000; -221.000
204.442; -160.400; -600.000; -547.000
204.588; -181.100; -592.000; -579.000
204.733;   66.600;  178.000;  168.000
204.879; -258.400;-1018.000; -822.000
205.025;   11.100;  -99.000;  126.000
205.170;  -12.200;  -17.000;   94.000
205.316;  148.500;  438.000;  661.000
205.461; -207.900; -698.000; -554.000
205.607;  174.800;  609.000;  665.000
205.752; -168.900; -626.000; -551.000
205.898;  -82.100; -501.000; -391.000
206.043; -149.100; -578.000; -506.000
206.189;  -66.400; -243.000; -285.000
206.334;  170.600;  554.000;  606.000
206.480;  150.200;  409.000;  239.000
206.625; -186.900; -529.000; -552.000
206.771;  -71.200; -451.000; -373.000
206.916;  -61.000; -210.000; -537.000
207.062; -155.400; -545.000; -591.000
207.207; -134.600; -546.000; -443.000
207.353;  122.900;  185.000;  460.000
207.498;   -7.700;  196.000;   85.000
207.643; -137.700; -501.000; -370.000
207.789; -282.700;-1069.000; -910.000
207.934; -192.000; -665.000; -713.000
208.080;  -78.000; -154.000;   66.000
208.225;   -4.300;  -22.000;  -57.000
208.370; -183.600; -727.000; -619.000
208.516; -158.400; -741.000; -487.000
208.661;  -54.400; -127.000;  -69.000
208.806;  -25.500; -165.000; -171.000
208.952; -258.600;-1044.000; -731.000
209.097;  159.900;  378.000;  349.000
209.242;  -97.100; -307.000; -382.000
209.387;  110.600;  392.000;  350.000
209.533; -133.500; -321.000; -350.000
209.678;  197.400;  472.000;  543.000
209.823; -119.100; -408.000; -310.000
209.969; -211.900; -860.000; -757.000
210.114; -211.600; -907.000; -719.000
210.259; -218.200; -939.000; -889.000
210.404;  -24.400; -171.000;  103.000
210.549;   39.600;  108.000;    3.000
210.695;  -29.900;   -3.000;  -95.000
210.840;   65.000;   94.000;   67.000
210.985; -151.000; -484.000; -303.000
211.130;  143.000;  268.000;  406.000
211.275;   40.500;  207.000;  199.000
211.420; -108.300; -300.000; -289.000
211.566; -139.600; -536.000; -489.000
211.711;   65.700;  218.000;  157.000
211.856; -153.900; -545.000; -519.000
212.001;   56.400;  151.000;   44.000
212.146;   14.000;  153.000;   49.000
212.291;  -43.400; -210.000; -186.000
212.436;  -78.600; -280.000;   -6.000
212.581; -178.100; -685.000; -653.000
212.726; -139.400; -487.000; -538.000
212.871;  -97.600; -552.000; -217.000
213.016; -326.900;-1172.000;-1029.000
213.161;  144.300;  406.000;  291.000
213.306; -154.400; -435.000; -577.000
213.451; -205.200; -778.000; -689.000
213.596;  -87.500; -455.000; -347.000
213.741; -101.900; -448.000; -538.000
213.886; -159.300; -498.000; -517.000
214.031;  -50.500; -294.000; -124.000
214.176; -127.200; -408.000; -341.000
214.321;  -53.400; -296.000; -157.000
214.466;  -62.100; -163.000;  -43.000
214.611;    1.800;  -61.000;  -10.000
214.756; -279.600; -948.000; -858.000
214.901;  -33.300; -388.000; -226.000
215.046; -241.400; -797.000; -825.000
215.191;   49.500;  128.000;   35.000
215.336;  -13.700; -157.000;  -19.000
215.480; -136.400; -684.000; -505.000
215.625;  -61.000; -175.000;  -19.000
215.770; -154.200; -757.000; -662.000
215.915;    4.600;   -5.000;  -97.000
216.060;   30.900; -113.000;  -21.000
216.205; -236.000; -731.000; -779.000
216.349; -146.000; -470.000; -533.000
216.494; -269.600; -939.000; -867.000
216.639; -231.400; -823.000; -888.000
216.784; -184.600; -577.000; -525.000
216.929;  141.400;  392.000;  281.000
217.073;  -35.100; -244.000;  -31.000
217.218;    4.300;   78.000;  -47.000
217.363; -181.700; -656.000; -618.000
217.507; -164.800; -623.000; -588.000
217.652; -259.200; -845.000; -874.000
217.797; -168.700; -708.000; -659.000
217.942; -234.600; -856.000; -720.000
218.086;  166.500;  608.000;  539.000
218.231;  -32.800; -174.000;  -26.000
218.376;  -58.800; -337.000; -229.000
218.520;    6.000;  -41.000;   96.000
218.665;  -72.700; -338.000; -204.000
218.810; -102.300; -275.000; -233.000
218.954;   70.600;  201.000;   35.000
219.099; -233.000; -713.000; -963.000
219.243; -143.200; -589.000; -554.000
219.388;  -90.600; -264.000; -136.000
219.532;   -1.100; -116.000; -116.000
219.677; -165.700; -564.000; -521.000
219.822;   33.100;   33.000;   89.000
219.966;   30.200;   17.000;  -99.000
220.111;  -52.900; -328.000;  -40.000
220.255; -212.500; -797.000; -750.000
220.400;  -32.600; -180.000; -146.000
220.544; -164.900; -516.000; -450.000
220.689; -104.000; -422.000; -451.000
220.833;  -47.700; -123.000;  -58.000
220.978;  -72.300; -393.000; -563.000
221.122;   67.800;  319.000;  307.000
221.267; -239.200; -906.000; -837.000
221.411; -139.500; -478.000; -394.000
221.555;  -21.300; -104.000;  -23.000
221.700; -104.700; -329.000; -222.000
221.844;   94.600;  255.000;  272.000
221.989; -121.700; -328.000; -311.000
222.133;  -62.300; -289.000; -307.000
222.277;  -10.900;    5.000;   78.000
222.422;   28.400;  227.000;  113.000
222.566;  -77.800; -381.000; -214.000
222.711; -108.400; -414.000; -479.000
222.855; -185.500; -643.000; -586.000
222.999; -168.800; -642.000; -717.000
223.144;  -61.100; -195.000; -194.000
223.288;  138.700;  423.000;  251.000
223.432;   51.600;  184.000;  230.000
223.576;   41.500;  152.000;  -21.000
223.721;   94.800;  364.000;  273.000
223.865; -115.000; -472.000; -475.000
224.009;  525.700; 1673.000; 1631.000
224.153; -157.300; -660.000; -671.000
224.298; -127.600; -531.000; -489.000
224.442;   -3.400;  -74.000;  -33.000
224.586;  -17.000; -169.000; -106.000
224.730; -189.400; -858.000; -670.000
224.875; -248.900; -739.000; -688.000
225.019;    6.800;  102.000;  188.000
225.163;  150.600;  208.000;  341.000
225.307;   67.100;   97.000;  -91.000
225.451;  105.700;  360.000;  481.000
225.595;  109.000;  264.000;  176.000
225.739;  -45.900; -170.000;  -94.000
225.884;   28.400;   86.000;    5.000
226.028; -208.900; -760.000; -626.000
226.172;  -74.100; -260.000; -273.000
226.316; -268.700; -941.000; -902.000
226.460; -122.900; -645.000; -493.000
226.604; -120.800; -406.000; -400.000
226.748; -213.900; -836.000; -733.000
226.892;  -50.500; -227.000; -181.000
227.036;  -77.300; -537.000; -447.000
227.180; -117.000; -551.000; -375.000
227.324; -132.400; -561.000; -580.000
227.468; -241.400; -819.000; -717.000
227.612;   26.800;  242.000;  -28.000
227.756; -176.100; -845.000; -698.000
227.900;  140.700;  342.000;  441.000
228.044; -107.300; -509.000; -290.000
228.188;  164.500;  448.000;  568.000
228.332; -197.600; -546.000; -472.000
228.476;  -40.100; -223.000; -149.000
228.620;  -63.500; -210.000; -150.000
228.764;  186.300;  431.000;  349.000
228.908;  -50.600; -155.000;   30.000
229.052; -136.800; -615.000; -528.000
229.195;  -19.700; -172.000;   13.000
229.339;  -31.900; -235.000; -305.000
229.483;  -18.300;    5.000; -162.000
229.627;    2.700; -156.000;  139.000
229.771;  -85.300; -218.000; -294.000
229.915;   29.100;  230.000;   79.000
230.059; -181.000; -648.000; -663.000
230.202;  -91.200; -370.000; -317.000
230.346;  -18.900; -107.000;  107.000
230.490; -133.600; -489.000; -521.000
230.634; -208.100; -736.000; -553.000
230.777;  192.100;  478.000;  509.000
230.921; -115.700; -450.000; -359.000
231.065; -108.000; -246.000; -286.000
231.209;   74.700;  261.000;  265.000
231.352;   51.300;   54.000;   40.000
231.496;   39.500;  568.000;  188.000
231.640; -121.300; -693.000; -621.000
231.783;  166.800;  546.000;  525.000
231.927;  -88.000; -294.000; -365.000
232.071; -230.100; -962.000; -736.000
232.214; -243.200; -980.000; -764.000
232.358; -197.200; -683.000; -599.000
232.502;   24.600;  -19.000;    7.000
232.645; -285.300;-1090.000; -927.000
232.789;  -37.500; -257.000; -218.000
232.933;  -73.800; -407.000; -224.000
233.076; -250.300;-1038.000; -897.000
233.220; -244.100; -752.000; -777.000
233.363; -158.600; -669.000; -477.000
233.507;  156.400;  371.000;  129.000
233.650; -167.300; -764.000; -834.000
233.794;  105.700;  438.000;  461.000
233.938;  -93.100; -530.000; -362.000
234.081;   -2.100;  -93.000;   31.000
234.225; -165.400; -631.000; -539.000
234.368; -233.200; -773.000; -723.000
234.512;  -47.500; -385.000; -299.000
234.655; -200.700; -582.000; -555.000
234.798; -123.500; -493.000; -466.000
234.942; -259.700; -884.000;-1002.000
235.085; -123.000; -651.000; -443.000
235.229; -122.800; -405.000; -410.000
235.372;  -67.900; -247.000; -191.000
235.516; -124.800; -397.000; -321.000
235.659;   83.800;   92.000;  121.000
235.802;  -24.500;  -38.000;  -22.000
235.946;   57.200;  335.000;  215.000
236.089;   68.600;  126.000;  250.000
236.233;  151.100;  275.000;  298.000
236.376;  -92.200; -235.000; -378.000
236.519;  -99.900; -297.000; -319.000
236.663;  -35.500; -215.000; -117.000
236.806; -259.900;-1029.000; -999.000
236.949;  105.700;  543.000;  431.000
237.092;  146.000;  412.000;  391.000
237.236; -202.400; -589.000; -502.000
237.379;  168.800;  352.000;  428.000
237.522; -226.100; -879.000; -768.000
237.666;  -15.100; -271.000;   18.000
237.809; -274.900; -851.000; -823.000
237.952;  110.800;  469.000;  271.000
238.095; -159.400; -447.000; -442.000
238.238;  206.800;  688.000;  700.000
238.382;   25.100;  166.000;  103.000
238.525; -134.900; -598.000; -511.000
238.668; -284.400;-1060.000; -985.000
238.811; -149.700; -638.000; -643.000
238.954; -130.000; -483.000; -334.000
239.097;  191.900;  617.000;  664.000
239.241;   81.000;  394.000;  326.000
239.384;  -41.700; -254.000; -214.000
239.527; -100.400; -424.000; -224.000
239.670; -268.400; -994.000;-1091.000
239.813; -195.600; -696.000; -658.000
239.956;  181.800;  579.000;  473.000
240.099; -243.000; -778.000; -725.000
240.242;  145.400;  428.000;  432.000
240.385;   81.900;  466.000;  450.000
240.528; -167.800; -706.000; -473.000
240.671;   71.500;  189.000;  134.000
240.814;  -44.400; -441.000; -158.000
240.957; -215.100; -767.000; -578.000
241.100; -193.200; -779.000; -755.000
241.243; -313.700;-1234.000; -893.000
241.386; -128.400; -508.000; -379.000
241.529; -178.500; -735.000; -547.000
241.672; -148.200; -566.000; -495.000
241.815; -225.000; -832.000; -808.000
241.958;  -21.100; -125.000; -182.000
242.101; -172.500; -545.000; -390.000
242.244;  -66.400; -270.000; -325.000
242.387;  -92.300; -304.000; -246.000
242.530;  160.000;  470.000;  134.000
242.673;  -82.100; -381.000; -309.000
242.815; -228.100; -925.000; -899.000
242.958; -144.300; -482.000; -381.000
243.101;   18.100;  132.000;  187.000
243.244; -153.200; -564.000; -521.000
243.387;  -80.300; -313.000; -316.000
243.530; -191.300; -657.000; -674.000
243.672;    0.700;   43.000;  -92.000
243.815; -119.900; -355.000; -283.000
243.958;   20.600;   98.000;  -26.000
244.101;   -0.700;   59.000;  -16.000
244.243;   18.800;  -47.000;  101.000
244.386; -227.900; -761.000; -630.000
244.529;  -37.800; -132.000; -139.000
244.672; -311.500;-1154.000; -951.000
244.814; -201.600; -621.000; -794.000
244.957;  -66.200; -380.000; -304.000
245.100; -120.300; -489.000; -489.000
245.242;  -95.700; -387.000; -374.000
245.385;   29.700;  -59.000;  -39.000
245.528; -243.200; -871.000; -705.000
245.670;  211.000;  612.000;  634.000
245.813; -169.900; -599.000; -547.000
245.956;  -45.100; -324.000; -275.000
246.098; -142.100; -508.000; -650.000
246.241;   36.500;  194.000;   48.000
246.383;   -6.100; -119.000;  -73.000
246.526; -129.300; -454.000; -525.000
246.669; -234.800; -889.000; -780.000
246.811;   68.600;  172.000;   -1.000
246.954; -109.400; -512.000; -426.000
247.096;   -5.000;  -84.000;   -6.000
247.239; -127.200; -482.000; -445.000
247.381; -150.400; -647.000; -488.000
247.524;  176.700;  645.000;  679.000
247.666;    0.400;   58.000;   11.000
247.809; -252.100; -887.000; -691.000
247.951;   -5.400;  -75.000;  138.000
248.094;  103.800;  432.000;  308.000
248.236; -290.900;-1262.000;-1238.000
248.378;   -2.500; -356.000;  -81.000
248.521;  -25.600; -334.000; -337.000
248.663;  -71.700; -236.000; -267.000
248.806;  -34.400; -300.000; -266.000
248.948; -182.400; -886.000; -763.000
249.090;  -71.800; -428.000; -398.000
249.233;  -98.300; -344.000; -381.000
249.375; -127.100; -474.000; -451.000
249.518;  -34.800;  -83.000; -133.000
249.660;    1.500; -103.000;    3.000
249.802; -356.700;-1303.000;-1189.000
249.945; -138.800; -612.000; -540.000
250.087; -250.700; -834.000; -768.000
250.229;  -59.100; -362.000; -480.000
250.371; -166.400; -494.000; -439.000
250.514;  -67.900; -310.000; -244.000
250.656; -144.500;   69.000;  102.000
250.798; -225.900; -849.000; -800.000
250.940; -131.900; -322.000; -322.000
251.083;  -37.800; -335.000; -111.000
251.225;  150.200;  338.000;  310.000
251.367;  -60.900; -274.000; -373.000
251.509;  -76.500; -265.000; -210.000
251.651; -212.100; -731.000; -671.000
251.794;  121.000;  538.000;  632.000
251.936; -204.200; -821.000; -747.000
252.078; -147.000; -540.000; -461.000
252.220; -134.000; -645.000; -477.000
252.362;  196.500;  344.000;  462.000
252.504; -128.600; -677.000; -584.000
252.646; -244.200; -875.000; -722.000
252.788;   -0.100;   14.000; -128.000
252.931;  -88.200; -257.000; -253.000
253.073;  -85.700; -376.000; -317.000
253.215;   -4.200;  141.000;  122.000
253.357;  -35.900;   82.000; -153.000
253.499;  -87.600; -374.000; -234.000
253.641; -146.700; -749.000; -594.000
253.783; -186.400; -609.000; -527.000
253.925; -176.400; -586.000; -591.000
254.067; -228.200; -744.000; -667.000
254.209;  -42.800; -391.000; -259.000
254.351; -284.700; -865.000; -883.000
254.493; -103.100; -441.000; -417.000
254.635; -229.700; -936.000; -818.000
254.777; -151.200; -752.000; -687.000
254.918; -143.100; -512.000; -430.000
255.060; -120.800; -551.000; -395.000
255.202;  -92.700; -473.000; -261.000
255.344; -160.500; -658.000; -455.000
255.486; -155.500; -471.000; -406.000
255.628; -209.900; -780.000; -781.000
255.770; -165.000; -676.000; -536.000
255.912;  -99.300; -559.000; -468.000
256.053; -184.800; -730.000; -508.000
256.195;  354.000; 1008.000;  903.000
256.337; -204.700; -861.000; -595.000
256.479;  169.400;  532.000;  416.000
256.621;  -90.100; -394.000; -212.000
256.762; -195.400; -789.000; -742.000
256.904;  112.700;  485.000;  487.000
257.046;  -72.100; -381.000; -271.000
257.188;  -62.300; -351.000; -264.000
257.329; -136.900; -525.000; -464.000
257.471; -223.500; -939.000; -807.000
257.613; -109.800; -584.000; -498.000
257.755; -304.500;-1073.000; -982.000
257.896;   67.800;  286.000;  392.000
258.038; -133.400; -403.000; -352.000
258.180;  -59.600; -354.000; -279.000
258.321; -154.500; -581.000; -457.000
258.463;  -11.100;  -71.000;  133.000
258.605; -170.900; -562.000; -570.000
258.746; -176.700; -886.000; -772.000
258.888; -285.300;-1026.000;-1020.000
259.029;   78.900;  121.000;   -8.000
259.171; -192.100; -614.000; -550.000
259.313;   53.900;  -49.000;  -47.000
259.454; -160.600; -536.000; -414.000
259.596; -107.300; -483.000; -390.000
259.737; -165.100; -590.000; -474.000
259.879;  105.800;  217.000;  311.000
260.020;  200.500;  901.000;  636.000
260.162;  -23.100; -146.000; -253.000
260.303; -235.500; -768.000; -687.000
260.445; -143.900; -609.000; -613.000
260.586;   68.000;  392.000;  157.000
260.728;  -67.800; -360.000; -248.000
260.869; -140.200; -350.000; -343.000
261.011;  205.000;  706.000;  537.000
261.152;  -89.000; -479.000; -319.000
261.293; -123.200; -576.000; -595.000
261.435;  -52.300; -219.000; -184.000
261.576;  -99.800; -455.000; -325.000
261.718;  103.900;  420.000;  470.000
261.859; -258.100; -940.000; -949.000
262.000; -259.400; -951.000;-1016.000
262.142;  -34.300;  -52.000;  -60.000
262.283; -228.600; -808.000; -691.000
262.424; -150.700; -666.000; -625.000
262.566; -323.700;-1161.000; -983.000
262.707; -242.500; -840.000; -830.000
262.848; -201.400; -769.000; -726.000
262.990;  -80.500; -362.000; -345.000
263.131;  192.200;  650.000;  681.000
263.272;   12.100;  -61.000;  -41.000
263.413; -162.100; -589.000; -561.000
263.555;  -99.700; -669.000; -143.000
263.696; -149.700; -550.000; -641.000
263.837; -111.400; -449.000; -551.000
263.978;   16.700;   -5.000;  -77.000
264.119;  -67.500; -283.000; -264.000
264.261; -207.400; -847.000; -630.000
264.402;    9.500;   33.000;   40.000
264.543; -167.300; -509.000; -524.000
264.684;   17.700;   61.000;  -50.000
264.825; -161.500; -816.000; -538.000
264.966;   17.100;  -84.000;  -67.000
265.107; -220.400; -646.000; -670.000
265.248; -230.900; -825.000; -812.000
265.390;   -8.300;  152.000;   -9.000
265.531;  -18.200; -238.000; -107.000
265.672; -159.400; -557.000; -630.000
265.813;  170.200;  563.000;  439.000
265.954; -288.500; -959.000; -940.000
266.095;   25.900; -372.000; -322.000
266.236; -182.900; -686.000; -548.000
266.377;  -95.800; -243.000; -297.000
266.518; -141.000; -619.000; -547.000
266.659;   76.000;  170.000;  268.000
266.800;   41.600;   83.000;   85.000
266.941; -155.800; -487.000; -478.000
267.082;   45.400;  354.000;   99.000
267.223; -103.300; -344.000; -273.000
267.364; -232.000; -892.000; -686.000
267.504;    2.300;    3.000;  135.000
267.645;   25.000;  160.000;   67.000
267.786;  -21.000; -147.000;  -86.000
267.927; -100.800; -473.000; -379.000
268.068;    1.300; -186.000;  -61.000
268.209;  -97.100; -175.000; -413.000
268.350; -102.300; -388.000; -532.000
268.490; -192.400; -648.000; -521.000
268.631;  124.100;  127.000;  225.000
268.772; -218.900; -874.000; -647.000
268.913; -106.400; -328.000; -476.000
269.054;    7.500; -117.000;   12.000
269.194;  -75.800; -418.000; -402.000
269.335; -298.300;-1137.000;-1074.000
269.476;   -5.400;   33.000;  -35.000
269.617; -101.500; -347.000; -392.000
269.757; -159.600; -713.000; -646.000
269.898; -219.200; -856.000; -613.000
270.039;  -88.500; -415.000; -405.000
270.180; -269.800; -952.000; -816.000
270.320;  -22.200; -190.000; -250.000
270.461; -105.200; -277.000; -249.000
270.602;   -4.600; -186.000; -156.000
270.742; -231.700; -868.000; -943.000
270.883;  -88.500; -442.000; -390.000
271.023; -116.500; -358.000; -357.000
271.164; -122.000; -607.000; -528.000
271.305; -177.700; -666.000; -654.000
271.445; -163.000; -722.000; -683.000
271.586; -105.300; -462.000; -283.000
271.726;  -91.100; -397.000; -322.000
271.867;  -96.800; -594.000; -534.000
272.008;  364.500; -473.000; -285.000
272.148;  294.000;  462.000;  468.000
272.289;   68.600; -113.000; -181.000
272.429;   49.300;   19.000;  185.000
272.570; -175.400; -633.000; -737.000
272.710; -170.100; -825.000; -775.000
272.851;  -14.000;  113.000; -130.000
272.991; -318.600;-1173.000;-1077.000
273.131; -116.900; -419.000; -459.000
273.272; -222.600; -683.000; -723.000
273.412;   65.900; -143.000;  -31.000
273.553;  -90.500; -488.000; -507.000
273.693;  321.900;  913.000;  858.000
273.834; -212.300; -894.000; -692.000
273.974; -108.200; -664.000; -615.000
274.114; -174.500; -772.000; -560.000
274.255;  183.000;  414.000;  373.000
274.395;   15.400; -180.000; -125.000
274.535;  132.000;  199.000;  350.000
274.676;   56.100;  225.000;   94.000
274.816;   36.300;  110.000;   34.000
274.956; -167.800; -624.000; -690.000
275.097; -129.900;-1014.000; -922.000
275.237; -233.500; -913.000; -803.000
275.377; -204.100; -778.000; -689.000
275.517; -313.400; -878.000; -937.000
275.658;  -96.100; -590.000; -555.000
275.798; -125.900; -606.000; -413.000
275.938;   57.400;  215.000;  323.000
276.078; -157.800; -626.000; -395.000
276.218;   33.700;   99.000;  104.000
276.359; -287.800;-1026.000;-1024.000
276.499; -124.600; -605.000; -446.000
276.639;  -57.400; -305.000; -151.000
276.779;  -49.400; -475.000; -357.000
276.919; -225.400; -783.000; -624.000
277.059;  -12.200; -261.000; -212.000
277.199;  -83.000; -357.000; -259.000
277.340;  117.000;  287.000;  175.000
277.480; -224.000; -840.000; -693.000
277.620;   76.200;  192.000;   16.000
277.760; -379.500;-1533.000;-1294.000
277.900;   56.400;  113.000;   33.000
278.040;   63.600;  137.000;  159.000
278.180;  123.300;  270.000;  170.000
278.320;    8.400;   21.000;   56.000
278.460; -136.200; -443.000; -469.000
278.600; -174.100; -708.000; -598.000
278.740;  118.100;  448.000;  224.000
278.880; -108.000; -768.000; -791.000
279.020;   58.100; -194.000; -144.000
279.160; -150.300; -672.000; -595.000
279.300; -208.700; -926.000; -873.000
279.440; -178.800; -709.000; -622.000
279.579;  -66.100;-1014.000; -929.000
279.719;  -96.500; -410.000; -394.000
279.859;  174.900;   -4.000;   41.000
279.999;   63.400; -208.000;  101.000
280.139;  -19.100; -435.000; -387.000
280.279; -141.200; -708.000; -745.000
280.419;    3.500; -229.000; -147.000
280.559;  -73.600; -259.000; -180.000
280.698; -144.100; -790.000; -639.000
280.838; -168.700; -778.000; -800.000
280.978; -185.500; -846.000; -790.000
281.118; -225.000; -811.000; -704.000
281.257;   50.100;   24.000;    6.000
281.397; -232.200;-1094.000; -960.000
281.537; -163.700; -599.000; -712.000
281.677;    7.400; -150.000; -101.000
281.816; -153.800; -700.000; -630.000
281.956;  -58.400; -193.000; -257.000
282.096; -106.900; -539.000; -396.000
282.235; -184.600; -672.000; -638.000
282.375;  -24.800; -243.000;  -98.000
282.515; -178.500; -715.000; -707.000
282.654;   91.300;   29.000;  106.000
282.794;   79.200;  388.000;  244.000
282.934; -107.800; -530.000; -491.000
283.073; -274.900;-1030.000; -857.000
283.213;  -99.500; -460.000; -467.000
283.353;  -51.100; -408.000; -349.000
283.492;  -11.800; -264.000; -296.000
283.632;  -61.900; -254.000; -168.000
283.771; -178.000; -859.000; -730.000
283.911;  -91.400; -369.000; -260.000
284.050; -188.000; -794.000; -748.000
284.190; -315.100;-1229.000;-1096.000
284.329; -260.500;-1055.000; -964.000
284.469; -109.900; -516.000; -591.000
284.608;  -68.400; -559.000; -598.000
284.748; -145.100; -614.000; -570.000
284.887;   32.900;  -87.000;  -20.000
285.027; -257.900; -844.000; -892.000
285.166;  -55.400; -192.000; -249.000
285.306;   25.600; -116.000;  -33.000
285.445;  -59.100; -229.000; -343.000
285.584; -173.600; -630.000; -494.000
285.724;  -59.600; -282.000; -322.000
285.863; -212.200; -857.000; -507.000
286.002;  -71.400; -366.000; -276.000
286.142; -189.200; -715.000; -622.000
286.281; -103.200; -525.000; -493.000
286.420; -122.700; -554.000; -417.000
286.560;  252.000;  653.000;  623.000
286.699; -248.600; -958.000; -912.000
286.838; -155.600; -590.000; -591.000
286.978; -158.000; -533.000; -537.000
287.117; -255.800;-1085.000; -950.000
287.256;  -55.100; -228.000; -211.000
287.395; -106.000; -197.000; -378.000
287.535;  -47.100; -370.000; -298.000
287.674; -140.400; -509.000; -484.000
287.813;  135.400;  661.000;  533.000
287.952; -229.100;-1010.000; -871.000
288.091; -293.100;-1049.000; -915.000
288.231;   38.200;   13.000;   15.000
288.370; -330.500;-1217.000;-1200.000
288.509; -154.900; -728.000; -645.000
288.648; -167.800; -770.000; -548.000
288.787;  -43.700; -243.000;  -87.000
288.926; -103.900; -454.000; -475.000
289.065;  297.500;  859.000;  672.000
289.204;  -97.200; -377.000; -217.000
289.344; -151.500; -791.000; -690.000
289.483;  105.300;  416.000;  304.000
289.622;   -2.500; -291.000; -149.000
289.761;   12.400; -309.000; -166.000
289.900; -196.000; -785.000; -626.000
290.039;   14.000;  -12.000;  -95.000
290.178;  -14.900; -274.000; -180.000
290.317; -140.500; -618.000; -479.000
290.456; -127.500; -463.000; -451.000
290.595; -274.100; -961.000; -833.000
290.734; -247.400; -904.000; -891.000
290.873; -133.200; -456.000; -420.000
291.011; -194.500; -833.000; -843.000
291.150; -162.700; -770.000; -682.000
291.289;  -23.700; -343.000; -110.000
291.428; -175.600; -599.000; -480.000
291.567;  -96.100; -370.000; -442.000
291.706;   23.400;  109.000;  154.000
291.845; -145.900; -597.000; -505.000
291.984; -339.600;-1234.000;-1061.000
292.122;  201.400;  602.000;  582.000
292.261;  143.100;  620.000;  463.000
292.400;   54.100; -144.000;  211.000
292.539; -240.200; -959.000; -813.000
292.678;  -31.200; -325.000; -300.000
292.816; -296.900;-1136.000; -965.000
292.955; -156.600; -844.000; -684.000
293.094;  -13.900; -173.000; -337.000
293.233;  -58.000; -556.000; -400.000
293.371;  -43.500; -225.000;  -84.000
293.510; -205.800; -866.000; -780.000
293.649; -274.800; -959.000; -924.000
293.787; -152.200;-1083.000;-1012.000
293.926;   13.100; -113.000;  -32.000
294.065;  -55.700; -379.000; -290.000
294.203;  142.500;  298.000;  406.000
294.342;   65.000;   74.000;  156.000
294.481;11905.900;51180.000; -836.000
294.619;  -48.900; -425.000; -582.000
294.758; -290.900;-1230.000;-1137.000
294.896;  184.200; -125.000;    5.000
295.035; -260.500;-1040.000;-1006.000
295.174; -235.300;-1082.000; -954.000
295.312;  -63.400; -323.000; -203.000
295.451;    4.600; -307.000; -428.000
295.589; -104.200; -389.000; -518.000
295.728;   63.800; -292.000; -165.000
295.866;   35.400;  -36.000;  -51.000
296.005; -114.100; -584.000; -341.000
296.143; -135.100; -558.000; -596.000
296.282; -168.400; -957.000; -881.000
296.420; -144.100; -657.000; -557.000
296.559; -139.200; -892.000; -633.000
296.697;   11.200; -847.000; -665.000
296.835;  131.600;-1141.000;-1002.000
296.974;  130.100;  -23.000;   39.000
297.112;   86.000; -443.000; -504.000
297.251; -129.700; -815.000; -755.000
297.389;  186.800; -576.000; -438.000
297.527;   87.400; -145.000;  -83.000
297.666;  -72.500; -486.000; -438.000
297.804;  -60.300; -404.000; -264.000
297.942;   11.800; -136.000; -161.000
298.081;    0.600; -183.000;   63.000
298.219;  161.900;  -17.000;  -19.000
298.357;  126.200; -144.000;  -71.000
298.495;   52.200; -810.000; -812.000
298.634;  175.300;  245.000;  219.000
298.772;  144.500; -220.000; -338.000
298.910;  -52.200; -309.000; -182.000
299.048;    5.800; -130.000; -153.000
299.187;  -36.500; -350.000; -250.000
299.325;   99.700;   52.000;  122.000
299.463;  120.400; -389.000; -299.000
299.601;  259.600; -327.000; -271.000
299.739; -200.000; -908.000; -883.000
299.877; -147.200; -791.000; -703.000
300.016;  -99.700;-1095.000; -935.000
300.154;  360.300;  -19.000; -161.000
300.292;  103.500; -428.000; -348.000
300.430;   85.800; -408.000; -291.000
300.568; -226.600; -940.000; -874.000
300.706; -101.900; -366.000; -469.000
300.844; -132.700;-1108.000; -979.000
300.982;  259.500;  246.000;  282.000
301.120; -211.300; -965.000; -866.000
301.258;  -75.300; -812.000; -705.000
301.396;  118.200;  104.000;  -41.000
301.534;  195.900; -218.000; -293.000
301.672;    3.800; -664.000; -521.000
301.810;   87.200; -613.000; -545.000
301.948;  351.800;   53.000;  149.000
302.086; 1105.400; -250.000;  -32.000
302.224; 1862.800; -610.000; -585.000
302.362;  103.200; -558.000; -622.000
302.500;  -50.200; -923.000; -893.000
302.638;  295.600;  128.000;  245.000
302.776;   46.500; -352.000; -408.000
302.913;  112.300;  447.000;  236.000
303.051;   16.700;  -86.000;  -23.000
303.189;  146.000;   90.000;  118.000
303.327;  -26.900; -341.000; -256.000
303.465; -143.600; -832.000; -588.000
303.603; -182.700; -805.000; -604.000
303.740;  263.900;  417.000;  241.000
303.878;   14.300; -800.000; -759.000
304.016; -186.600; -915.000; -790.000
304.154; -242.200;-1123.000;-1152.000
304.291;  -55.300; -505.000; -554.000
304.429;   25.300;  102.000;   74.000
304.567; -225.500; -908.000; -893.000
304.705;  -84.900; -408.000; -515.000
304.842;  175.700; -616.000; -540.000
304.980;  144.700;  215.000;   35.000
305.118;  125.500; -367.000; -365.000
305.255; -133.000; -945.000; -927.000
305.393;  156.300;  178.000;  239.000
305.531; -172.200;-1173.000; -956.000
305.668; -101.900; -663.000; -582.000
305.806;  188.700; -358.000; -439.000
305.943;  217.800; -629.000; -637.000
306.081;  137.500; -378.000; -267.000
306.219; -205.200; -863.000; -748.000
306.356;   53.800;  158.000;   27.000
306.494;  281.400;  981.000;  761.000
306.631;   47.900;  -11.000;  -55.000
306.769;   30.300; -613.000; -485.000
306.906;   -4.500; -284.000; -258.000
307.044;  -59.000; -473.000; -488.000
307.181;  -92.100; -410.000; -332.000
307.319;  128.500;  112.000;   87.000
307.456; -318.300;-1191.000;-1153.000
307.594; -179.600; -980.000; -727.000
307.731;   25.600; -371.000; -164.000
307.868;   34.500;  -15.000;   20.000
308.006; -278.600; -961.000; -847.000
308.143;  -94.300; -618.000; -330.000
308.281;  490.100;  -37.000; -254.000
308.418;   75.900; -748.000; -640.000
308.555;  -96.500; -400.000; -250.000
308.693;  -94.600; -577.000; -573.000
308.830; -205.600; -712.000; -657.000
308.967;   27.500; -215.000;  -95.000
309.105;  -43.400; -507.000; -396.000
309.242;  167.400; -468.000; -367.000
309.379;  982.000; -577.000; -655.000
309.517;  -31.400; -936.000; -948.000
309.654; -181.900; -910.000; -734.000
309.791; -115.200; -662.000; -580.000
309.928; -209.100; -977.000; -914.000
310.065;  396.800;  819.000;  697.000
310.203;    5.000; -825.000; -850.000
310.340;   51.100; -465.000; -321.000
310.477;  -88.300; -412.000; -516.000
310.614;  -89.200; -383.000; -473.000
310.751; -105.100; -427.000; -518.000
310.889;   28.300;    1.000;   11.000
311.026; -289.600;-1161.000; -939.000
311.163;  -58.400; -386.000; -380.000
311.300; -145.200; -512.000; -479.000
311.437; -109.000; -658.000; -619.000
311.574; -307.200;-1226.000; -985.000
311.711;  -97.600; -595.000; -433.000
311.848;  -63.300; -380.000; -388.000
311.985;   73.700;  270.000;   93.000
312.122; -224.400; -932.000; -762.000
312.259; -187.100; -941.000; -994.000
312.396;  -93.100; -508.000; -551.000
312.533; -130.700; -812.000; -790.000
312.670; -228.700;-1070.000; -898.000
312.807;  -60.100; -352.000; -367.000
312.944; -130.100; -513.000; -611.000
313.081;  -17.600; -150.000; -415.000
313.218; -181.000;-1111.000; -867.000
313.355;   60.100; -531.000; -449.000
313.492;   39.300; -455.000; -292.000
313.629;  319.700;  815.000;  735.000
313.766; -307.400;-1176.000;-1008.000
313.902;   12.100; -186.000;   21.000
314.039;  -83.200; -372.000; -289.000
314.176;  126.600;  286.000;  192.000
314.313; -116.100; -569.000; -473.000
314.450; -119.900; -788.000; -684.000
314.587;  -80.800; -468.000; -480.000
314.723;   34.300;  -78.000;  130.000
314.860;  108.900;  318.000;  332.000
314.997;  140.000;  223.000;  142.000
315.134;  -75.800; -385.000; -368.000
315.270;  -32.500; -480.000; -496.000
315.407; -242.200;-1094.000; -967.000
315.544;  -61.400; -657.000; -538.000
315.681; -122.000; -681.000; -565.000
315.817;   75.500; -133.000; -176.000
315.954;   28.800; -613.000; -392.000
316.091; -210.800;-1045.000;-1023.000
316.227;  -22.900;  -71.000; -179.000
316.364;   63.700;   23.000;    6.000
316.500;  -63.500; -113.000; -300.000
316.637;  -38.800; -181.000; -302.000
316.774; -145.900; -625.000; -358.000
316.910; -170.700; -598.000; -629.000
317.047; -108.500; -487.000; -351.000
317.183;  -69.500; -435.000; -566.000
317.320;  -21.200; -367.000; -321.000
317.456;  -92.600; -733.000; -805.000
317.593; -150.800; -598.000; -641.000
317.729;   65.500;  168.000;  -67.000
317.866; -385.800;-1434.000;-1285.000
318.002; -136.700; -708.000; -948.000
318.139; -174.500; -883.000; -867.000
318.275; -177.100;-1003.000; -738.000
318.412;  -92.600; -517.000; -336.000
318.548;  -20.500; -751.000; -720.000
318.685; -188.900; -985.000; -888.000
318.821; -135.400; -762.000; -735.000
318.957;    4.000;   34.000;  -23.000
319.094;  145.900;  297.000;  154.000
319.230;  -94.600; -756.000; -742.000
319.367;  288.800; -471.000; -520.000
319.503;  132.300; -538.000; -436.000
319.639; -175.000; -877.000; -793.000
319.775; -118.000; -750.000; -685.000
319.912;  -78.300; -424.000; -519.000
320.048; -156.500;-1184.000;-1184.000
320.184;  158.500;   59.000;   70.000
320.321;  -54.700; -497.000; -467.000
320.457;  184.800;  475.000;  662.000
320.593;  -99.700; -375.000; -382.000
320.729; -159.200; -732.000; -734.000
320.866; -113.200; -577.000; -635.000
321.002; -131.600; -759.000; -809.000
321.138;   18.000; -135.000; -211.000
321.274;  202.200; -148.000; -115.000
321.410;  -58.700; -585.000; -353.000
321.546;  -28.900;-1011.000; -911.000
321.683;  136.800;  400.000;  185.000
321.819;   70.700;  -48.000; -117.000
321.955; -184.900; -743.000; -722.000
322.091;  -52.900; -585.000; -540.000
322.227;   11.000; -382.000; -202.000
322.363;  -18.300; -320.000; -215.000
322.499;  -47.000; -343.000; -331.000
322.635;  367.500;  636.000;  443.000
322.771;   91.600; -139.000;   12.000
322.907;  262.900;  129.000;  327.000
323.043;  -26.300; -115.000; -206.000
323.179;  -13.600; -394.000; -363.000
323.315;   78.400; -401.000; -371.000
323.451;  198.200; -328.000; -236.000
323.587;  187.400;  -60.000;  -77.000
323.723;   83.200; -682.000; -601.000
323.859;  -12.200; -258.000;  -76.000
323.995;  -27.000; -467.000; -409.000
324.131; -224.000; -967.000; -892.000
324.267;  -46.300; -254.000; -276.000
324.402; -228.700; -960.000; -983.000
324.538;   19.600; -279.000; -104.000
324.674;   83.600;  164.000;   77.000
324.810;  310.700;  226.000;  308.000
324.946;   23.600; -810.000; -658.000
325.082;  -96.000; -568.000; -475.000
325.217;   10.100;  -62.000;   16.000
325.353; -128.900; -764.000; -659.000
325.489; -142.300; -540.000; -506.000
325.625; -103.800; -579.000; -525.000
325.760;  165.900;  517.000;  376.000
325.896;  -22.400; -515.000; -702.000
326.032;  -66.600; -403.000; -352.000
326.168;  -84.500; -462.000; -369.000
326.303;  -66.300; -352.000; -461.000
326.439;   -6.600; -336.000; -276.000
326.575;   40.600; -190.000;  -29.000
326.710;   45.700; -156.000;  -30.000
326.846;   -0.600;  146.000;  103.000
326.982; -153.300; -530.000; -548.000
327.117; -132.200; -481.000; -442.000
327.253; -147.400; -745.000; -742.000
327.388; -212.500;-1137.000;-1153.000
327.524;  -85.700; -811.000; -578.000
327.659;   -0.500;  -58.000;  -22.000
327.795;   41.300;   69.000;   45.000
327.931; -152.200; -723.000; -499.000
328.066;   -2.100; -417.000; -276.000
328.202;   57.200;   12.000; -129.000
328.337;  256.600;  957.000;  713.000
328.473;   37.500;  -12.000;  -74.000
328.608;   32.600; -256.000; -267.000
328.743; -131.600; -799.000; -664.000
328.879;   94.800;  214.000;  114.000
329.014;  -81.000; -102.000; -122.000
329.150; -116.500; -358.000; -483.000
329.285; -156.300; -465.000; -466.000
329.421;  -52.700; -548.000; -246.000
329.556;   -6.100;  -36.000;   85.000
329.691; -139.300; -633.000; -615.000
329.827; -148.200; -626.000; -480.000
329.962;  -49.600;  131.000; -301.000
330.097; -135.300; -673.000; -585.000
330.233;  -48.100; -410.000; -223.000
330.368; -253.000; -839.000; -628.000
330.503;   15.600;    3.000;   98.000
330.638;   59.300;  -93.000; -125.000
330.774;  -71.300; -609.000; -530.000
330.909;  -46.700; -434.000; -244.000
331.044; -132.900; -714.000; -708.000
331.179; -353.100;-1217.000;-1109.000
331.315;   37.500;   77.000;   20.000
331.450;   65.000;  157.000;  285.000
331.585; -148.900; -805.000; -706.000
331.720; -127.400; -510.000; -460.000
331.855;   36.000;  -35.000; -102.000
331.990;  494.400;   62.000;  138.000
332.126;  292.400; -110.000;   71.000
332.261;  -22.700; -379.000; -265.000
332.396;   53.400; -135.000; -242.000
332.531; -188.400;-1074.000;-1031.000
332.666;   86.100; -519.000; -363.000
332.801; -184.700; -726.000; -807.000
332.936;    1.600; -192.000; -122.000
333.071; -239.200; -870.000; -817.000
333.206;   86.000;  307.000;  379.000
333.341;   93.200;  344.000;  418.000
333.476; -118.800; -627.000; -623.000
333.611;  -59.400; -251.000; -173.000
333.746;  -57.800; -381.000; -464.000
333.881; -233.500; -973.000; -935.000
334.016; -211.300; -936.000; -917.000
334.151; -236.600; -746.000; -702.000
334.286;  100.700;  152.000;  186.000
334.421;   14.700; -125.000; -178.000
334.556; -135.300; -611.000; -567.000
334.690; -145.900; -631.000; -577.000
334.825;  168.300;  381.000;   83.000
334.960;  -93.900; -285.000; -413.000
335.095;   56.700;  135.000;  -91.000
335.230; -182.900; -722.000; -738.000
335.365; -235.500;-1084.000; -990.000
335.499; -216.000;-1108.000;-1037.000
335.634;  100.300;    9.000;  534.000
335.769; -164.500; -755.000; -720.000
335.904;  -86.100; -603.000; -561.000
336.038; -100.500; -735.000; -657.000
336.173; -191.400;-1206.000;-1194.000
336.308;   39.400; -116.000; -189.000
336.443;   71.100; -544.000; -634.000
336.577; -114.200; -936.000; -787.000
336.712;  179.300;   -4.000;  -12.000
336.847;  -43.900; -724.000; -607.000
336.981;  183.800; -272.000; -208.000
337.116;  617.600;  615.000;  501.000
337.250;  327.300; -434.000; -421.000
337.385;  507.200; -297.000; -208.000
337.520;  207.800; -632.000; -603.000
337.654;  -33.200; -215.000; -126.000
337.789; -224.700; -989.000; -933.000
337.923;   13.800; -104.000; -205.000
338.058; -148.300; -673.000; -738.000
338.192;  -38.200; -611.000; -488.000
338.327;   34.500;  -18.000; -155.000
338.461;  -93.500; -299.000; -469.000
338.596; -126.700; -780.000; -638.000
338.730; -174.600; -767.000; -803.000
338.865;  200.400;  -46.000; -140.000
338.999;  -90.600; -846.000; -702.000
339.134;   -0.200; -634.000; -536.000
339.268;   33.700; -741.000; -603.000
339.403;  704.300; -740.000; -775.000
339.537;  240.600; -894.000; -820.000
339.671; -176.200; -829.000; -813.000
339.806; -107.200; -556.000; -512.000
339.940;   59.100; -261.000; -235.000
340.074; -154.500; -685.000; -510.000
340.209;  -47.500; -351.000; -230.000
340.343; -138.000; -517.000; -573.000
340.477;  330.300;  998.000; 1036.000
340.612; -115.700;-1033.000; -900.000
340.746;  311.200; -199.000; -243.000
340.880; -137.800; -924.000; -785.000
341.014;   -9.200;  -45.000; -154.000
341.149; -229.100; -756.000; -718.000
341.283; -185.200; -839.000; -754.000
341.417; -159.400;-1124.000; -938.000
341.551;  293.200; -768.000; -708.000
341.685;  -46.700; -633.000; -611.000
341.820;  -55.200; -562.000; -493.000
341.954;  -38.500; -218.000; -349.000
342.088; -248.100;-1102.000;-1019.000
342.222;  127.500;  565.000;  618.000
342.356;  -63.200; -395.000; -335.000
342.490; -120.800; -880.000; -841.000
342.624;  -37.800; -339.000; -242.000
342.758;   58.700; -364.000; -312.000
342.892; -105.600; -710.000; -585.000
343.026;  -54.700;  -58.000; -116.000
343.160;  -82.800; -426.000; -376.000
343.294; -143.300; -474.000; -337.000
343.428;   -5.900; -488.000; -448.000
343.562;   -6.200; -172.000;  -23.000
343.696;  -10.100; -385.000; -314.000
343.830;   -2.700; -362.000; -356.000
343.964;   60.400; -231.000; -168.000
344.098; 1805.500;  199.000;   70.000
344.232; 1557.100; -266.000; -127.000
344.366;  222.800; -567.000; -453.000
344.500;  147.000; -665.000; -744.000
344.634;   74.500; -324.000; -164.000
344.768;  -25.300; -531.000; -341.000
344.902;   94.300;  278.000;  256.000
345.035; -137.900; -556.000; -496.000
345.169; -250.100; -933.000; -656.000
345.303;  -14.000; -308.000; -482.000
345.437; -118.500; -826.000; -717.000
345.571; -117.400; -675.000; -594.000
345.704; -109.500; -309.000; -532.000
345.838;   16.100; -331.000; -284.000
345.972;  -56.100; -543.000; -495.000
346.106;  354.800; -179.000; -190.000
346.239;  886.100; -312.000; -243.000
346.373;   74.900; -343.000; -302.000
346.507; -250.800; -950.000; -962.000
346.640;  329.700;  -30.000;   13.000
346.774;  -55.000; -650.000; -797.000
346.908;   52.700; -138.000;  -11.000
347.041; -174.200; -646.000; -593.000
347.175;   70.900;  259.000;   27.000
347.309; -117.200; -698.000; -628.000
347.442; -148.800; -883.000; -732.000
347.576;  615.200;  670.000;  668.000
347.709;  403.000; -123.000;  -52.000
347.843; -170.900; -933.000; -825.000
347.976;  113.700;  235.000;  294.000
348.110; -331.600;-1268.000;-1186.000
348.243; -164.200; -679.000; -772.000
348.377;   71.600;  -26.000;   60.000
348.510;  180.800;  403.000;  540.000
348.644;  -29.100;  -37.000; -159.000
348.777;   53.500;  180.000;  191.000
348.911;  -70.900; -142.000; -112.000
349.044;  421.000;  471.000;  448.000
349.178;  299.000;-1069.000;-1006.000
349.311;  286.100;  141.000;  255.000
349.444;   36.800; -927.000; -813.000
349.578;    9.700; -347.000; -200.000
349.711; -170.100; -959.000; -862.000
349.845;   16.600; -661.000; -591.000
349.978; -288.100;-1224.000;-1137.000
350.111; -136.600; -546.000; -612.000
350.244; -123.500; -596.000; -700.000
350.378;   64.100; -392.000; -393.000
350.511; -109.100; -393.000; -426.000
350.644; -157.300; -808.000; -806.000
350.778;   57.300;  168.000;  104.000
350.911;   53.200;  134.000;  140.000
351.044; -165.800; -685.000; -615.000
351.177;    9.200; -321.000; -281.000
351.310;  -29.300;    3.000; -131.000
351.444; -121.100; -888.000; -788.000
351.577;  283.900;  140.000;   90.000
351.710;  268.200;  593.000;  417.000
351.843;  -36.900; -165.000;  -77.000
351.976;   31.600;  149.000;  -79.000
352.109; -155.700; -621.000; -612.000
352.242;   17.900; -464.000; -419.000
352.376; -126.800; -580.000; -636.000
352.509;  346.000; -437.000; -356.000
352.642;   21.800; -654.000; -604.000
352.775;  156.300; -141.000;  -98.000
352.908; -219.000; -933.000; -904.000
353.041; -177.200; -814.000; -824.000
353.174;  -95.100; -551.000; -424.000
353.307; -119.900; -753.000; -764.000
353.440;  193.900;  541.000;  453.000
353.573; -201.500; -957.000;-1008.000
353.706; -104.800; -384.000; -558.000
353.839;   31.200; -264.000; -220.000
353.971; -133.700; -657.000; -512.000
354.104; -122.400; -896.000; -835.000
354.237;  -76.500; -627.000; -662.000
354.370; -126.000; -846.000; -879.000
354.503; -346.900;-1231.000;-1308.000
354.636;   -3.600; -529.000; -348.000
354.769; -211.000; -937.000; -860.000
354.902;   15.600; -230.000; -139.000
355.034;  -18.300; -164.000; -220.000
355.167;   26.700; -262.000; -162.000
355.300; -155.400;-1061.000; -880.000
355.433; 1922.000;  -71.000;  -14.000
355.565; 2974.100; -402.000; -384.000
355.698;  760.000; -356.000; -296.000
355.831;   20.400; -882.000; -801.000
355.964;  206.100; -285.000; -170.000
356.096; -151.200; -856.000; -843.000
356.229;   21.000; -523.000; -530.000
356.362;  670.300; -373.000; -266.000
356.494; 1185.500; -229.000; -162.000
356.627;  933.700;  269.000;  377.000
356.760; 1347.800;  120.000;   53.000
356.892; 1824.400; -286.000; -601.000
357.025; 1295.900;  403.000;  389.000
357.157; 1246.100; -167.000; -179.000
357.290; 1334.000; -856.000; -713.000
357.423;  363.900; -667.000; -556.000
357.555;  301.200; -217.000; -228.000
357.688;  246.400; -483.000; -364.000
357.820;  849.400; -870.000; -877.000
357.953; 7051.500; -563.000; -589.000
358.085; 1439.400; -632.000; -612.000
358.218; 2242.200;-1131.000; -932.000
358.350;  395.400;  -58.000;  312.000
358.483; -213.800;-1300.000;-1187.000
358.615;    8.700;-1182.000;-1078.000
358.747;  -80.400;-1187.000;-1058.000
358.880;  117.700; -810.000; -744.000
359.012;   11.200; -376.000; -202.000
359.145;  -45.500; -480.000; -511.000
359.277;  122.200; -962.000; -913.000
359.409; 5920.400;  536.000;  231.000
359.542; 1436.100; -738.000; -688.000
359.674;  166.000;   46.000;   13.000
359.806;  -82.900; -565.000; -438.000
359.939;  -37.100; -617.000; -516.000
360.071;   14.700; -583.000; -579.000
360.203;  -12.100; -411.000; -364.000
360.335;  114.400;  164.000;  -16.000
360.468;  381.000; -249.000; -307.000
360.600; 4642.600; -547.000; -454.000
360.732; 5490.800; -546.000; -423.000
360.864;  758.100;-1216.000;-1044.000
360.996;  574.300; -516.000; -554.000
361.129;   96.000; -389.000; -598.000
361.261;   81.200;  110.000; -113.000
361.393;  -19.600; -252.000; -214.000
361.525;   81.400;   94.000;  244.000
361.657;  -53.400; -821.000; -703.000
361.789;   74.600; -139.000; -155.000
361.921;  458.500; -642.000; -593.000
362.053;  534.600;  524.000;  541.000
362.185;  134.500;  288.000;   72.000
362.318; -104.100; -709.000; -705.000
362.450;  292.400;  294.000;  444.000
362.582;  206.300; -913.000; -870.000
362.714;  -38.500; -353.000; -332.000
362.846; -122.300; -606.000; -490.000
362.978; -268.500; -941.000; -811.000
363.109;  117.900; -161.000; -260.000
363.241;  875.100; -739.000; -749.000
363.373;  867.000; -649.000; -564.000
363.505; 1390.300; -186.000;  -91.000
363.637;  368.300; -787.000; -601.000
363.769; -231.900;-1067.000;-1080.000
363.901;  -99.000; -596.000; -654.000
364.033; -229.200;-1103.000;-1062.000
364.165;   24.400; -283.000; -283.000
364.296;  200.300; -316.000; -177.000
364.428;  142.300;-1344.000;-1220.000
364.560; -101.000; -679.000; -661.000
364.692;  -73.300; -738.000; -835.000
364.824;  554.900; -588.000; -456.000
364.955;  896.300; -402.000; -564.000
365.087; 1729.700;-1097.000; -852.000
365.219;   83.300; -686.000; -816.000
365.351; -108.400; -526.000; -572.000
365.482;  189.700;  300.000;  240.000
365.614;  -65.200; -402.000; -314.000
365.746; -136.800; -729.000; -752.000
365.877; -177.600; -706.000; -672.000
366.009;  583.300;  -35.000;  -62.000
366.141; -148.400;-1249.000;-1134.000
366.272; -144.400; -803.000; -719.000
366.404; -181.800;-1005.000; -874.000
366.535;   23.500; -139.000;  -12.000
366.667; -191.100; -644.000; -649.000
366.799;  139.000;  353.000;  203.000
366.930; -218.300; -862.000; -996.000
367.062;  245.400; -639.000; -613.000
367.193;  290.100; -872.000; -842.000
367.325;  -72.400; -580.000; -684.000
367.456;  161.800; -246.000;   31.000
367.588;  394.700; -371.000; -318.000
367.719;   94.400;  -44.000;  -45.000
367.851;   23.200; -222.000; -241.000
367.982;  -62.800; -875.000; -732.000
368.113;  258.500; -475.000; -358.000
368.245; -192.700; -960.000; -841.000
368.376;   -9.300; -254.000; -302.000
368.508;  -44.500; -188.000; -263.000
368.639; -230.700;-1166.000;-1034.000
368.770;   -8.900; -670.000; -589.000
368.902;  -90.400; -836.000; -926.000
369.033; -181.800; -906.000; -855.000
369.164;  -47.100; -720.000; -653.000
369.296; -179.900; -452.000; -601.000
369.427;   36.800; -209.000; -144.000
369.558;  -48.900; -593.000; -377.000
369.689; -150.100; -721.000; -569.000
369.821; -215.600; -951.000; -845.000
369.952;   -4.000;   42.000; -108.000
370.083;  -53.700; -229.000; -108.000
370.214; -105.000; -735.000; -650.000
370.345;   22.600;   65.000;   81.000
370.477;  -87.100; -810.000; -790.000
370.608;  444.400; -328.000; -264.000
370.739;  -94.500;-1233.000;-1292.000
370.870;  -89.500;-1102.000; -923.000
371.001;  236.200; -378.000; -467.000
371.132; -116.500; -754.000; -735.000
371.263;   12.200;  -42.000; -148.000
371.394; -230.600; -841.000; -748.000
371.525;  137.700;  345.000;  225.000
371.657; -161.400; -808.000; -670.000
371.788;  185.200;  103.000;  199.000
371.919;  334.300; -384.000; -304.000
372.050; 7034.100;  -91.000; -156.000
372.181; 1961.900; -188.000; -294.000
372.311;  748.500;   42.000; -127.000
372.442;   98.800; -457.000; -451.000
372.573;   22.700; -444.000; -340.000
372.704; -224.000;-1008.000; -980.000
372.835;  212.400; -228.000; -289.000
372.966;  -98.000; -646.000; -554.000
373.097;  -59.300; -575.000; -711.000
373.228;  -43.800; -717.000; -542.000
373.359;  282.900; -824.000; -536.000
373.490; 1822.000; -881.000; -727.000
373.620; 2269.200;-1001.000; -803.000
373.751; 3473.800; -332.000; -396.000
373.882; 1464.500; -663.000; -733.000
374.013;  161.200; -449.000; -262.000
374.143;   -7.600; -581.000; -659.000
374.274; -187.400; -987.000; -908.000
374.405;  389.700; -388.000; -276.000
374.536;  908.200; -526.000; -387.000
374.666; 2130.700; -759.000; -807.000
374.797;  443.400; -817.000; -868.000
374.928; 1675.800; -710.000; -560.000
375.058; 1669.500; -535.000; -500.000
375.189;  206.500;  -59.000;  -93.000
375.320; -182.300; -928.000;-1034.000
375.450;  -44.100; -625.000; -616.000
375.581;  -53.700; -526.000; -436.000
375.712;   -5.900; -574.000; -250.000
375.842;  641.100; -438.000; -415.000
375.973;  438.800; -554.000; -513.000
376.103;  -51.800; -665.000; -648.000
376.234; -118.600; -531.000; -552.000
376.364;  -85.300; -944.000; -867.000
376.495;  726.500;  925.000;  529.000
376.625;   15.300; -472.000; -485.000
376.756;  116.400; -709.000; -678.000
376.886; -144.400;-1178.000;-1026.000
377.017;  127.900;-1048.000;-1061.000
377.147;  687.700; -786.000; -782.000
377.278;  192.800;  174.000;  228.000
377.408; -218.400; -801.000; -815.000
377.538; -133.600; -707.000; -693.000
377.669; -129.900; -537.000; -613.000
377.799; -140.700; -645.000; -635.000
377.929;  -71.400; -610.000; -428.000
378.060; -194.200; -781.000; -847.000
378.190;  -75.900; -726.000; -531.000
378.320;  -47.900; -401.000; -406.000
378.451;   60.400; -131.000;  -22.000
378.581;   50.100;  -67.000; -110.000
378.711;  365.200; 1035.000;  866.000
378.841;   -8.800; -533.000; -675.000
378.972; -120.900; -871.000; -751.000
379.102;   67.200; -652.000; -579.000
379.232;   -6.300; -126.000;  -73.000
379.362; -193.800;-1001.000; -885.000
379.492;   23.900; -373.000; -424.000
379.623;  264.600;    0.000;  111.000
379.753; -158.700;-1107.000; -974.000
379.883;  448.100;   59.000;  156.000
380.013;   30.700;-1081.000;-1017.000
380.143; -164.500;-1097.000;-1056.000
380.273; -167.100; -985.000; -861.000
380.403;   65.000; -344.000; -257.000
380.533;    3.900; -651.000; -664.000
380.663;  207.200;  173.000;  128.000
380.793; -168.600;-1027.000;-1074.000
380.923;   37.000; -103.000;  -34.000
381.053; -141.400; -613.000; -623.000
381.183;   12.000; -106.000; -248.000
381.313;  110.800; -656.000; -470.000
381.443;  149.900; -692.000; -473.000
381.573;  416.500; -402.000; -409.000
381.703;  569.300;-1249.000;-1095.000
381.833; -227.400;-1454.000;-1336.000
381.963;  260.500; -134.000;  -87.000
382.093; 2710.500; -925.000; -909.000
382.223;  801.400; -713.000; -602.000
382.353;   -6.100; -801.000; -608.000
382.482;  817.800;-1091.000; -964.000
382.612; 1522.100; -872.000; -644.000
382.742;  845.300; -695.000; -622.000
382.872;  518.500; -565.000; -551.000
383.002;  182.100;  347.000; -132.000
383.131;   -3.800; -226.000; -160.000
383.261;  -29.800; -706.000; -768.000
383.391;  627.000; -552.000; -377.000
383.521; 6362.200;  451.000;  263.000
383.650; 1359.000; -947.000; -904.000
383.780;   13.600; -783.000; -656.000
383.910;  264.200;  880.000;  802.000
384.039;  101.300; -794.000; -656.000
384.169;  438.200;-1205.000;-1017.000
384.299;    5.400; -650.000; -662.000
384.428; -130.100; -764.000; -680.000
384.558;  -20.600; -308.000; -275.000
384.687;  -44.300; -414.000; -334.000
384.817;  126.500;   75.000;   -2.000
384.947;   94.800; -234.000; -141.000
385.076;  614.500;  982.000;  912.000
385.206;  304.000;  369.000;  480.000
385.335;    4.400; -549.000; -417.000
385.465;  -94.900; -655.000; -663.000
385.594;  345.700;  -53.000;  -44.000
385.724;  829.900; -868.000; -838.000
385.853;  280.100; -296.000; -270.000
385.982; 2759.100; -743.000; -787.000
386.112; 4030.800;-1052.000; -871.000
386.241;  257.300; -307.000; -312.000
386.371;   71.100; -174.000;  -87.000
386.500;   82.000; -825.000; -789.000
386.629;  104.300; -874.000; -817.000
386.759;  193.800;  -43.000;   68.000
386.888;   50.400; -170.000; -250.000
387.017;  -92.000; -648.000; -620.000
387.147; -144.300; -771.000; -798.000
387.276;   46.600; -410.000; -397.000
387.405;   72.500; -398.000; -342.000
387.535;  -14.700; -452.000; -361.000
387.664;  -52.900; -692.000; -620.000
387.793;  183.000; -198.000; -113.000
387.922; 1084.900;  255.000;  200.000
388.052;   31.300; -576.000; -423.000
388.181;   84.700; -342.000; -472.000
388.310;   24.000; -889.000; -710.000
388.439;  -65.600; -749.000; -742.000
388.568;  401.300;  365.000;  244.000
388.697; 2058.700; -756.000; -653.000
388.826;  406.200; -768.000; -666.000
388.956;  179.800; -285.000; -307.000
389.085;    4.400; -347.000; -287.000
389.214; -157.700; -842.000; -872.000
389.343;  -88.200; -645.000; -413.000
389.472;  867.500;  126.000;  149.000
389.601; 1049.300;   91.000;    0.000
389.730;   72.100; -568.000; -687.000
389.859;  181.100;  226.000;   46.000
389.988;  397.000; -423.000; -408.000
390.117;  271.600; -168.000; -146.000
390.246;   70.600; -331.000; -320.000
390.375;  240.000; -673.000; -626.000
390.504;  -69.000; -703.000; -621.000
390.633; -172.300; -672.000; -726.000
390.761; -101.300; -732.000; -645.000
390.890;   75.000;   -4.000; -130.000
391.019;  -19.800; -421.000; -441.000
391.148; -215.900; -826.000; -855.000
391.277;  -71.200; -576.000; -493.000
391.406; -125.400; -821.000; -805.000
391.534;  117.200;  574.000; -301.000
391.663;  -80.400; -583.000; -645.000
391.792; -128.800; -673.000; -701.000
391.921;  213.900;   -3.000;   15.000
392.050;  411.400; -287.000; -228.000
392.178;  -63.000;-1206.000;-1061.000
392.307;  309.800; -758.000; -712.000
392.436;  142.000; -427.000; -641.000
392.564;  106.600;  166.000;   -6.000
392.693; -139.800; -860.000; -682.000
392.822;  445.000; -529.000; -534.000
392.950;  159.500; -880.000; -714.000
393.079;  643.400; -188.000; -328.000
393.208;   77.000; -488.000; -511.000
393.336;    5.500; -170.000; -145.000
393.465;  -12.100; -317.000; -199.000
393.593;   94.000;   62.000;   79.000
393.722; -268.800;-1121.000; -916.000
393.850;    6.000; -188.000;  -61.000
393.979; -243.600; -926.000; -805.000
394.107;  -57.900; -517.000; -537.000
394.236;   -4.400; -570.000; -507.000
394.364;  603.000;  383.000;  206.000
394.493; 1091.200; -911.000; -767.000
394.621;   56.300; -955.000; -916.000
394.750; 1485.300; -873.000; -923.000
394.878; 6129.100; -247.000; -149.000
395.007; 7722.000; -721.000; -807.000
395.135;  612.000; -790.000; -721.000
395.263; -149.200;-1038.000;-1040.000
395.392;  103.100;  -25.000; -107.000
395.520; -241.400; -818.000; -679.000
395.648; -125.900; -865.000; -915.000
395.777;   38.700; -366.000; -405.000
395.905;    2.700; -449.000; -564.000
396.033;  126.600;  217.000;  172.000
396.162; 1782.300; -399.000; -453.000
396.290; 1476.900;  -17.000;   -2.000
396.418;  276.100; -555.000; -514.000
396.546; -138.300; -571.000; -466.000
396.674; -140.200; -850.000; -878.000
396.803;   82.000;  -72.000;  -23.000
396.931;  250.400; -179.000; -199.000
397.059;   65.600;-1026.000; -989.000
397.187; -200.100;-1026.000; -975.000
397.315; -212.700; -884.000; -649.000
397.443; -145.000; -592.000; -443.000
397.572; -129.500; -578.000; -424.000
397.700;   50.200; -607.000; -614.000
397.828;   53.700;  120.000;  -90.000
397.956;   -4.000; -508.000; -478.000
398.084; -121.300; -767.000; -626.000
398.212;  164.200;  137.000;  124.000
398.340;  138.600;  -56.000;  159.000
398.468;  114.400; -390.000; -169.000
398.596; -217.000; -993.000; -953.000
398.724; -201.600; -762.000; -767.000
398.852; -265.700;-1024.000; -976.000
398.980;  -72.300; -560.000; -560.000
399.108;  -76.200; -982.000; -735.000
399.236;  153.800;   13.000;    8.000
399.363;   81.000;  222.000;  196.000
399.491;  -71.400; -404.000; -398.000
399.619; -225.700; -829.000; -800.000
399.747; -189.200; -859.000; -771.000
399.875;  197.400;  220.000;  234.000
400.003;  -46.200; -359.000; -284.000
400.130; -113.300; -421.000; -341.000
400.258;   -8.700;  -83.000;   38.000
400.386;  -72.400; -352.000; -168.000
400.514;  -24.000; -526.000; -587.000
400.641; -101.900; -928.000; -802.000
400.769; -214.400; -979.000; -888.000
400.897; -141.700; -838.000; -793.000
401.025;   41.200; -166.000; -152.000
401.152;   84.000;  220.000;   38.000
401.280; -111.600; -430.000; -429.000
401.408; -169.400; -712.000; -576.000
401.535; -183.300; -735.000; -758.000
401.663; -307.300;-1134.000;-1054.000
401.790; -110.400; -514.000; -525.000
401.918;  122.400;  436.000;  405.000
402.046;   25.600;  134.000;  122.000
402.173;  -31.900;  -18.000;    7.000
402.301; -107.100; -519.000; -397.000
402.428;  127.500;  528.000;  383.000
402.556; -238.100;-1188.000; -913.000
402.683;   -4.600;  -20.000;   -1.000
402.811;   26.800;  -37.000; -206.000
402.938;   33.500;   20.000;   27.000
403.066;  379.600; -574.000; -558.000
403.193;  642.000;  299.000;  239.000
403.321;  532.200; -396.000; -574.000
403.448;  591.200;   83.000;   27.000
403.575;  334.500;  -90.000;  -46.000
403.703; -141.500; -732.000; -557.000
403.830;  -77.800; -531.000; -496.000
403.957; -245.000;-1117.000;-1023.000
404.085;   68.200;  -61.000; -172.000
404.212;  243.000;  -50.000;   63.000
404.339;  600.000; -566.000; -306.000
404.467;11916.100; -612.000; -524.000
404.594; 7204.300; -287.000; -227.000
404.721; 1650.500; -869.000; -764.000
404.848;  241.000; -113.000; -202.000
404.976; -146.700; -856.000; -783.000
405.103;   98.000;  -14.000;  -82.000
405.230;   50.500;  190.000;  226.000
405.357;  130.900;  117.000;   44.000
405.484;  608.100;  -49.000;    5.000
405.612;  141.400; -548.000; -563.000
405.739;  -74.000; -488.000; -243.000
405.866;  256.900;  669.000;  385.000
405.993;  -10.000; -398.000; -102.000
406.120; -199.600; -801.000; -887.000
406.247;  -31.800; -323.000; -342.000
406.374;  941.200;  540.000;  629.000
406.501;  227.500; -632.000; -702.000
406.628;  -75.300; -621.000; -589.000
406.755; -157.500; -803.000; -620.000
406.882;   16.000; -228.000; -277.000
407.009; -170.600; -719.000; -628.000
407.136;  186.700; -480.000; -401.000
407.263;  270.700; -939.000; -829.000
407.390;  -81.000; -692.000; -614.000
407.517; -276.500;-1139.000;-1187.000
407.644;  -55.600; -332.000; -256.000
407.771;  -83.400; -249.000; -287.000
407.898;  112.800;  168.000;  328.000
408.025;  -84.300; -421.000; -313.000
408.151;   51.500;   82.000;  153.000
408.278;  -74.300; -267.000; -216.000
408.405; -190.200; -931.000; -899.000
408.532;  -90.500; -549.000; -542.000
408.659; -186.700; -677.000; -648.000
408.785; -372.800;-1298.000;-1170.000
408.912;  -71.100; -412.000; -296.000
409.039; -181.700; -610.000; -686.000
409.166; -168.700; -591.000; -555.000
409.292; -169.300; -571.000; -534.000
409.419; -166.600; -665.000; -649.000
409.546; -121.100; -431.000; -192.000
409.672; -193.600; -713.000; -545.000
409.799;   -6.700;  -36.000;   34.000
409.926;  -28.700; -180.000; -179.000
410.052; -331.900;-1127.000;-1091.000
410.179;  -77.900; -368.000; -392.000
410.305;  -98.200; -375.000; -493.000
410.432;   28.600; -220.000; -333.000
410.558; -121.600; -305.000; -380.000
410.685; -139.400; -688.000; -431.000
410.812; -127.700; -409.000; -588.000
410.938; -225.400; -964.000; -808.000
411.065; -178.300; -671.000; -645.000
411.191;   34.000; -189.000; -174.000
411.317; -175.800; -823.000; -742.000
411.444;  -49.300; -317.000; -246.000
411.570;  -93.800; -339.000; -294.000
411.697; -192.500; -758.000; -752.000
411.823; -287.200; -989.000; -999.000
411.949;   -9.600;  -56.000;   17.000
412.076; -192.400; -539.000; -519.000
412.202; -160.000; -758.000; -757.000
412.329; -199.000; -798.000; -752.000
412.455; -170.000; -821.000; -657.000
412.581;    0.100;  -15.000;  172.000
412.707;  -78.700; -540.000; -457.000
412.834;  106.700;  156.000;  219.000
412.960; -120.100; -785.000; -784.000
413.086; -158.300; -743.000; -701.000
413.212;  367.600;  604.000;  578.000
413.339;  -87.500; -685.000; -701.000
413.465;   60.500; -364.000; -310.000
413.591; -126.300; -757.000; -474.000
413.717;  -51.100; -358.000; -366.000
413.843; -224.300; -839.000; -861.000
413.969;  -66.800;  -47.000; -292.000
414.096; -158.000; -679.000; -679.000
414.222;   52.700;  -33.000;   85.000
414.348;   -6.600; -652.000; -385.000
414.474;  237.800;   38.000;  -52.000
414.600;   43.700; -126.000; -144.000
414.726;   42.100;  -96.000;  -55.000
414.852;  -30.900; -365.000; -342.000
414.978;  123.100;  104.000;  -18.000
415.104;  167.600;   38.000;   80.000
415.230;  133.100; -329.000; -330.000
415.356;  143.900; -409.000; -514.000
415.482;  448.400;   13.000;  -35.000
415.608;  612.100; -247.000; -323.000
415.734; 2116.700;   67.000;   38.000
415.860;41823.000; -875.000; -767.000
415.986;26910.400; -685.000; -607.000
416.111; 2296.400; -798.000; -652.000
416.237;  517.300; -424.000; -571.000
416.363; 2547.700; -765.000; -733.000
416.489; 8305.300; -324.000; -251.000
416.615;  792.600; -707.000; -742.000
416.741;   39.000; -677.000; -784.000
416.866; -154.300; -673.000; -736.000
416.992; -205.500; -801.000; -818.000
417.118;    9.400;  -41.000;  -80.000
417.244;  -62.500; -798.000; -531.000
417.369; -145.200; -801.000; -612.000
417.495;   62.400; -325.000; -254.000
417.621; -159.900;-1015.000; -803.000
417.746;   84.500; -579.000; -572.000
417.872;  131.900; -254.000; -144.000
417.998;  154.300; -515.000; -530.000
418.123; 2402.400;-1073.000; -845.000
418.249;10670.900; -512.000; -601.000
418.374; 1306.000; -916.000; -824.000
418.500;  310.100; -383.000; -482.000
418.626;  329.200;   70.000;  -59.000
418.751;  266.800; -549.000; -448.000
418.877;  459.700; -637.000; -643.000
419.002; 4057.800; -688.000; -560.000
419.128;25334.300; -930.000; -721.000
419.253; 5433.000; -967.000; -837.000
419.379;  841.100; -391.000; -338.000
419.504;  854.800;  325.000;  415.000
419.629; 1041.400; -393.000; -212.000
419.755; 7860.000; -317.000; -254.000
419.880;42054.600;  -98.000;   67.000
420.006;23635.500; -280.000; -221.000
420.131;56164.300; -662.000; -775.000
420.256; 7287.700; -315.000; -316.000
420.382; 1024.200; -665.000; -687.000
420.507;  159.600; -649.000; -778.000
420.632;  327.300; -337.000; -339.000
420.758;  470.300; -251.000; -425.000
420.883; -135.300; -876.000; -672.000
421.008; -150.500; -775.000; -619.000
421.133; -103.900; -509.000; -467.000
421.259;  -46.600; -325.000; -259.000
421.384; -213.100; -834.000; -693.000
421.509;  -41.900;-1052.000; -862.000
421.634; 2269.800; -936.000; -820.000
421.759;  877.300; -359.000; -327.000
421.885;  -55.500; -717.000; -656.000
422.010;  -80.400; -673.000; -542.000
422.135; -244.700; -695.000; -727.000
422.260;  163.800;  340.000;  280.000
422.385;  -49.800;   12.000;  -98.000
422.510;  103.400;  151.000;  -26.000
422.635;  115.600;  -87.000;  -43.000
422.760;  243.800; -766.000; -791.000
422.885;  173.700;  -57.000;  -80.000
423.010;    2.200; -112.000; -169.000
423.135; -138.100; -481.000; -561.000
423.260;   30.200; -150.000; -245.000
423.385;  212.200;  476.000;  222.000
423.510;  158.400;   71.000;  -22.000
423.635;  239.300;  133.000;   45.000
423.760;  186.700;  383.000;  328.000
423.885;  155.400;  336.000;  391.000
424.010;  103.200;  -68.000;  -13.000
424.135;   25.600;    5.000;  -33.000
424.259; -131.300; -654.000; -457.000
424.384;  -38.600; -279.000; -272.000
424.509;  -19.300; -260.000; -186.000
424.634; -151.800; -761.000; -623.000
424.759;   22.300; -688.000; -544.000
424.883;   27.000; -506.000; -527.000
425.008;  401.000; -502.000; -410.000
425.133; 4146.400; -679.000; -653.000
425.258; 1751.800; -517.000; -381.000
425.382; 2113.400; -867.000; -774.000
425.507; 4825.900; -487.000; -543.000
425.632;  771.700; -802.000; -663.000
425.756; 1016.500; -256.000; -146.000
425.881;14581.500; -831.000; -857.000
426.006;34558.800; -604.000; -355.000
426.130; 4875.800; -696.000; -508.000
426.255;  658.400; -611.000; -491.000
426.379;  353.300; -189.000; -577.000
426.504;  887.000;  660.000;  544.000
426.629; 8610.200; -519.000; -466.000
426.753; 5168.400;   64.000;  -46.000
426.878;  656.500; -252.000; -288.000
427.002;  445.600; -651.000; -668.000
427.127; 3587.200;  -35.000; -158.000
427.251;23109.800;  372.000;  401.000
427.375; 5771.500; -191.000; -173.000
427.500; 4458.400; -616.000; -610.000
427.624; 1350.500; -234.000; -400.000
427.749;  219.900; -216.000; -225.000
427.873;  -64.300; -499.000; -412.000
427.997;  -20.500; -222.000; -230.000
428.122;  224.800;  795.000;  703.000
428.246;  243.600;  433.000;  434.000
428.371; -195.500; -869.000; -773.000
428.495; -130.800; -624.000; -646.000
428.619;   -2.000; -186.000; -117.000
428.743;  121.200;   65.000;  132.000
428.868;   90.500; -732.000; -643.000
428.992; 2781.200; -219.000; -326.000
429.116; 1017.700; -329.000; -357.000
429.240;  551.900;  419.000;  426.000
429.365;  -11.200; -454.000; -574.000
429.489;    5.200; -638.000; -647.000
429.613;  106.500; -236.000; -177.000
429.737;  144.500; -563.000; -432.000
429.861;  609.200; -247.000; -133.000
429.985;11919.000; -425.000; -305.000
430.109;11556.300; -770.000; -908.000
430.234; 1313.300;   76.000;  -50.000
430.358;  183.500; -250.000; -160.000
430.482;  -74.300; -672.000; -564.000
430.606;  -61.100; -655.000; -375.000
430.730;   84.500; -437.000; -388.000
430.854;  239.300; -909.000; -835.000
430.978;  -55.600; -795.000; -764.000
431.102; -104.200; -499.000; -422.000
431.226; -188.300; -874.000; -815.000
431.350;  152.000;  345.000;  422.000
431.474;  -67.200; -661.000; -373.000
431.597; -253.300;-1060.000; -848.000
431.721;  -98.300; -276.000; -267.000
431.845; -215.500; -704.000; -472.000
431.969;  -75.300; -304.000; -349.000
432.093; -103.400; -395.000; -317.000
432.217;   72.200;   32.000;   82.000
432.341; -126.600; -523.000; -518.000
432.464;   66.400;   96.000;   40.000
432.588;  459.400; -401.000; -329.000
432.712;  238.200;  -52.000;  -52.000
432.836;  154.600;  213.000;  263.000
432.959;   22.200; -372.000; -311.000
433.083;  238.500;   11.000;    2.000
433.207;  833.500;  285.000;  930.000
433.330;10886.400; -391.000; -200.000
433.454;12015.100; -654.000; -638.000
433.578; 7126.000;  583.000;  278.000
433.701; 1186.200; -623.000; -675.000
433.825;  324.900; -292.000; -299.000
433.949;  392.900;   28.000;  -72.000
434.072;  154.600; -410.000; -323.000
434.196;   61.300; -309.000; -117.000
434.319; 8345.200;25482.000;25124.000
434.443; 1679.200; -656.000; -603.000
434.566; 5283.700;  281.000;   62.000
434.690;  819.100; -637.000; -383.000
434.813;  104.700; -251.000; -173.000
434.937;  -76.800; -569.000; -696.000
435.060;  -31.500; -423.000; -332.000
435.184;  677.700; -492.000; -217.000
435.307;  344.800;  159.000;  102.000
435.431;   52.100;  -40.000;   24.000
435.554; -103.400; -399.000; -240.000
435.677; -113.100; -350.000; -258.000
435.801;  -32.100;  -25.000;   49.000
435.924;   36.000;    1.000;  -67.000
436.048; -173.800;-1019.000; -732.000
436.171;  -68.900; -240.000;  -66.000
436.294;   28.900; -248.000; -229.000
436.417;  257.700; -963.000; -849.000
436.541; -131.400; -814.000; -840.000
436.664;  -10.400; -242.000; -316.000
436.787;   21.400;   13.000;  113.000
436.910; -153.500; -792.000; -422.000
437.034;   83.700;  142.000;  143.000
437.157;  167.700;  -11.000;    0.000
437.280;  -60.200; -392.000; -292.000
437.403; -124.000; -982.000; -869.000
437.526; 1350.900; -903.000; -865.000
437.649; 4214.400; -505.000; -332.000
437.772;  511.600; -692.000; -540.000
437.896;  291.700;  700.000;  544.000
438.019; -115.800; -758.000; -503.000
438.142; -121.100; -596.000; -506.000
438.265;   44.500; -639.000; -670.000
438.388; 1156.800; -520.000; -410.000
438.511;  205.400; -597.000; -394.000
438.634;  -28.700; -247.000; -125.000
438.757; -182.900; -693.000; -619.000
438.880;   12.100;  -34.000;  -57.000
439.003; -112.100; -417.000; -437.000
439.126;  -61.400; -287.000; -167.000
439.248;  -86.900;  -98.000; -139.000
439.371;    5.400;    9.000;  -53.000
439.494;  145.700;  510.000;  439.000
439.617;  -24.000;   65.000;  -88.000
439.740; -302.300; -968.000; -816.000
439.863; -226.200; -755.000; -595.000
439.986; -193.100; -476.000; -431.000
440.108;   -7.800; -161.000; -112.000
440.231; -264.400; -950.000; -836.000
440.354;    1.900;  -64.000; -150.000
440.477;  110.000; -566.000; -542.000
440.599;   64.500; -200.000; -225.000
440.722; -170.200; -709.000; -586.000
440.845;  236.000;  751.000;  928.000
440.968; -135.600; -415.000; -311.000
441.090;  -43.100; -199.000;  -33.000
441.213; -287.300;-1021.000; -825.000
441.336;  -40.900; -159.000;   -5.000
441.458; -106.700; -549.000; -396.000
441.581; -110.800; -628.000; -629.000
441.703;  -84.400; -152.000;   13.000
441.826; -169.800; -557.000; -400.000
441.948;  -42.200;   56.000;   51.000
442.071;  165.400;  555.000;  424.000
442.193; -193.700; -531.000; -485.000
442.316;   94.400;  152.000;   97.000
442.438;  146.300; -233.000;  -10.000
442.561;  222.000;  272.000;  262.000
442.683; 1184.100; -809.000; -522.000
442.806; 2121.200;   -8.000;   74.000
442.928;    5.000; -859.000; -604.000
443.051;  -76.500; -577.000; -373.000
443.173; -154.800; -341.000; -339.000
443.295; -100.200; -263.000; -371.000
443.418;  -65.900; -321.000;  -29.000
443.540;   37.500; -106.000;   -4.000
443.662; -187.700; -563.000; -465.000
443.785;   32.600;  335.000;  199.000
443.907; -158.900; -362.000; -208.000
444.029; -217.800; -767.000; -494.000
444.152; -252.600; -644.000; -554.000
444.274;    0.800;  -18.000;  -24.000
444.396; -184.500; -461.000; -221.000
444.518; -181.000; -691.000; -454.000
444.640; -136.800; -268.000; -111.000
444.763;   48.900;  388.000;  249.000
444.885; -184.300; -432.000; -392.000
445.007;  -13.900;   35.000;   86.000
445.129; -167.900; -610.000; -515.000
445.251; -110.000; -372.000; -439.000
445.373; -222.700; -537.000; -386.000
445.495;   96.200;  242.000;  350.000
445.617;  158.800;  853.000;  753.000
445.739;  -63.300; -215.000;  -97.000
445.861;    7.400; -245.000; -112.000
445.984;   20.100; -267.000; -101.000
446.105;  434.200; -418.000; -251.000
446.227; 1126.200; -176.000;  -19.000
446.349;   51.900; -358.000; -249.000
446.471; -122.400; -615.000; -448.000
446.593;  -82.200; -316.000;   19.000
446.715;   75.400;  -67.000;   41.000
446.837;  206.200;  697.000;  832.000
446.959; -123.000; -457.000; -478.000
447.081; -204.300; -628.000; -518.000
447.203;  172.500;  862.000;  834.000
447.325; -124.400; -270.000;   42.000
447.446;   80.900;  286.000;  530.000
447.568; -274.900; -921.000; -803.000
447.690;  -73.000; -236.000; -245.000
447.812; -249.000; -798.000; -519.000
447.933;   21.400;  155.000;  127.000
448.055;  -73.000; -306.000; -261.000
448.177;  392.800;   31.000;   79.000
448.299;  174.600; -935.000; -727.000
448.420;  121.900;  -25.000;  159.000
448.542;  -15.600;   -3.000;   33.000
448.664;   33.600;  109.000;  322.000
448.785;   -6.300;  265.000;   83.000
448.907;  -95.300; -614.000; -353.000
449.028;   -4.400; -771.000; -471.000
449.150;  218.500;  492.000;  589.000
449.272; -289.200;-1044.000; -913.000
449.393;  171.200;  612.000;  694.000
449.515; -243.800; -634.000; -581.000
449.636;  -21.100; -264.000; -155.000
449.758;  219.900;  763.000;  622.000
449.879;  -96.000; -498.000; -396.000
450.001;  -96.000; -149.000;  -49.000
450.122;   20.500;  -95.000;  162.000
450.244;   25.600;   37.000;  364.000
450.365; -112.900; -495.000; -301.000
450.486;   16.300;   80.000;  268.000
450.608;   50.600;  393.000;  326.000
450.729;  221.000;  578.000;  645.000
450.850;   95.900; -574.000; -466.000
450.972; 1718.800; -552.000; -389.000
451.093;10381.200;  190.000;  588.000
451.214; 3866.800; -516.000; -337.000
451.336;  794.100;  773.000;  579.000
451.457;  206.600;  264.000;  393.000
451.578;   -3.800; -118.000;  -74.000
451.699; -198.200; -546.000; -540.000
451.821;  -45.300; -284.000;  -50.000
451.942;   33.500;  278.000;  285.000
452.063;  123.900;  228.000;  419.000
452.184; 1305.700;  -54.000;  -49.000
452.305; 2209.800;  103.000;  170.000
452.427;  252.100; -549.000; -301.000
452.548;   60.900;   23.000;   79.000
452.669;  -30.700; -257.000;  -89.000
452.790;    4.700;    3.000;  -18.000
452.911;   54.000;  195.000;  259.000
453.032;  -58.600; -289.000;  -60.000
453.153;   -8.600;  -29.000;   81.000
453.274;  213.500;  737.000;  868.000
453.395;  -12.100;  -51.000;  175.000
453.516;  149.300; 1317.000; 1388.000
453.637;  -72.400; -205.000; -150.000
453.758;  -28.300;   15.000;   69.000
453.879; -183.900; -462.000; -250.000
454.000;  266.200; 1086.000;  948.000
454.121; -164.000; -554.000; -326.000
454.242; -195.100; -599.000; -383.000
454.362;  -40.900;  -99.000;  114.000
454.483;   -1.400; -309.000; -229.000
454.604;  171.300;  512.000;  580.000
454.725; -210.800; -627.000; -555.000
454.846; -208.000; -474.000; -406.000
454.967;   54.200;  230.000;  539.000
455.087;  -33.600;  179.000;  153.000
455.208;  121.300;  554.000;  856.000
455.329;  -80.700;  -22.000;   82.000
455.450;  171.300;  473.000;  633.000
455.570; -113.300; -234.000; -211.000
455.691;  -10.000;  201.000;  407.000
455.812; -133.700; -270.000;  -92.000
455.932;  -33.200;  107.000;  -97.000
456.053;  -80.100;   36.000;   24.000
456.173; -145.000; -433.000; -355.000
456.294; -165.100; -476.000; -303.000
456.415;  -33.700;  -73.000;   70.000
456.535;    7.200;  297.000;  273.000
456.656;  -12.100;  132.000;  240.000
456.776;  -60.500;    3.000;  298.000
456.897;   97.700;  308.000;  513.000
457.017; -112.700; -153.000;   -3.000
457.138; -147.500; -402.000; -249.000
457.258;  -27.600;  263.000;  224.000
457.379;   46.400;  509.000;  521.000
457.499;   26.200;  443.000;  432.000
457.620; -181.000; -407.000; -231.000
457.740; -127.800; -132.000;  -11.000
457.860;  -52.600;   87.000;   44.000
457.981;  -10.300;  132.000;  124.000
458.101; -102.800;  -89.000;   40.000
458.221;   34.600;  336.000;  402.000
458.342;  -14.200;   -4.000;  -37.000
458.462;  112.600;  617.000;  352.000
458.582;   -3.400; -302.000; -294.000
458.703;   61.900;  303.000;  154.000
458.823;   -8.800;   22.000;  163.000
458.943;  144.100;  341.000;  467.000
459.063;   33.100; 1124.000;  192.000
459.183;   13.800;  328.000;  313.000
459.304;   77.700;  315.000;  517.000
459.424;  -84.400; -246.000;  -89.000
459.544;  788.800;  388.000;  764.000
459.664; 1712.400;  499.000;  506.000
459.784;  602.100; 1004.000; 1175.000
459.904;  197.700;  867.000;  744.000
460.024;  220.200;  867.000;  684.000
460.144;   84.300;  449.000;  554.000
460.264;   45.900;  515.000;  327.000
460.385; -143.800; -145.000; -119.000
460.505;  181.100;  905.000;  858.000
460.625; -130.700;  -17.000;  -68.000
460.745;   59.300;  396.000;  541.000
460.864;  -12.800;  153.000;  469.000
460.984;  125.600;  499.000;  573.000
461.104;  341.800; 1656.000; 1775.000
461.224;  112.100;  657.000;  650.000
461.344;   -1.500;  431.000;  360.000
461.464;   21.900;  258.000;  513.000
461.584;   13.700;  283.000;  466.000
461.704;  -25.900;   58.000;  108.000
461.824;  -47.200;  238.000;  259.000
461.943;   -2.500;  191.000;  130.000
462.063;  -93.700;    2.000;  324.000
462.183;  132.100;  639.000;  717.000
462.303;  250.700; 1678.000; 1230.000
462.422;  133.200;  781.000;  840.000
462.542;    2.300;  271.000;  391.000
462.662;  141.300;  353.000;  380.000
462.782;  563.200;  833.000;  572.000
462.901; 1023.100;  545.000;  717.000
463.021;  594.400; 1702.000; 1638.000
463.141;   68.500;  337.000;  770.000
463.260;   28.400;  614.000;  474.000
463.380;   95.600;  902.000;  884.000
463.499;  -16.900;  342.000;  332.000
463.619;  -11.600;  581.000;  559.000
463.738;  320.700; 1644.000;  903.000
463.858;  112.400;  657.000;  811.000
463.978;    2.500;  542.000;  396.000
464.097;  187.800;  921.000; 1114.000
464.217;  312.800; 1196.000; 1143.000
464.336;  307.500; 1068.000; 1130.000
464.455;  -17.500;  328.000;  659.000
464.575;  166.500;  597.000;  602.000
464.694;  415.800; 1204.000; 1179.000
464.814;  313.600; 1190.000; 1138.000
464.933;  226.200; 1095.000; 1027.000
465.052;  244.600; 1412.000; 1054.000
465.172;  249.600;  922.000;  799.000
465.291;  360.700; 1376.000; 1320.000
465.410;   94.000;  462.000;  735.000
465.530;  270.500; 1355.000; 1310.000
465.649;  200.500; 1209.000; 1273.000
465.768;  376.200; 1673.000; 1508.000
465.888;  161.300;  941.000; 1174.000
466.007;  281.700; 1335.000; 1440.000
466.126;   47.200;  721.000;  641.000
466.245;  181.500; 1176.000; 1187.000
466.364;  141.500;  950.000; 1060.000
466.484;  152.200; 1024.000; 1213.000
466.603;  156.500; 1101.000; 1222.000
466.722;  336.000; 1490.000; 1769.000
466.841;  224.000; 1151.000; 1401.000
466.960;  160.300; 1069.000;  972.000
467.079;  312.500; 1971.000; 1786.000
467.198;  175.800; 1238.000; 1181.000
467.317;  270.100; 1768.000; 1162.000
467.436;  236.000; 1709.000; 1261.000
467.555;  328.700; 1796.000; 1746.000
467.674;  202.900; 1227.000; 1329.000
467.793;  186.400; 1376.000; 1374.000
467.912;  266.000; 1658.000; 1539.000
468.031;  347.800; 2038.000; 1930.000
468.150;  342.800; 1842.000; 1837.000
468.269;  428.800; 2313.000; 2090.000
468.388;  493.700; 2168.000; 2339.000
468.507;  634.000; 2884.000; 2903.000
468.626;  662.900; 2555.000; 2541.000
468.744;  367.000; 2018.000; 2174.000
468.863;  502.100; 2312.000; 2523.000
468.982;  251.600; 1503.000; 1555.000
469.101;  505.100; 2788.000; 2692.000
469.220;  420.800; 2333.000; 2176.000
469.338;  610.200; 2935.000; 3051.000
469.457;  458.200; 2719.000; 2545.000
469.576;  834.700; 3953.000; 3784.000
469.695;  567.300; 2877.000; 3066.000
469.813;  953.900; 4148.000; 4192.000
469.932;  914.000; 4255.000; 4485.000
470.051;  993.400; 4075.000; 4161.000
470.169; 1894.300; 4470.000; 4338.000
470.288; 3102.500; 4700.000; 4809.000
470.406; 1762.000; 5059.000; 5194.000
470.525; 1379.400; 6101.000; 5787.000
470.644; 1424.100; 6847.000; 6794.000
470.762; 1745.700; 8397.000; 7873.000
470.881; 1910.000; 8651.000; 8464.000
470.999; 2184.000; 9685.000; 9151.000
471.118; 2279.600;11174.000;10711.000

