
Integration time [ms]: 100.000
Averaging Nr. [scans]: 40
Smoothing Nr. [pixels]: 0
Data measured with spectrometer [name]: 2101012U2
Wave   ;Sample   ;Dark     ;Reference
[nm]   ;[counts] ;[counts] ;[counts] 

197.733;   48.075;  516.000;  404.000
197.879;  -75.000; -610.000; -634.000
198.025;  -44.625; -475.000; -420.000
198.171;  -72.375; -602.000; -612.000
198.317;  -32.750; -401.000; -316.000
198.463;  -60.350; -655.000; -404.000
198.609;   15.825;  181.000; -137.000
198.755;  -75.650; -644.000; -410.000
198.901;  -75.100; -505.000; -424.000
199.047;  -63.825; -615.000; -488.000
199.193;  -29.525; -230.000; -468.000
199.339;  -41.150; -222.000; -369.000
199.485;   44.100;  330.000;  271.000
199.631;   29.675;  227.000;  310.000
199.777;  -43.125; -466.000; -398.000
199.923;  -59.450; -610.000; -424.000
200.069;   -9.875; -141.000;  -58.000
200.215;   49.925;  128.000;  453.000
200.361;   36.775;  243.000;  477.000
200.507;  -56.725; -600.000; -373.000
200.653;  -14.250; -371.000; -194.000
200.798;  -32.250; -215.000; -125.000
200.944;   -4.175; -146.000;  -41.000
201.090;   36.275;   61.000;  222.000
201.236;   -6.425; -116.000; -158.000
201.382;  131.600;  874.000;  903.000
201.528;    1.075;  -58.000;  -48.000
201.674;  -39.125; -386.000; -293.000
201.819;  -70.125; -540.000; -439.000
201.965;  -84.550; -699.000; -447.000
202.111;  -28.375; -273.000; -226.000
202.257;  -50.450; -250.000; -238.000
202.402;   -5.050;   13.000;  -36.000
202.548;  -23.800; -169.000; -116.000
202.694;   85.600;  410.000; -183.000
202.840;  -63.800; -603.000; -531.000
202.985;  -70.100; -681.000; -639.000
203.131;  -97.800; -832.000; -666.000
203.277;  -30.575; -199.000; -262.000
203.423;  -50.550; -434.000; -520.000
203.568;  -42.250; -462.000; -237.000
203.714;  -54.400; -535.000; -542.000
203.860;  -85.700; -682.000; -641.000
204.005;   25.025;  112.000;  167.000
204.151;   78.725;  561.000;  556.000
204.296;  -48.325; -354.000; -221.000
204.442;  -68.500; -600.000; -547.000
204.588;  -61.525; -592.000; -579.000
204.733;   21.725;  178.000;  168.000
204.879; -129.250;-1018.000; -822.000
205.025;    9.500;  -99.000;  126.000
205.170;    2.875;  -17.000;   94.000
205.316;   81.725;  438.000;  661.000
205.461;  -83.025; -698.000; -554.000
205.607;   85.025;  609.000;  665.000
205.752;  -72.725; -626.000; -551.000
205.898;  -62.875; -501.000; -391.000
206.043;  -53.950; -578.000; -506.000
206.189;  -55.275; -243.000; -285.000
206.334;   81.450;  554.000;  606.000
206.480;   80.000;  409.000;  239.000
206.625;  -72.300; -529.000; -552.000
206.771;  -53.125; -451.000; -373.000
206.916;  -25.925; -210.000; -537.000
207.062;  -64.575; -545.000; -591.000
207.207;  -61.675; -546.000; -443.000
207.353;   46.450;  185.000;  460.000
207.498;   16.925;  196.000;   85.000
207.643;  -50.800; -501.000; -370.000
207.789; -117.750;-1069.000; -910.000
207.934;  -89.675; -665.000; -713.000
208.080;  -19.600; -154.000;   66.000
208.225;  -13.700;  -22.000;  -57.000
208.370;  -80.900; -727.000; -619.000
208.516;  -71.600; -741.000; -487.000
208.661;  -31.175; -127.000;  -69.000
208.806;  -15.325; -165.000; -171.000
208.952; -122.200;-1044.000; -731.000
209.097;   72.875;  378.000;  349.000
209.242;  -45.825; -307.000; -382.000
209.387;   59.475;  392.000;  350.000
209.533;  -37.975; -321.000; -350.000
209.678;   77.025;  472.000;  543.000
209.823;  -60.825; -408.000; -310.000
209.969; -100.950; -860.000; -757.000
210.114; -103.575; -907.000; -719.000
210.259; -116.850; -939.000; -889.000
210.404;    5.650; -171.000;  103.000
210.549;   17.500;  108.000;    3.000
210.695;  -21.050;   -3.000;  -95.000
210.840;   29.150;   94.000;   67.000
210.985;  -58.950; -484.000; -303.000
211.130;   62.725;  268.000;  406.000
211.275;   10.100;  207.000;  199.000
211.420;  -53.875; -300.000; -289.000
211.566;  -71.675; -536.000; -489.000
211.711;    9.475;  218.000;  157.000
211.856;  -60.225; -545.000; -519.000
212.001;    4.600;  151.000;   44.000
212.146;   26.250;  153.000;   49.000
212.291;  -18.275; -210.000; -186.000
212.436;  -40.750; -280.000;   -6.000
212.581;  -86.050; -685.000; -653.000
212.726;  -66.950; -487.000; -538.000
212.871;  -51.375; -552.000; -217.000
213.016; -151.100;-1172.000;-1029.000
213.161;   67.350;  406.000;  291.000
213.306;  -76.850; -435.000; -577.000
213.451;  -90.800; -778.000; -689.000
213.596;  -46.650; -455.000; -347.000
213.741;  -63.800; -448.000; -538.000
213.886;  -71.450; -498.000; -517.000
214.031;  -14.075; -294.000; -124.000
214.176;  -53.600; -408.000; -341.000
214.321;  -21.750; -296.000; -157.000
214.466;  -23.700; -163.000;  -43.000
214.611;    2.500;  -61.000;  -10.000
214.756; -107.350; -948.000; -858.000
214.901;  -31.850; -388.000; -226.000
215.046; -123.700; -797.000; -825.000
215.191;   14.100;  128.000;   35.000
215.336;  -11.475; -157.000;  -19.000
215.480;  -68.325; -684.000; -505.000
215.625;  -17.350; -175.000;  -19.000
215.770;  -74.725; -757.000; -662.000
215.915;   -5.375;   -5.000;  -97.000
216.060;  -10.950; -113.000;  -21.000
216.205; -116.550; -731.000; -779.000
216.349;  -71.325; -470.000; -533.000
216.494; -132.775; -939.000; -867.000
216.639; -114.025; -823.000; -888.000
216.784;  -80.500; -577.000; -525.000
216.929;   38.875;  392.000;  281.000
217.073;   -3.500; -244.000;  -31.000
217.218;   -4.950;   78.000;  -47.000
217.363;  -94.100; -656.000; -618.000
217.507;  -80.825; -623.000; -588.000
217.652; -111.675; -845.000; -874.000
217.797;  -82.975; -708.000; -659.000
217.942; -101.300; -856.000; -720.000
218.086;   62.675;  608.000;  539.000
218.231;  -26.600; -174.000;  -26.000
218.376;  -35.825; -337.000; -229.000
218.520;   -5.625;  -41.000;   96.000
218.665;  -37.900; -338.000; -204.000
218.810;  -45.250; -275.000; -233.000
218.954;    5.075;  201.000;   35.000
219.099; -114.550; -713.000; -963.000
219.243;  -68.675; -589.000; -554.000
219.388;  -23.275; -264.000; -136.000
219.532;  -13.125; -116.000; -116.000
219.677;  -71.375; -564.000; -521.000
219.822;   -7.400;   33.000;   89.000
219.966;    0.775;   17.000;  -99.000
220.111;  -31.525; -328.000;  -40.000
220.255; -100.025; -797.000; -750.000
220.400;  -19.775; -180.000; -146.000
220.544;  -62.875; -516.000; -450.000
220.689;  -56.100; -422.000; -451.000
220.833;  -21.675; -123.000;  -58.000
220.978;  -46.900; -393.000; -563.000
221.122;   27.125;  319.000;  307.000
221.267; -120.325; -906.000; -837.000
221.411;  -65.275; -478.000; -394.000
221.555;  -22.050; -104.000;  -23.000
221.700;  -43.150; -329.000; -222.000
221.844;   29.925;  255.000;  272.000
221.989;  -48.675; -328.000; -311.000
222.133;  -33.325; -289.000; -307.000
222.277;   -6.250;    5.000;   78.000
222.422;   20.200;  227.000;  113.000
222.566;  -37.800; -381.000; -214.000
222.711;  -54.400; -414.000; -479.000
222.855;  -70.500; -643.000; -586.000
222.999;  -92.050; -642.000; -717.000
223.144;  -24.400; -195.000; -194.000
223.288;   57.025;  423.000;  251.000
223.432;   28.475;  184.000;  230.000
223.576;   22.825;  152.000;  -21.000
223.721;   44.000;  364.000;  273.000
223.865;  -58.750; -472.000; -475.000
224.009;  263.900; 1673.000; 1631.000
224.153;  -74.400; -660.000; -671.000
224.298;  -67.675; -531.000; -489.000
224.442;  -19.725;  -74.000;  -33.000
224.586;   -4.725; -169.000; -106.000
224.730; -111.150; -858.000; -670.000
224.875; -102.075; -739.000; -688.000
225.019;    8.725;  102.000;  188.000
225.163;   49.525;  208.000;  341.000
225.307;   18.750;   97.000;  -91.000
225.451;   63.625;  360.000;  481.000
225.595;   23.250;  264.000;  176.000
225.739;  -13.675; -170.000;  -94.000
225.884;    8.975;   86.000;    5.000
226.028;  -83.350; -760.000; -626.000
226.172;  -41.475; -260.000; -273.000
226.316; -109.700; -941.000; -902.000
226.460;  -68.250; -645.000; -493.000
226.604;  -45.725; -406.000; -400.000
226.748;  -98.100; -836.000; -733.000
226.892;  -43.675; -227.000; -181.000
227.036;  -44.850; -537.000; -447.000
227.180;  -59.375; -551.000; -375.000
227.324;  -67.925; -561.000; -580.000
227.468; -114.475; -819.000; -717.000
227.612;   15.700;  242.000;  -28.000
227.756; -106.225; -845.000; -698.000
227.900;   47.350;  342.000;  441.000
228.044;  -63.550; -509.000; -290.000
228.188;   50.275;  448.000;  568.000
228.332;  -95.675; -546.000; -472.000
228.476;  -32.750; -223.000; -149.000
228.620;  -41.050; -210.000; -150.000
228.764;   55.300;  431.000;  349.000
228.908;  -23.875; -155.000;   30.000
229.052;  -58.375; -615.000; -528.000
229.195;  -11.900; -172.000;   13.000
229.339;  -29.725; -235.000; -305.000
229.483;  -16.825;    5.000; -162.000
229.627;    3.675; -156.000;  139.000
229.771;  -47.400; -218.000; -294.000
229.915;   -4.375;  230.000;   79.000
230.059;  -84.825; -648.000; -663.000
230.202;  -35.150; -370.000; -317.000
230.346;   -7.225; -107.000;  107.000
230.490;  -71.025; -489.000; -521.000
230.634;  -96.975; -736.000; -553.000
230.777;   74.700;  478.000;  509.000
230.921;  -51.250; -450.000; -359.000
231.065;  -40.200; -246.000; -286.000
231.209;   26.900;  261.000;  265.000
231.352;    6.875;   54.000;   40.000
231.496;   19.475;  568.000;  188.000
231.640;  -84.075; -693.000; -621.000
231.783;   52.775;  546.000;  525.000
231.927;  -48.350; -294.000; -365.000
232.071; -114.975; -962.000; -736.000
232.214; -115.450; -980.000; -764.000
232.358;  -93.350; -683.000; -599.000
232.502;    6.925;  -19.000;    7.000
232.645; -135.300;-1090.000; -927.000
232.789;  -13.700; -257.000; -218.000
232.933;  -48.425; -407.000; -224.000
233.076; -125.475;-1038.000; -897.000
233.220; -106.100; -752.000; -777.000
233.363;  -77.525; -669.000; -477.000
233.507;   66.400;  371.000;  129.000
233.650;  -99.475; -764.000; -834.000
233.794;   34.525;  438.000;  461.000
233.938;  -65.250; -530.000; -362.000
234.081;  -25.925;  -93.000;   31.000
234.225;  -75.650; -631.000; -539.000
234.368;  -96.300; -773.000; -723.000
234.512;  -41.300; -385.000; -299.000
234.655;  -87.975; -582.000; -555.000
234.798;  -61.700; -493.000; -466.000
234.942; -139.850; -884.000;-1002.000
235.085;  -72.850; -651.000; -443.000
235.229;  -75.350; -405.000; -410.000
235.372;  -46.250; -247.000; -191.000
235.516;  -58.400; -397.000; -321.000
235.659;   17.425;   92.000;  121.000
235.802;   -7.900;  -38.000;  -22.000
235.946;   26.425;  335.000;  215.000
236.089;   30.900;  126.000;  250.000
236.233;   47.450;  275.000;  298.000
236.376;  -47.200; -235.000; -378.000
236.519;  -43.275; -297.000; -319.000
236.663;  -22.425; -215.000; -117.000
236.806; -132.400;-1029.000; -999.000
236.949;   71.050;  543.000;  431.000
237.092;   53.325;  412.000;  391.000
237.236;  -78.900; -589.000; -502.000
237.379;   67.350;  352.000;  428.000
237.522; -122.150; -879.000; -768.000
237.666;  -14.250; -271.000;   18.000
237.809; -124.375; -851.000; -823.000
237.952;   49.575;  469.000;  271.000
238.095;  -70.250; -447.000; -442.000
238.238;   74.050;  688.000;  700.000
238.382;   -0.900;  166.000;  103.000
238.525;  -48.325; -598.000; -511.000
238.668; -144.850;-1060.000; -985.000
238.811;  -96.100; -638.000; -643.000
238.954;  -65.800; -483.000; -334.000
239.097;  102.800;  617.000;  664.000
239.241;   17.775;  394.000;  326.000
239.384;  -38.775; -254.000; -214.000
239.527;  -56.325; -424.000; -224.000
239.670; -142.950; -994.000;-1091.000
239.813; -113.725; -696.000; -658.000
239.956;   75.375;  579.000;  473.000
240.099; -112.925; -778.000; -725.000
240.242;   53.625;  428.000;  432.000
240.385;   38.850;  466.000;  450.000
240.528;  -72.275; -706.000; -473.000
240.671;   31.625;  189.000;  134.000
240.814;  -47.875; -441.000; -158.000
240.957;  -92.075; -767.000; -578.000
241.100;  -98.700; -779.000; -755.000
241.243; -145.600;-1234.000; -893.000
241.386;  -76.950; -508.000; -379.000
241.529;  -73.525; -735.000; -547.000
241.672;  -68.300; -566.000; -495.000
241.815; -122.550; -832.000; -808.000
241.958;  -19.475; -125.000; -182.000
242.101;  -82.875; -545.000; -390.000
242.244;  -37.175; -270.000; -325.000
242.387;  -49.075; -304.000; -246.000
242.530;   44.850;  470.000;  134.000
242.673;  -48.725; -381.000; -309.000
242.815; -123.950; -925.000; -899.000
242.958;  -57.850; -482.000; -381.000
243.101;   13.475;  132.000;  187.000
243.244;  -67.975; -564.000; -521.000
243.387;  -56.025; -313.000; -316.000
243.530;  -97.175; -657.000; -674.000
243.672;   -9.875;   43.000;  -92.000
243.815;  -51.100; -355.000; -283.000
243.958;    9.000;   98.000;  -26.000
244.101;   -0.500;   59.000;  -16.000
244.243;  -18.950;  -47.000;  101.000
244.386; -122.175; -761.000; -630.000
244.529;  -25.450; -132.000; -139.000
244.672; -158.825;-1154.000; -951.000
244.814;  -99.625; -621.000; -794.000
244.957;  -40.300; -380.000; -304.000
245.100;  -89.225; -489.000; -489.000
245.242;  -65.325; -387.000; -374.000
245.385;   -1.950;  -59.000;  -39.000
245.528; -121.850; -871.000; -705.000
245.670;   78.750;  612.000;  634.000
245.813;  -91.500; -599.000; -547.000
245.956;  -25.250; -324.000; -275.000
246.098;  -63.700; -508.000; -650.000
246.241;   -5.875;  194.000;   48.000
246.383;  -11.875; -119.000;  -73.000
246.526;  -84.400; -454.000; -525.000
246.669; -112.400; -889.000; -780.000
246.811;   16.075;  172.000;   -1.000
246.954;  -45.925; -512.000; -426.000
247.096;  -17.950;  -84.000;   -6.000
247.239;  -51.125; -482.000; -445.000
247.381;  -76.175; -647.000; -488.000
247.524;   84.075;  645.000;  679.000
247.666;   -9.525;   58.000;   11.000
247.809; -115.075; -887.000; -691.000
247.951;   -3.425;  -75.000;  138.000
248.094;   37.450;  432.000;  308.000
248.236; -155.875;-1262.000;-1238.000
248.378;   11.300; -356.000;  -81.000
248.521;  -23.475; -334.000; -337.000
248.663;  -35.175; -236.000; -267.000
248.806;  -26.100; -300.000; -266.000
248.948;  -82.900; -886.000; -763.000
249.090;  -49.475; -428.000; -398.000
249.233;  -41.850; -344.000; -381.000
249.375;  -68.850; -474.000; -451.000
249.518;   -4.675;  -83.000; -133.000
249.660;  -11.875; -103.000;    3.000
249.802; -170.825;-1303.000;-1189.000
249.945;  -76.875; -612.000; -540.000
250.087; -122.725; -834.000; -768.000
250.229;  -67.625; -362.000; -480.000
250.371;  -82.150; -494.000; -439.000
250.514;  -44.575; -310.000; -244.000
250.656;  -51.825;   69.000;  102.000
250.798; -116.375; -849.000; -800.000
250.940;  -65.400; -322.000; -322.000
251.083;  -26.175; -335.000; -111.000
251.225;   50.875;  338.000;  310.000
251.367;  -38.925; -274.000; -373.000
251.509;  -33.925; -265.000; -210.000
251.651;  -95.600; -731.000; -671.000
251.794;   46.000;  538.000;  632.000
251.936; -109.275; -821.000; -747.000
252.078;  -80.575; -540.000; -461.000
252.220;  -83.825; -645.000; -477.000
252.362;  110.550;  344.000;  462.000
252.504;  -64.625; -677.000; -584.000
252.646; -110.950; -875.000; -722.000
252.788;   10.950;   14.000; -128.000
252.931;  -36.325; -257.000; -253.000
253.073;  -34.425; -376.000; -317.000
253.215;   -1.300;  141.000;  122.000
253.357;  -23.625;   82.000; -153.000
253.499;  -49.725; -374.000; -234.000
253.641;  -95.925; -749.000; -594.000
253.783;  -87.150; -609.000; -527.000
253.925;  -87.050; -586.000; -591.000
254.067; -111.125; -744.000; -667.000
254.209;  -20.625; -391.000; -259.000
254.351; -138.500; -865.000; -883.000
254.493;  -52.150; -441.000; -417.000
254.635; -124.950; -936.000; -818.000
254.777;  -84.900; -752.000; -687.000
254.918;  -57.225; -512.000; -430.000
255.060;  -67.975; -551.000; -395.000
255.202;  -51.525; -473.000; -261.000
255.344;  -82.650; -658.000; -455.000
255.486;  -75.125; -471.000; -406.000
255.628;  -97.425; -780.000; -781.000
255.770;  -87.475; -676.000; -536.000
255.912;  -58.475; -559.000; -468.000
256.053;  -88.350; -730.000; -508.000
256.195;  148.750; 1008.000;  903.000
256.337;  -94.250; -861.000; -595.000
256.479;   53.075;  532.000;  416.000
256.621;  -43.750; -394.000; -212.000
256.762;  -94.300; -789.000; -742.000
256.904;   49.675;  485.000;  487.000
257.046;  -49.250; -381.000; -271.000
257.188;  -48.500; -351.000; -264.000
257.329;  -74.450; -525.000; -464.000
257.471; -129.650; -939.000; -807.000
257.613;  -54.850; -584.000; -498.000
257.755; -139.075;-1073.000; -982.000
257.896;   28.425;  286.000;  392.000
258.038;  -74.175; -403.000; -352.000
258.180;  -56.250; -354.000; -279.000
258.321;  -74.025; -581.000; -457.000
258.463;   -3.950;  -71.000;  133.000
258.605;  -80.150; -562.000; -570.000
258.746; -105.775; -886.000; -772.000
258.888; -152.825;-1026.000;-1020.000
259.029;   24.375;  121.000;   -8.000
259.171;  -94.575; -614.000; -550.000
259.313;   -4.650;  -49.000;  -47.000
259.454;  -72.725; -536.000; -414.000
259.596;  -57.600; -483.000; -390.000
259.737;  -83.300; -590.000; -474.000
259.879;   32.825;  217.000;  311.000
260.020;   80.850;  901.000;  636.000
260.162;  -18.125; -146.000; -253.000
260.303; -105.600; -768.000; -687.000
260.445;  -88.600; -609.000; -613.000
260.586;   20.700;  392.000;  157.000
260.728;  -42.075; -360.000; -248.000
260.869; -106.725; -350.000; -343.000
261.011;   69.800;  706.000;  537.000
261.152;  -62.425; -479.000; -319.000
261.293;  -86.550; -576.000; -595.000
261.435;  -39.250; -219.000; -184.000
261.576;  -66.400; -455.000; -325.000
261.718;   60.200;  420.000;  470.000
261.859; -135.275; -940.000; -949.000
262.000; -117.825; -951.000;-1016.000
262.142;  -25.450;  -52.000;  -60.000
262.283; -113.700; -808.000; -691.000
262.424;  -84.050; -666.000; -625.000
262.566; -155.050;-1161.000; -983.000
262.707; -106.900; -840.000; -830.000
262.848; -122.900; -769.000; -726.000
262.990;  -52.925; -362.000; -345.000
263.131;   79.600;  650.000;  681.000
263.272;   -0.150;  -61.000;  -41.000
263.413;  -94.625; -589.000; -561.000
263.555;  -65.075; -669.000; -143.000
263.696;  -90.075; -550.000; -641.000
263.837;  -65.650; -449.000; -551.000
263.978;    1.525;   -5.000;  -77.000
264.119;  -58.125; -283.000; -264.000
264.261; -107.550; -847.000; -630.000
264.402;   -8.550;   33.000;   40.000
264.543;  -76.950; -509.000; -524.000
264.684;   -5.500;   61.000;  -50.000
264.825;  -72.000; -816.000; -538.000
264.966;   -5.050;  -84.000;  -67.000
265.107; -106.525; -646.000; -670.000
265.248; -122.225; -825.000; -812.000
265.390;    4.975;  152.000;   -9.000
265.531;  -29.450; -238.000; -107.000
265.672;  -79.700; -557.000; -630.000
265.813;   60.575;  563.000;  439.000
265.954; -151.100; -959.000; -940.000
266.095;  -11.550; -372.000; -322.000
266.236;  -90.200; -686.000; -548.000
266.377;  -38.325; -243.000; -297.000
266.518;  -73.850; -619.000; -547.000
266.659;   27.300;  170.000;  268.000
266.800;   16.075;   83.000;   85.000
266.941;  -88.850; -487.000; -478.000
267.082;    7.450;  354.000;   99.000
267.223;  -59.775; -344.000; -273.000
267.364; -117.650; -892.000; -686.000
267.504;  -20.550;    3.000;  135.000
267.645;   -2.475;  160.000;   67.000
267.786;  -32.625; -147.000;  -86.000
267.927;  -81.850; -473.000; -379.000
268.068;  -19.175; -186.000;  -61.000
268.209;  -48.125; -175.000; -413.000
268.350;  -54.300; -388.000; -532.000
268.490;  -81.175; -648.000; -521.000
268.631;   27.200;  127.000;  225.000
268.772; -109.625; -874.000; -647.000
268.913;  -39.275; -328.000; -476.000
269.054;   -7.550; -117.000;   12.000
269.194;  -54.575; -418.000; -402.000
269.335; -163.125;-1137.000;-1074.000
269.476;  -16.950;   33.000;  -35.000
269.617;  -41.750; -347.000; -392.000
269.757;  -89.825; -713.000; -646.000
269.898; -105.150; -856.000; -613.000
270.039;  -60.975; -415.000; -405.000
270.180; -141.950; -952.000; -816.000
270.320;  -26.075; -190.000; -250.000
270.461;  -49.000; -277.000; -249.000
270.602;  -18.125; -186.000; -156.000
270.742; -108.950; -868.000; -943.000
270.883;  -62.200; -442.000; -390.000
271.023;  -53.550; -358.000; -357.000
271.164;  -73.025; -607.000; -528.000
271.305; -102.500; -666.000; -654.000
271.445; -102.475; -722.000; -683.000
271.586;  -66.800; -462.000; -283.000
271.726;  -41.850; -397.000; -322.000
271.867;  -44.075; -594.000; -534.000
272.008;  215.675; -473.000; -285.000
272.148;  148.900;  462.000;  468.000
272.289;   10.875; -113.000; -181.000
272.429;   21.300;   19.000;  185.000
272.570;  -87.175; -633.000; -737.000
272.710; -104.225; -825.000; -775.000
272.851;  -24.725;  113.000; -130.000
272.991; -159.550;-1173.000;-1077.000
273.131;  -77.300; -419.000; -459.000
273.272;  -89.025; -683.000; -723.000
273.412;   20.300; -143.000;  -31.000
273.553;  -48.825; -488.000; -507.000
273.693;  140.350;  913.000;  858.000
273.834;  -78.575; -894.000; -692.000
273.974;  -75.225; -664.000; -615.000
274.114;  -93.775; -772.000; -560.000
274.255;   82.400;  414.000;  373.000
274.395;   23.300; -180.000; -125.000
274.535;   49.700;  199.000;  350.000
274.676;   23.975;  225.000;   94.000
274.816;   -0.225;  110.000;   34.000
274.956;  -74.400; -624.000; -690.000
275.097;  -51.100;-1014.000; -922.000
275.237;  -93.850; -913.000; -803.000
275.377;  -95.475; -778.000; -689.000
275.517; -143.975; -878.000; -937.000
275.658;  -51.750; -590.000; -555.000
275.798;  -73.400; -606.000; -413.000
275.938;    6.450;  215.000;  323.000
276.078;  -92.975; -626.000; -395.000
276.218;   16.850;   99.000;  104.000
276.359; -111.750;-1026.000;-1024.000
276.499;  -71.925; -605.000; -446.000
276.639;  -33.125; -305.000; -151.000
276.779;  -44.650; -475.000; -357.000
276.919; -102.725; -783.000; -624.000
277.059;  -27.275; -261.000; -212.000
277.199;  -53.275; -357.000; -259.000
277.340;   44.850;  287.000;  175.000
277.480; -105.125; -840.000; -693.000
277.620;   22.650;  192.000;   16.000
277.760; -205.625;-1533.000;-1294.000
277.900;    9.850;  113.000;   33.000
278.040;   17.000;  137.000;  159.000
278.180;   32.950;  270.000;  170.000
278.320;   -5.325;   21.000;   56.000
278.460;  -66.450; -443.000; -469.000
278.600;  -86.025; -708.000; -598.000
278.740;   38.525;  448.000;  224.000
278.880;  -21.725; -768.000; -791.000
279.020;    4.100; -194.000; -144.000
279.160;  -93.375; -672.000; -595.000
279.300; -120.625; -926.000; -873.000
279.440;  -87.500; -709.000; -622.000
279.579;  -15.525;-1014.000; -929.000
279.719;  -49.775; -410.000; -394.000
279.859;   73.425;   -4.000;   41.000
279.999;   32.950; -208.000;  101.000
280.139;  -10.625; -435.000; -387.000
280.279;  -67.325; -708.000; -745.000
280.419;  -13.950; -229.000; -147.000
280.559;  -30.850; -259.000; -180.000
280.698;  -84.500; -790.000; -639.000
280.838;  -91.575; -778.000; -800.000
280.978; -107.700; -846.000; -790.000
281.118; -112.950; -811.000; -704.000
281.257;   -3.400;   24.000;    6.000
281.397;  -99.175;-1094.000; -960.000
281.537;  -77.125; -599.000; -712.000
281.677;  -29.325; -150.000; -101.000
281.816;  -83.275; -700.000; -630.000
281.956;  -31.675; -193.000; -257.000
282.096;  -65.450; -539.000; -396.000
282.235; -110.400; -672.000; -638.000
282.375;  -33.625; -243.000;  -98.000
282.515; -104.450; -715.000; -707.000
282.654;   32.025;   29.000;  106.000
282.794;   27.750;  388.000;  244.000
282.934;  -56.700; -530.000; -491.000
283.073; -138.375;-1030.000; -857.000
283.213;  -60.375; -460.000; -467.000
283.353;  -21.150; -408.000; -349.000
283.492;  -37.825; -264.000; -296.000
283.632;  -37.325; -254.000; -168.000
283.771;  -90.150; -859.000; -730.000
283.911;  -47.775; -369.000; -260.000
284.050; -115.625; -794.000; -748.000
284.190; -152.850;-1229.000;-1096.000
284.329; -121.000;-1055.000; -964.000
284.469;  -53.775; -516.000; -591.000
284.608;  -56.400; -559.000; -598.000
284.748;  -73.425; -614.000; -570.000
284.887;  -10.075;  -87.000;  -20.000
285.027; -132.000; -844.000; -892.000
285.166;  -30.550; -192.000; -249.000
285.306;   19.475; -116.000;  -33.000
285.445;  -43.975; -229.000; -343.000
285.584;  -84.400; -630.000; -494.000
285.724;  -48.950; -282.000; -322.000
285.863;  -99.925; -857.000; -507.000
286.002;  -48.775; -366.000; -276.000
286.142;  -95.800; -715.000; -622.000
286.281;  -83.750; -525.000; -493.000
286.420;  -73.850; -554.000; -417.000
286.560;  102.325;  653.000;  623.000
286.699; -141.300; -958.000; -912.000
286.838; -100.075; -590.000; -591.000
286.978;  -84.600; -533.000; -537.000
287.117; -133.525;-1085.000; -950.000
287.256;  -26.750; -228.000; -211.000
287.395;  -53.000; -197.000; -378.000
287.535;  -50.950; -370.000; -298.000
287.674;  -74.325; -509.000; -484.000
287.813;   50.025;  661.000;  533.000
287.952; -126.275;-1010.000; -871.000
288.091; -136.050;-1049.000; -915.000
288.231;   20.850;   13.000;   15.000
288.370; -169.050;-1217.000;-1200.000
288.509;  -86.000; -728.000; -645.000
288.648;  -87.400; -770.000; -548.000
288.787;  -46.550; -243.000;  -87.000
288.926;  -59.200; -454.000; -475.000
289.065;  121.200;  859.000;  672.000
289.204;  -49.650; -377.000; -217.000
289.344;  -83.250; -791.000; -690.000
289.483;   25.475;  416.000;  304.000
289.622;  -29.950; -291.000; -149.000
289.761;  -18.050; -309.000; -166.000
289.900; -115.150; -785.000; -626.000
290.039;   -8.575;  -12.000;  -95.000
290.178;  -34.850; -274.000; -180.000
290.317;  -73.225; -618.000; -479.000
290.456;  -64.425; -463.000; -451.000
290.595; -133.975; -961.000; -833.000
290.734; -135.850; -904.000; -891.000
290.873;  -64.225; -456.000; -420.000
291.011;  -93.900; -833.000; -843.000
291.150; -104.175; -770.000; -682.000
291.289;  -16.250; -343.000; -110.000
291.428;  -81.925; -599.000; -480.000
291.567;  -65.875; -370.000; -442.000
291.706;    2.500;  109.000;  154.000
291.845; -100.925; -597.000; -505.000
291.984; -164.400;-1234.000;-1061.000
292.122;   64.175;  602.000;  582.000
292.261;   50.550;  620.000;  463.000
292.400;   11.975; -144.000;  211.000
292.539; -135.975; -959.000; -813.000
292.678;  -35.375; -325.000; -300.000
292.816; -153.950;-1136.000; -965.000
292.955;  -88.200; -844.000; -684.000
293.094;  -31.375; -173.000; -337.000
293.233;  -58.675; -556.000; -400.000
293.371;  -26.825; -225.000;  -84.000
293.510; -110.075; -866.000; -780.000
293.649; -121.125; -959.000; -924.000
293.787;  -32.350;-1083.000;-1012.000
293.926;   12.850; -113.000;  -32.000
294.065;  -40.950; -379.000; -290.000
294.203;   47.625;  298.000;  406.000
294.342;   18.900;   74.000;  156.000
294.481; 6139.775;51180.000; -836.000
294.619;  -27.675; -425.000; -582.000
294.758; -130.750;-1230.000;-1137.000
294.896;   91.325; -125.000;    5.000
295.035; -120.975;-1040.000;-1006.000
295.174; -125.250;-1082.000; -954.000
295.312;  -43.825; -323.000; -203.000
295.451;    7.450; -307.000; -428.000
295.589;  -47.950; -389.000; -518.000
295.728;    8.500; -292.000; -165.000
295.866;   -1.125;  -36.000;  -51.000
296.005;  -60.750; -584.000; -341.000
296.143;  -54.100; -558.000; -596.000
296.282; -102.150; -957.000; -881.000
296.420;  -80.825; -657.000; -557.000
296.559;  -71.675; -892.000; -633.000
296.697;   57.650; -847.000; -665.000
296.835;  112.400;-1141.000;-1002.000
296.974;   69.875;  -23.000;   39.000
297.112;   27.200; -443.000; -504.000
297.251;  -61.225; -815.000; -755.000
297.389;  123.025; -576.000; -438.000
297.527;   55.225; -145.000;  -83.000
297.666;  -34.875; -486.000; -438.000
297.804;  -43.550; -404.000; -264.000
297.942;   -8.725; -136.000; -161.000
298.081;  -15.650; -183.000;   63.000
298.219;   85.925;  -17.000;  -19.000
298.357;   77.000; -144.000;  -71.000
298.495;   66.000; -810.000; -812.000
298.634;  110.550;  245.000;  219.000
298.772;   79.500; -220.000; -338.000
298.910;  -23.075; -309.000; -182.000
299.048;   -5.225; -130.000; -153.000
299.187;  -18.650; -350.000; -250.000
299.325;   17.400;   52.000;  122.000
299.463;  100.925; -389.000; -299.000
299.601;  148.600; -327.000; -271.000
299.739;  -98.150; -908.000; -883.000
299.877;  -87.300; -791.000; -703.000
300.016;  -25.150;-1095.000; -935.000
300.154;  195.075;  -19.000; -161.000
300.292;   88.425; -428.000; -348.000
300.430;   52.925; -408.000; -291.000
300.568;  -99.075; -940.000; -874.000
300.706;  -38.675; -366.000; -469.000
300.844;  -40.375;-1108.000; -979.000
300.982;  134.425;  246.000;  282.000
301.120; -101.775; -965.000; -866.000
301.258;  -56.200; -812.000; -705.000
301.396;   26.725;  104.000;  -41.000
301.534;  110.125; -218.000; -293.000
301.672;    9.875; -664.000; -521.000
301.810;   65.475; -613.000; -545.000
301.948;  167.425;   53.000;  149.000
302.086;  759.850; -250.000;  -32.000
302.224; 1190.850; -610.000; -585.000
302.362;   68.750; -558.000; -622.000
302.500;   30.450; -923.000; -893.000
302.638;  134.125;  128.000;  245.000
302.776;   18.150; -352.000; -408.000
302.913;   44.350;  447.000;  236.000
303.051;    2.250;  -86.000;  -23.000
303.189;   69.850;   90.000;  118.000
303.327;  -35.225; -341.000; -256.000
303.465;  -80.450; -832.000; -588.000
303.603;  -88.450; -805.000; -604.000
303.740;  114.925;  417.000;  241.000
303.878;   45.950; -800.000; -759.000
304.016;  -85.575; -915.000; -790.000
304.154; -109.550;-1123.000;-1152.000
304.291;  -26.250; -505.000; -554.000
304.429;   -3.600;  102.000;   74.000
304.567; -129.475; -908.000; -893.000
304.705;  -46.175; -408.000; -515.000
304.842;  149.425; -616.000; -540.000
304.980;   82.500;  215.000;   35.000
305.118;   70.050; -367.000; -365.000
305.255;  -46.775; -945.000; -927.000
305.393;   64.700;  178.000;  239.000
305.531;  -72.650;-1173.000; -956.000
305.668;  -64.500; -663.000; -582.000
305.806;  140.450; -358.000; -439.000
305.943;  160.225; -629.000; -637.000
306.081;   76.375; -378.000; -267.000
306.219;  -91.375; -863.000; -748.000
306.356;   -0.375;  158.000;   27.000
306.494;  110.725;  981.000;  761.000
306.631;    3.250;  -11.000;  -55.000
306.769;   21.775; -613.000; -485.000
306.906;  -19.650; -284.000; -258.000
307.044;  -51.250; -473.000; -488.000
307.181;  -62.025; -410.000; -332.000
307.319;   12.525;  112.000;   87.000
307.456; -176.525;-1191.000;-1153.000
307.594; -100.550; -980.000; -727.000
307.731;    2.825; -371.000; -164.000
307.868;   -8.850;  -15.000;   20.000
308.006; -126.975; -961.000; -847.000
308.143;  -61.250; -618.000; -330.000
308.281;  214.700;  -37.000; -254.000
308.418;    6.475; -748.000; -640.000
308.555;  -72.750; -400.000; -250.000
308.693;  -70.950; -577.000; -573.000
308.830; -102.850; -712.000; -657.000
308.967;  -20.300; -215.000;  -95.000
309.105;  -43.725; -507.000; -396.000
309.242;   62.250; -468.000; -367.000
309.379;  424.050; -577.000; -655.000
309.517;  -45.875; -936.000; -948.000
309.654; -101.375; -910.000; -734.000
309.791;  -76.575; -662.000; -580.000
309.928; -119.075; -977.000; -914.000
310.065;  185.825;  819.000;  697.000
310.203;   27.750; -825.000; -850.000
310.340;   -1.950; -465.000; -321.000
310.477;  -73.625; -412.000; -516.000
310.614;  -78.550; -383.000; -473.000
310.751;  -66.900; -427.000; -518.000
310.889;  -14.300;    1.000;   11.000
311.026; -139.775;-1161.000; -939.000
311.163;  -45.300; -386.000; -380.000
311.300;  -69.150; -512.000; -479.000
311.437;  -60.775; -658.000; -619.000
311.574; -147.950;-1226.000; -985.000
311.711;  -59.675; -595.000; -433.000
311.848;  -45.275; -380.000; -388.000
311.985;   11.325;  270.000;   93.000
312.122; -106.925; -932.000; -762.000
312.259; -121.125; -941.000; -994.000
312.396;  -83.900; -508.000; -551.000
312.533;  -83.525; -812.000; -790.000
312.670; -117.275;-1070.000; -898.000
312.807;  -35.500; -352.000; -367.000
312.944;  -70.550; -513.000; -611.000
313.081;  -31.075; -150.000; -415.000
313.218;  -94.775;-1111.000; -867.000
313.355;   30.750; -531.000; -449.000
313.492;   15.650; -455.000; -292.000
313.629;  147.225;  815.000;  735.000
313.766; -153.700;-1176.000;-1008.000
313.902;  -16.850; -186.000;   21.000
314.039;  -43.175; -372.000; -289.000
314.176;   33.125;  286.000;  192.000
314.313;  -72.400; -569.000; -473.000
314.450;  -77.175; -788.000; -684.000
314.587;  -60.450; -468.000; -480.000
314.723;   -4.650;  -78.000;  130.000
314.860;   35.450;  318.000;  332.000
314.997;   37.600;  223.000;  142.000
315.134;  -37.100; -385.000; -368.000
315.270;  -25.575; -480.000; -496.000
315.407; -120.925;-1094.000; -967.000
315.544;  -36.525; -657.000; -538.000
315.681;  -52.600; -681.000; -565.000
315.817;   33.025; -133.000; -176.000
315.954;   36.975; -613.000; -392.000
316.091; -116.325;-1045.000;-1023.000
316.227;  -13.025;  -71.000; -179.000
316.364;    6.775;   23.000;    6.000
316.500;  -43.925; -113.000; -300.000
316.637;  -51.175; -181.000; -302.000
316.774;  -80.750; -625.000; -358.000
316.910;  -89.975; -598.000; -629.000
317.047;  -69.750; -487.000; -351.000
317.183;  -45.800; -435.000; -566.000
317.320;  -17.750; -367.000; -321.000
317.456;  -72.475; -733.000; -805.000
317.593;  -86.975; -598.000; -641.000
317.729;   -4.875;  168.000;  -67.000
317.866; -189.475;-1434.000;-1285.000
318.002;  -89.325; -708.000; -948.000
318.139;  -72.000; -883.000; -867.000
318.275; -102.800;-1003.000; -738.000
318.412;  -55.825; -517.000; -336.000
318.548;  -16.350; -751.000; -720.000
318.685;  -79.825; -985.000; -888.000
318.821;  -89.075; -762.000; -735.000
318.957;  -16.900;   34.000;  -23.000
319.094;   41.400;  297.000;  154.000
319.230;  -49.850; -756.000; -742.000
319.367;  177.225; -471.000; -520.000
319.503;   86.450; -538.000; -436.000
319.639;  -79.375; -877.000; -793.000
319.775;  -48.825; -750.000; -685.000
319.912;  -47.675; -424.000; -519.000
320.048;  -74.675;-1184.000;-1184.000
320.184;   71.575;   59.000;   70.000
320.321;  -68.375; -497.000; -467.000
320.457;   62.500;  475.000;  662.000
320.593;  -52.375; -375.000; -382.000
320.729;  -94.850; -732.000; -734.000
320.866;  -61.850; -577.000; -635.000
321.002;  -73.025; -759.000; -809.000
321.138;   -6.475; -135.000; -211.000
321.274;   89.950; -148.000; -115.000
321.410;  -13.000; -585.000; -353.000
321.546;   -2.825;-1011.000; -911.000
321.683;   68.475;  400.000;  185.000
321.819;    6.575;  -48.000; -117.000
321.955; -106.350; -743.000; -722.000
322.091;  -28.150; -585.000; -540.000
322.227;   -8.225; -382.000; -202.000
322.363;   -6.200; -320.000; -215.000
322.499;  -35.450; -343.000; -331.000
322.635;  197.150;  636.000;  443.000
322.771;   42.200; -139.000;   12.000
322.907;  104.600;  129.000;  327.000
323.043;   -2.150; -115.000; -206.000
323.179;  -22.175; -394.000; -363.000
323.315;   45.050; -401.000; -371.000
323.451;  116.500; -328.000; -236.000
323.587;   76.000;  -60.000;  -77.000
323.723;   40.300; -682.000; -601.000
323.859;  -11.700; -258.000;  -76.000
323.995;  -25.375; -467.000; -409.000
324.131; -115.775; -967.000; -892.000
324.267;  -43.125; -254.000; -276.000
324.402; -130.325; -960.000; -983.000
324.538;    7.775; -279.000; -104.000
324.674;   24.075;  164.000;   77.000
324.810;  169.850;  226.000;  308.000
324.946;   24.075; -810.000; -658.000
325.082;  -71.600; -568.000; -475.000
325.217;  -12.700;  -62.000;   16.000
325.353;  -98.075; -764.000; -659.000
325.489;  -84.000; -540.000; -506.000
325.625;  -72.550; -579.000; -525.000
325.760;   49.050;  517.000;  376.000
325.896;  -32.975; -515.000; -702.000
326.032;  -40.000; -403.000; -352.000
326.168;  -67.200; -462.000; -369.000
326.303;  -57.350; -352.000; -461.000
326.439;  -20.075; -336.000; -276.000
326.575;    8.575; -190.000;  -29.000
326.710;    0.725; -156.000;  -30.000
326.846;  -17.100;  146.000;  103.000
326.982; -106.650; -530.000; -548.000
327.117;  -72.725; -481.000; -442.000
327.253;  -86.950; -745.000; -742.000
327.388; -134.500;-1137.000;-1153.000
327.524;  -38.775; -811.000; -578.000
327.659;  -22.150;  -58.000;  -22.000
327.795;   -8.050;   69.000;   45.000
327.931;  -64.300; -723.000; -499.000
328.066;  -21.550; -417.000; -276.000
328.202;  -29.450;   12.000; -129.000
328.337;   93.625;  957.000;  713.000
328.473;   25.900;  -12.000;  -74.000
328.608;  -15.575; -256.000; -267.000
328.743;  -64.775; -799.000; -664.000
328.879;   14.850;  214.000;  114.000
329.014;  -42.850; -102.000; -122.000
329.150;  -93.925; -358.000; -483.000
329.285;  -71.775; -465.000; -466.000
329.421;  -53.550; -548.000; -246.000
329.556;  -28.425;  -36.000;   85.000
329.691; -100.850; -633.000; -615.000
329.827;  -87.475; -626.000; -480.000
329.962;  -40.650;  131.000; -301.000
330.097; -103.000; -673.000; -585.000
330.233;  -58.075; -410.000; -223.000
330.368; -127.650; -839.000; -628.000
330.503;  -19.325;    3.000;   98.000
330.638;    5.150;  -93.000; -125.000
330.774;  -57.875; -609.000; -530.000
330.909;  -46.225; -434.000; -244.000
331.044;  -96.525; -714.000; -708.000
331.179; -179.900;-1217.000;-1109.000
331.315;   -2.200;   77.000;   20.000
331.450;   15.150;  157.000;  285.000
331.585;  -84.650; -805.000; -706.000
331.720;  -78.700; -510.000; -460.000
331.855;  -11.825;  -35.000; -102.000
331.990;  228.325;   62.000;  138.000
332.126;  107.575; -110.000;   71.000
332.261;  -25.925; -379.000; -265.000
332.396;   -6.225; -135.000; -242.000
332.531; -109.150;-1074.000;-1031.000
332.666;   35.500; -519.000; -363.000
332.801; -103.725; -726.000; -807.000
332.936;  -24.900; -192.000; -122.000
333.071; -141.300; -870.000; -817.000
333.206;   16.775;  307.000;  379.000
333.341;   29.400;  344.000;  418.000
333.476;  -80.200; -627.000; -623.000
333.611;  -39.775; -251.000; -173.000
333.746;  -45.950; -381.000; -464.000
333.881; -114.100; -973.000; -935.000
334.016; -122.000; -936.000; -917.000
334.151; -108.075; -746.000; -702.000
334.286;   31.900;  152.000;  186.000
334.421;  -18.275; -125.000; -178.000
334.556;  -68.025; -611.000; -567.000
334.690;  -90.000; -631.000; -577.000
334.825;   49.200;  381.000;   83.000
334.960;  -54.325; -285.000; -413.000
335.095;   10.400;  135.000;  -91.000
335.230;  -87.650; -722.000; -738.000
335.365; -133.125;-1084.000; -990.000
335.499; -107.125;-1108.000;-1037.000
335.634;   25.150;    9.000;  534.000
335.769;  -98.550; -755.000; -720.000
335.904;  -41.325; -603.000; -561.000
336.038;  -43.500; -735.000; -657.000
336.173; -105.275;-1206.000;-1194.000
336.308;   15.250; -116.000; -189.000
336.443;   19.125; -544.000; -634.000
336.577;  -47.300; -936.000; -787.000
336.712;   87.125;   -4.000;  -12.000
336.847;  -10.600; -724.000; -607.000
336.981;   87.200; -272.000; -208.000
337.116;  325.875;  615.000;  501.000
337.250;  202.625; -434.000; -421.000
337.385;  234.975; -297.000; -208.000
337.520;   67.925; -632.000; -603.000
337.654;  -46.200; -215.000; -126.000
337.789; -136.950; -989.000; -933.000
337.923;  -29.550; -104.000; -205.000
338.058;  -97.625; -673.000; -738.000
338.192;  -37.450; -611.000; -488.000
338.327;    1.825;  -18.000; -155.000
338.461;  -57.925; -299.000; -469.000
338.596;  -86.225; -780.000; -638.000
338.730; -100.475; -767.000; -803.000
338.865;   70.975;  -46.000; -140.000
338.999;  -56.200; -846.000; -702.000
339.134;  -29.400; -634.000; -536.000
339.268;   20.775; -741.000; -603.000
339.403;  344.050; -740.000; -775.000
339.537;   86.275; -894.000; -820.000
339.671; -111.450; -829.000; -813.000
339.806;  -62.325; -556.000; -512.000
339.940;   27.725; -261.000; -235.000
340.074;  -91.250; -685.000; -510.000
340.209;  -50.100; -351.000; -230.000
340.343;  -89.475; -517.000; -573.000
340.477;  145.275;  998.000; 1036.000
340.612;  -59.675;-1033.000; -900.000
340.746;  126.150; -199.000; -243.000
340.880;  -49.125; -924.000; -785.000
341.014;  -12.350;  -45.000; -154.000
341.149; -111.300; -756.000; -718.000
341.283;  -99.950; -839.000; -754.000
341.417;  -76.350;-1124.000; -938.000
341.551;  184.900; -768.000; -708.000
341.685;  -17.300; -633.000; -611.000
341.820;  -58.875; -562.000; -493.000
341.954;  -46.475; -218.000; -349.000
342.088; -159.350;-1102.000;-1019.000
342.222;   53.950;  565.000;  618.000
342.356;  -50.075; -395.000; -335.000
342.490;  -79.125; -880.000; -841.000
342.624;  -46.450; -339.000; -242.000
342.758;    7.475; -364.000; -312.000
342.892;  -50.375; -710.000; -585.000
343.026;  -45.750;  -58.000; -116.000
343.160;  -61.250; -426.000; -376.000
343.294;  -83.550; -474.000; -337.000
343.428;   -2.400; -488.000; -448.000
343.562;  -12.175; -172.000;  -23.000
343.696;  -21.300; -385.000; -314.000
343.830;  -16.750; -362.000; -356.000
343.964;   26.500; -231.000; -168.000
344.098; 1155.400;  199.000;   70.000
344.232;  937.250; -266.000; -127.000
344.366;  111.350; -567.000; -453.000
344.500;  102.925; -665.000; -744.000
344.634;   47.650; -324.000; -164.000
344.768;    0.550; -531.000; -341.000
344.902;   22.325;  278.000;  256.000
345.035;  -68.475; -556.000; -496.000
345.169; -137.225; -933.000; -656.000
345.303;  -18.625; -308.000; -482.000
345.437;  -61.325; -826.000; -717.000
345.571;  -80.025; -675.000; -594.000
345.704;  -67.950; -309.000; -532.000
345.838;  -16.925; -331.000; -284.000
345.972;  -12.450; -543.000; -495.000
346.106;  153.300; -179.000; -190.000
346.239;  455.775; -312.000; -243.000
346.373;   23.925; -343.000; -302.000
346.507; -131.475; -950.000; -962.000
346.640;  197.925;  -30.000;   13.000
346.774;  -19.150; -650.000; -797.000
346.908;  -12.750; -138.000;  -11.000
347.041;  -98.650; -646.000; -593.000
347.175;   -6.775;  259.000;   27.000
347.309;  -53.450; -698.000; -628.000
347.442;  -92.100; -883.000; -732.000
347.576;  327.750;  670.000;  668.000
347.709;  252.025; -123.000;  -52.000
347.843;  -72.900; -933.000; -825.000
347.976;   25.650;  235.000;  294.000
348.110; -161.475;-1268.000;-1186.000
348.243;  -98.675; -679.000; -772.000
348.377;    7.800;  -26.000;   60.000
348.510;   54.825;  403.000;  540.000
348.644;  -18.975;  -37.000; -159.000
348.777;    6.775;  180.000;  191.000
348.911;  -49.375; -142.000; -112.000
349.044;  194.275;  471.000;  448.000
349.178;  226.150;-1069.000;-1006.000
349.311;  138.900;  141.000;  255.000
349.444;  -10.575; -927.000; -813.000
349.578;  -18.525; -347.000; -200.000
349.711;  -89.725; -959.000; -862.000
349.845;   20.400; -661.000; -591.000
349.978; -155.125;-1224.000;-1137.000
350.111;  -89.800; -546.000; -612.000
350.244;  -68.850; -596.000; -700.000
350.378;   27.425; -392.000; -393.000
350.511;  -63.125; -393.000; -426.000
350.644; -108.250; -808.000; -806.000
350.778;   14.900;  168.000;  104.000
350.911;    3.775;  134.000;  140.000
351.044;  -83.300; -685.000; -615.000
351.177;  -26.100; -321.000; -281.000
351.310;   -8.450;    3.000; -131.000
351.444;  -61.525; -888.000; -788.000
351.577;  136.500;  140.000;   90.000
351.710;  111.300;  593.000;  417.000
351.843;  -31.950; -165.000;  -77.000
351.976;  -10.075;  149.000;  -79.000
352.109;  -84.025; -621.000; -612.000
352.242;    9.800; -464.000; -419.000
352.376;  -41.850; -580.000; -636.000
352.509;  233.750; -437.000; -356.000
352.642;   63.175; -654.000; -604.000
352.775;   67.450; -141.000;  -98.000
352.908;  -97.850; -933.000; -904.000
353.041;  -89.500; -814.000; -824.000
353.174;  -59.800; -551.000; -424.000
353.307;  -80.325; -753.000; -764.000
353.440;   80.925;  541.000;  453.000
353.573; -106.025; -957.000;-1008.000
353.706;  -45.025; -384.000; -558.000
353.839;  -19.325; -264.000; -220.000
353.971;  -87.100; -657.000; -512.000
354.104;  -71.025; -896.000; -835.000
354.237;  -13.525; -627.000; -662.000
354.370;  -69.650; -846.000; -879.000
354.503; -187.750;-1231.000;-1308.000
354.636;  -30.575; -529.000; -348.000
354.769; -122.225; -937.000; -860.000
354.902;    7.950; -230.000; -139.000
355.034;  -26.375; -164.000; -220.000
355.167;  -13.325; -262.000; -162.000
355.300;  -85.525;-1061.000; -880.000
355.433;  909.400;  -71.000;  -14.000
355.565; 1440.325; -402.000; -384.000
355.698;  372.925; -356.000; -296.000
355.831;   11.600; -882.000; -801.000
355.964;  118.800; -285.000; -170.000
356.096;  -69.600; -856.000; -843.000
356.229;   14.900; -523.000; -530.000
356.362;  300.425; -373.000; -266.000
356.494;  562.600; -229.000; -162.000
356.627;  578.650;  269.000;  377.000
356.760;  658.375;  120.000;   53.000
356.892;  906.175; -286.000; -601.000
357.025;  798.675;  403.000;  389.000
357.157;  747.500; -167.000; -179.000
357.290;  628.175; -856.000; -713.000
357.423;  203.075; -667.000; -556.000
357.555;  143.625; -217.000; -228.000
357.688;  152.225; -483.000; -364.000
357.820;  576.975; -870.000; -877.000
357.953; 4509.750; -563.000; -589.000
358.085; 1040.025; -632.000; -612.000
358.218; 1565.925;-1131.000; -932.000
358.350;  279.750;  -58.000;  312.000
358.483;  -94.750;-1300.000;-1187.000
358.615;   21.675;-1182.000;-1078.000
358.747;  -15.400;-1187.000;-1058.000
358.880;   48.450; -810.000; -744.000
359.012;   -0.475; -376.000; -202.000
359.145;  -32.575; -480.000; -511.000
359.277;  111.025; -962.000; -913.000
359.409; 3713.175;  536.000;  231.000
359.542; 1031.700; -738.000; -688.000
359.674;   88.575;   46.000;   13.000
359.806;  -52.775; -565.000; -438.000
359.939;  -21.800; -617.000; -516.000
360.071;  -14.025; -583.000; -579.000
360.203;  -25.075; -411.000; -364.000
360.335;   70.000;  164.000;  -16.000
360.468;  229.600; -249.000; -307.000
360.600; 2907.800; -547.000; -454.000
360.732; 2721.275; -546.000; -423.000
360.864;  397.725;-1216.000;-1044.000
360.996;  374.675; -516.000; -554.000
361.129;   74.150; -389.000; -598.000
361.261;   30.425;  110.000; -113.000
361.393;  -22.875; -252.000; -214.000
361.525;   30.975;   94.000;  244.000
361.657;  -18.450; -821.000; -703.000
361.789;   20.625; -139.000; -155.000
361.921;  332.000; -642.000; -593.000
362.053;  319.100;  524.000;  541.000
362.185;   78.475;  288.000;   72.000
362.318;  -56.775; -709.000; -705.000
362.450;  143.875;  294.000;  444.000
362.582;  202.675; -913.000; -870.000
362.714;  -23.800; -353.000; -332.000
362.846;  -84.775; -606.000; -490.000
362.978; -133.450; -941.000; -811.000
363.109;   83.175; -161.000; -260.000
363.241;  580.750; -739.000; -749.000
363.373;  424.850; -649.000; -564.000
363.505;  629.275; -186.000;  -91.000
363.637;  166.150; -787.000; -601.000
363.769; -113.675;-1067.000;-1080.000
363.901;  -67.750; -596.000; -654.000
364.033;  -99.675;-1103.000;-1062.000
364.165;    6.875; -283.000; -283.000
364.296;   81.450; -316.000; -177.000
364.428;   68.700;-1344.000;-1220.000
364.560;  -56.075; -679.000; -661.000
364.692;  -59.325; -738.000; -835.000
364.824;  384.025; -588.000; -456.000
364.955;  466.225; -402.000; -564.000
365.087;  815.750;-1097.000; -852.000
365.219;   28.750; -686.000; -816.000
365.351;  -55.425; -526.000; -572.000
365.482;   66.075;  300.000;  240.000
365.614;  -38.775; -402.000; -314.000
365.746; -101.475; -729.000; -752.000
365.877; -102.525; -706.000; -672.000
366.009;  237.800;  -35.000;  -62.000
366.141;  -84.525;-1249.000;-1134.000
366.272;  -97.825; -803.000; -719.000
366.404; -107.650;-1005.000; -874.000
366.535;  -12.275; -139.000;  -12.000
366.667; -101.625; -644.000; -649.000
366.799;   45.850;  353.000;  203.000
366.930; -105.075; -862.000; -996.000
367.062;  125.975; -639.000; -613.000
367.193;  139.900; -872.000; -842.000
367.325;  -62.850; -580.000; -684.000
367.456;   97.600; -246.000;   31.000
367.588;  171.000; -371.000; -318.000
367.719;   15.775;  -44.000;  -45.000
367.851;  -11.725; -222.000; -241.000
367.982;  -34.925; -875.000; -732.000
368.113;  144.100; -475.000; -358.000
368.245; -100.900; -960.000; -841.000
368.376;  -17.800; -254.000; -302.000
368.508;  -25.325; -188.000; -263.000
368.639; -134.625;-1166.000;-1034.000
368.770;    8.850; -670.000; -589.000
368.902;  -36.700; -836.000; -926.000
369.033;  -94.100; -906.000; -855.000
369.164;  -56.225; -720.000; -653.000
369.296; -107.150; -452.000; -601.000
369.427;    2.225; -209.000; -144.000
369.558;  -50.300; -593.000; -377.000
369.689;  -90.525; -721.000; -569.000
369.821; -125.050; -951.000; -845.000
369.952;  -25.525;   42.000; -108.000
370.083;  -54.150; -229.000; -108.000
370.214;  -88.150; -735.000; -650.000
370.345;   -3.125;   65.000;   81.000
370.477;  -82.525; -810.000; -790.000
370.608;  321.375; -328.000; -264.000
370.739;   -3.900;-1233.000;-1292.000
370.870;   -3.625;-1102.000; -923.000
371.001;  150.450; -378.000; -467.000
371.132;  -61.025; -754.000; -735.000
371.263;  -21.700;  -42.000; -148.000
371.394; -123.275; -841.000; -748.000
371.525;   32.450;  345.000;  225.000
371.657;  -84.300; -808.000; -670.000
371.788;   83.250;  103.000;  199.000
371.919;  224.775; -384.000; -304.000
372.050; 4474.750;  -91.000; -156.000
372.181; 1370.750; -188.000; -294.000
372.311;  477.100;   42.000; -127.000
372.442;   78.525; -457.000; -451.000
372.573;   -7.150; -444.000; -340.000
372.704; -109.025;-1008.000; -980.000
372.835;  124.050; -228.000; -289.000
372.966;  -39.325; -646.000; -554.000
373.097;  -45.375; -575.000; -711.000
373.228;  -21.650; -717.000; -542.000
373.359;  202.650; -824.000; -536.000
373.490; 1199.725; -881.000; -727.000
373.620; 1542.200;-1001.000; -803.000
373.751; 2251.800; -332.000; -396.000
373.882; 1077.250; -663.000; -733.000
374.013;  106.425; -449.000; -262.000
374.143;  -31.400; -581.000; -659.000
374.274;  -86.075; -987.000; -908.000
374.405;  231.350; -388.000; -276.000
374.536;  581.300; -526.000; -387.000
374.666; 1473.700; -759.000; -807.000
374.797;  325.325; -817.000; -868.000
374.928; 1131.175; -710.000; -560.000
375.058; 1162.950; -535.000; -500.000
375.189;  130.200;  -59.000;  -93.000
375.320;  -92.125; -928.000;-1034.000
375.450;  -22.525; -625.000; -616.000
375.581;  -35.975; -526.000; -436.000
375.712;  -19.400; -574.000; -250.000
375.842;  411.925; -438.000; -415.000
375.973;  308.675; -554.000; -513.000
376.103;   -5.400; -665.000; -648.000
376.234;  -67.200; -531.000; -552.000
376.364;   -0.200; -944.000; -867.000
376.495;  392.125;  925.000;  529.000
376.625;   15.200; -472.000; -485.000
376.756;  113.950; -709.000; -678.000
376.886;  -43.625;-1178.000;-1026.000
377.017;   28.975;-1048.000;-1061.000
377.147;  315.175; -786.000; -782.000
377.278;   45.950;  174.000;  228.000
377.408; -120.100; -801.000; -815.000
377.538; -101.750; -707.000; -693.000
377.669;  -73.475; -537.000; -613.000
377.799;  -90.950; -645.000; -635.000
377.929;  -47.650; -610.000; -428.000
378.060; -119.650; -781.000; -847.000
378.190;  -58.700; -726.000; -531.000
378.320;  -64.300; -401.000; -406.000
378.451;    4.575; -131.000;  -22.000
378.581;   -8.250;  -67.000; -110.000
378.711;  179.750; 1035.000;  866.000
378.841;    3.225; -533.000; -675.000
378.972;  -44.850; -871.000; -751.000
379.102;   25.200; -652.000; -579.000
379.232;    1.975; -126.000;  -73.000
379.362;  -93.300;-1001.000; -885.000
379.492;   19.250; -373.000; -424.000
379.623;  138.675;    0.000;  111.000
379.753;  -91.250;-1107.000; -974.000
379.883;  247.250;   59.000;  156.000
380.013;   62.175;-1081.000;-1017.000
380.143;  -87.750;-1097.000;-1056.000
380.273;  -95.425; -985.000; -861.000
380.403;   14.900; -344.000; -257.000
380.533;    0.375; -651.000; -664.000
380.663;   78.675;  173.000;  128.000
380.793;  -68.700;-1027.000;-1074.000
380.923;  -14.850; -103.000;  -34.000
381.053;  -78.550; -613.000; -623.000
381.183;  -25.625; -106.000; -248.000
381.313;   65.025; -656.000; -470.000
381.443;   78.225; -692.000; -473.000
381.573;  285.250; -402.000; -409.000
381.703;  416.025;-1249.000;-1095.000
381.833;  -93.650;-1454.000;-1336.000
381.963;  149.275; -134.000;  -87.000
382.093; 1721.300; -925.000; -909.000
382.223;  565.325; -713.000; -602.000
382.353;   15.000; -801.000; -608.000
382.482;  515.825;-1091.000; -964.000
382.612;  993.800; -872.000; -644.000
382.742;  557.475; -695.000; -622.000
382.872;  359.300; -565.000; -551.000
383.002;   80.025;  347.000; -132.000
383.131;  -14.525; -226.000; -160.000
383.261;  -17.600; -706.000; -768.000
383.391;  303.075; -552.000; -377.000
383.521; 2981.175;  451.000;  263.000
383.650;  695.950; -947.000; -904.000
383.780;  -17.000; -783.000; -656.000
383.910;  100.725;  880.000;  802.000
384.039;   63.150; -794.000; -656.000
384.169;  327.325;-1205.000;-1017.000
384.299;    6.200; -650.000; -662.000
384.428;  -75.975; -764.000; -680.000
384.558;  -43.225; -308.000; -275.000
384.687;  -40.325; -414.000; -334.000
384.817;   14.400;   75.000;   -2.000
384.947;   39.025; -234.000; -141.000
385.076;  333.800;  982.000;  912.000
385.206;  121.425;  369.000;  480.000
385.335;  -27.500; -549.000; -417.000
385.465;  -59.125; -655.000; -663.000
385.594;  163.400;  -53.000;  -44.000
385.724;  593.125; -868.000; -838.000
385.853;  159.250; -296.000; -270.000
385.982; 1710.650; -743.000; -787.000
386.112; 2763.825;-1052.000; -871.000
386.241;  215.450; -307.000; -312.000
386.371;   28.325; -174.000;  -87.000
386.500;   28.850; -825.000; -789.000
386.629;   25.250; -874.000; -817.000
386.759;   58.850;  -43.000;   68.000
386.888;    8.875; -170.000; -250.000
387.017;  -75.825; -648.000; -620.000
387.147;  -86.050; -771.000; -798.000
387.276;   12.575; -410.000; -397.000
387.405;   42.225; -398.000; -342.000
387.535;  -36.325; -452.000; -361.000
387.664;  -60.150; -692.000; -620.000
387.793;   85.100; -198.000; -113.000
387.922;  654.500;  255.000;  200.000
388.052;   58.975; -576.000; -423.000
388.181;   32.000; -342.000; -472.000
388.310;   18.625; -889.000; -710.000
388.439;  -32.150; -749.000; -742.000
388.568;  227.575;  365.000;  244.000
388.697; 1379.150; -756.000; -653.000
388.826;  315.550; -768.000; -666.000
388.956;   97.175; -285.000; -307.000
389.085;  -40.850; -347.000; -287.000
389.214; -107.050; -842.000; -872.000
389.343;  -63.875; -645.000; -413.000
389.472;  367.325;  126.000;  149.000
389.601;  522.625;   91.000;    0.000
389.730;   23.850; -568.000; -687.000
389.859;   72.975;  226.000;   46.000
389.988;  252.025; -423.000; -408.000
390.117;  197.800; -168.000; -146.000
390.246;    3.575; -331.000; -320.000
390.375;  175.575; -673.000; -626.000
390.504;  -48.150; -703.000; -621.000
390.633;  -95.975; -672.000; -726.000
390.761;  -46.000; -732.000; -645.000
390.890;   36.525;   -4.000; -130.000
391.019;  -16.075; -421.000; -441.000
391.148; -118.525; -826.000; -855.000
391.277;  -62.900; -576.000; -493.000
391.406;  -64.275; -821.000; -805.000
391.534;   10.950;  574.000; -301.000
391.663;  -50.600; -583.000; -645.000
391.792;  -80.475; -673.000; -701.000
391.921;  144.950;   -3.000;   15.000
392.050;  262.525; -287.000; -228.000
392.178;   -1.800;-1206.000;-1061.000
392.307;  206.600; -758.000; -712.000
392.436;  134.725; -427.000; -641.000
392.564;   35.050;  166.000;   -6.000
392.693;  -91.750; -860.000; -682.000
392.822;  263.975; -529.000; -534.000
392.950;  173.000; -880.000; -714.000
393.079;  440.275; -188.000; -328.000
393.208;   57.500; -488.000; -511.000
393.336;   -0.025; -170.000; -145.000
393.465;  -45.850; -317.000; -199.000
393.593;  -10.850;   62.000;   79.000
393.722; -154.475;-1121.000; -916.000
393.850;  -32.725; -188.000;  -61.000
393.979; -155.875; -926.000; -805.000
394.107;  -64.100; -517.000; -537.000
394.236;   -7.950; -570.000; -507.000
394.364;  247.850;  383.000;  206.000
394.493;  464.400; -911.000; -767.000
394.621;    8.175; -955.000; -916.000
394.750;  655.350; -873.000; -923.000
394.878; 2755.950; -247.000; -149.000
395.007; 3851.725; -721.000; -807.000
395.135;  300.075; -790.000; -721.000
395.263;  -83.600;-1038.000;-1040.000
395.392;    0.375;  -25.000; -107.000
395.520; -146.900; -818.000; -679.000
395.648;  -82.775; -865.000; -915.000
395.777;   14.100; -366.000; -405.000
395.905;  -29.750; -449.000; -564.000
396.033;   28.625;  217.000;  172.000
396.162;  730.300; -399.000; -453.000
396.290;  671.625;  -17.000;   -2.000
396.418;  158.525; -555.000; -514.000
396.546;  -50.150; -571.000; -466.000
396.674;  -91.600; -850.000; -878.000
396.803;   24.675;  -72.000;  -23.000
396.931;  138.900; -179.000; -199.000
397.059;  116.525;-1026.000; -989.000
397.187; -102.350;-1026.000; -975.000
397.315; -124.750; -884.000; -649.000
397.443;  -86.750; -592.000; -443.000
397.572;  -99.000; -578.000; -424.000
397.700;   10.175; -607.000; -614.000
397.828;   31.950;  120.000;  -90.000
397.956;  -41.500; -508.000; -478.000
398.084;  -68.550; -767.000; -626.000
398.212;   45.475;  137.000;  124.000
398.340;   26.125;  -56.000;  159.000
398.468;   66.550; -390.000; -169.000
398.596; -119.675; -993.000; -953.000
398.724; -124.825; -762.000; -767.000
398.852; -162.000;-1024.000; -976.000
398.980;  -53.975; -560.000; -560.000
399.108;  -32.325; -982.000; -735.000
399.236;   42.375;   13.000;    8.000
399.363;   13.850;  222.000;  196.000
399.491;  -72.250; -404.000; -398.000
399.619; -120.000; -829.000; -800.000
399.747;  -95.425; -859.000; -771.000
399.875;   99.525;  220.000;  234.000
400.003;  -54.550; -359.000; -284.000
400.130;  -88.150; -421.000; -341.000
400.258;  -43.100;  -83.000;   38.000
400.386;  -62.250; -352.000; -168.000
400.514;  -40.400; -526.000; -587.000
400.641;  -52.600; -928.000; -802.000
400.769; -140.125; -979.000; -888.000
400.897; -108.625; -838.000; -793.000
401.025;   -9.800; -166.000; -152.000
401.152;  -11.175;  220.000;   38.000
401.280;  -73.925; -430.000; -429.000
401.408; -117.350; -712.000; -576.000
401.535; -103.975; -735.000; -758.000
401.663; -192.300;-1134.000;-1054.000
401.790;  -87.275; -514.000; -525.000
401.918;   46.750;  436.000;  405.000
402.046;  -28.850;  134.000;  122.000
402.173;  -36.825;  -18.000;    7.000
402.301;  -65.800; -519.000; -397.000
402.428;   39.375;  528.000;  383.000
402.556; -147.100;-1188.000; -913.000
402.683;  -33.225;  -20.000;   -1.000
402.811;  -18.575;  -37.000; -206.000
402.938;    1.975;   20.000;   27.000
403.066;  254.300; -574.000; -558.000
403.193;  432.050;  299.000;  239.000
403.321;  341.275; -396.000; -574.000
403.448;  407.750;   83.000;   27.000
403.575;  187.400;  -90.000;  -46.000
403.703;  -79.725; -732.000; -557.000
403.830;  -68.325; -531.000; -496.000
403.957; -130.400;-1117.000;-1023.000
404.085;   34.575;  -61.000; -172.000
404.212;  109.000;  -50.000;   63.000
404.339;  249.825; -566.000; -306.000
404.467; 5368.525; -612.000; -524.000
404.594; 3929.350; -287.000; -227.000
404.721; 1069.225; -869.000; -764.000
404.848;   95.525; -113.000; -202.000
404.976; -102.000; -856.000; -783.000
405.103;  -23.375;  -14.000;  -82.000
405.230;   -5.525;  190.000;  226.000
405.357;   19.250;  117.000;   44.000
405.484;  235.625;  -49.000;    5.000
405.612;   41.625; -548.000; -563.000
405.739;  -58.825; -488.000; -243.000
405.866;   89.800;  669.000;  385.000
405.993;  -41.175; -398.000; -102.000
406.120; -131.125; -801.000; -887.000
406.247;  -50.400; -323.000; -342.000
406.374;  555.275;  540.000;  629.000
406.501;  170.050; -632.000; -702.000
406.628;  -75.450; -621.000; -589.000
406.755;  -97.850; -803.000; -620.000
406.882;  -29.775; -228.000; -277.000
407.009;  -97.275; -719.000; -628.000
407.136;   78.000; -480.000; -401.000
407.263;  219.600; -939.000; -829.000
407.390;  -59.175; -692.000; -614.000
407.517; -150.550;-1139.000;-1187.000
407.644;  -58.975; -332.000; -256.000
407.771;  -53.400; -249.000; -287.000
407.898;   -3.025;  168.000;  328.000
408.025;  -72.050; -421.000; -313.000
408.151;    5.125;   82.000;  153.000
408.278;  -72.250; -267.000; -216.000
408.405; -109.025; -931.000; -899.000
408.532;  -63.875; -549.000; -542.000
408.659; -112.050; -677.000; -648.000
408.785; -201.600;-1298.000;-1170.000
408.912;  -81.675; -412.000; -296.000
409.039; -123.500; -610.000; -686.000
409.166; -111.925; -591.000; -555.000
409.292; -108.275; -571.000; -534.000
409.419; -112.125; -665.000; -649.000
409.546;  -93.125; -431.000; -192.000
409.672; -122.000; -713.000; -545.000
409.799;  -17.575;  -36.000;   34.000
409.926;  -43.875; -180.000; -179.000
410.052; -168.225;-1127.000;-1091.000
410.179;  -49.775; -368.000; -392.000
410.305;  -91.000; -375.000; -493.000
410.432;  -35.250; -220.000; -333.000
410.558;  -81.925; -305.000; -380.000
410.685; -106.350; -688.000; -431.000
410.812;  -84.475; -409.000; -588.000
410.938; -134.200; -964.000; -808.000
411.065;  -89.175; -671.000; -645.000
411.191;  -21.300; -189.000; -174.000
411.317; -114.800; -823.000; -742.000
411.444;  -73.675; -317.000; -246.000
411.570;  -76.725; -339.000; -294.000
411.697; -115.725; -758.000; -752.000
411.823; -168.650; -989.000; -999.000
411.949;  -23.150;  -56.000;   17.000
412.076; -120.800; -539.000; -519.000
412.202; -117.400; -758.000; -757.000
412.329; -122.350; -798.000; -752.000
412.455; -109.600; -821.000; -657.000
412.581;  -12.950;  -15.000;  172.000
412.707;  -47.525; -540.000; -457.000
412.834;   26.675;  156.000;  219.000
412.960;  -81.825; -785.000; -784.000
413.086;  -97.325; -743.000; -701.000
413.212;  172.000;  604.000;  578.000
413.339;  -38.700; -685.000; -701.000
413.465;   17.925; -364.000; -310.000
413.591;  -86.025; -757.000; -474.000
413.717;  -53.950; -358.000; -366.000
413.843; -146.925; -839.000; -861.000
413.969;  -63.000;  -47.000; -292.000
414.096; -100.000; -679.000; -679.000
414.222;  -10.625;  -33.000;   85.000
414.348;   -1.575; -652.000; -385.000
414.474;  122.150;   38.000;  -52.000
414.600;  -16.875; -126.000; -144.000
414.726;  -18.600;  -96.000;  -55.000
414.852;  -57.575; -365.000; -342.000
414.978;   33.975;  104.000;  -18.000
415.104;   31.250;   38.000;   80.000
415.230;   27.925; -329.000; -330.000
415.356;   44.500; -409.000; -514.000
415.482;  214.100;   13.000;  -35.000
415.608;  270.775; -247.000; -323.000
415.734;  928.250;   67.000;   38.000
415.860;18949.250; -875.000; -767.000
415.986;14533.400; -685.000; -607.000
416.111; 1284.325; -798.000; -652.000
416.237;  232.275; -424.000; -571.000
416.363; 1009.575; -765.000; -733.000
416.489; 3948.075; -324.000; -251.000
416.615;  454.850; -707.000; -742.000
416.741;  -26.300; -677.000; -784.000
416.866;  -92.600; -673.000; -736.000
416.992; -111.925; -801.000; -818.000
417.118;  -29.325;  -41.000;  -80.000
417.244;  -61.525; -798.000; -531.000
417.369;  -69.300; -801.000; -612.000
417.495;   -1.700; -325.000; -254.000
417.621;  -67.025;-1015.000; -803.000
417.746;   14.725; -579.000; -572.000
417.872;   40.850; -254.000; -144.000
417.998;   59.125; -515.000; -530.000
418.123;  942.975;-1073.000; -845.000
418.249; 5137.325; -512.000; -601.000
418.374;  752.650; -916.000; -824.000
418.500;   92.425; -383.000; -482.000
418.626;  104.150;   70.000;  -59.000
418.751;  143.950; -549.000; -448.000
418.877;  206.325; -637.000; -643.000
419.002; 1636.350; -688.000; -560.000
419.128;11901.075; -930.000; -721.000
419.253; 3045.975; -967.000; -837.000
419.379;  398.875; -391.000; -338.000
419.504;  386.850;  325.000;  415.000
419.629;  470.525; -393.000; -212.000
419.755; 3141.750; -317.000; -254.000
419.880;19604.175;  -98.000;   67.000
420.006;10842.850; -280.000; -221.000
420.131;28365.325; -662.000; -775.000
420.256; 4299.400; -315.000; -316.000
420.382;  550.450; -665.000; -687.000
420.507;   58.450; -649.000; -778.000
420.632;  179.150; -337.000; -339.000
420.758;  341.425; -251.000; -425.000
420.883;  -64.950; -876.000; -672.000
421.008; -105.000; -775.000; -619.000
421.133;  -78.425; -509.000; -467.000
421.259;  -45.125; -325.000; -259.000
421.384; -110.925; -834.000; -693.000
421.509;  -19.825;-1052.000; -862.000
421.634; 1531.250; -936.000; -820.000
421.759;  720.475; -359.000; -327.000
421.885;  -31.475; -717.000; -656.000
422.010;  -73.125; -673.000; -542.000
422.135; -143.125; -695.000; -727.000
422.260;   30.450;  340.000;  280.000
422.385;  -44.350;   12.000;  -98.000
422.510;    4.550;  151.000;  -26.000
422.635;   31.725;  -87.000;  -43.000
422.760;  138.550; -766.000; -791.000
422.885;   55.425;  -57.000;  -80.000
423.010;  -30.500; -112.000; -169.000
423.135;  -91.750; -481.000; -561.000
423.260;   -3.250; -150.000; -245.000
423.385;   76.600;  476.000;  222.000
423.510;   31.500;   71.000;  -22.000
423.635;   83.950;  133.000;   45.000
423.760;   50.975;  383.000;  328.000
423.885;   66.100;  336.000;  391.000
424.010;   21.600;  -68.000;  -13.000
424.135;  -36.525;    5.000;  -33.000
424.259;  -90.225; -654.000; -457.000
424.384;  -55.175; -279.000; -272.000
424.509;  -27.075; -260.000; -186.000
424.634; -107.200; -761.000; -623.000
424.759;  -21.950; -688.000; -544.000
424.883;   -3.600; -506.000; -527.000
425.008;  170.600; -502.000; -410.000
425.133; 1910.675; -679.000; -653.000
425.258;  932.000; -517.000; -381.000
425.382; 1194.625; -867.000; -774.000
425.507; 3281.675; -487.000; -543.000
425.632;  539.975; -802.000; -663.000
425.756;  442.250; -256.000; -146.000
425.881; 5726.950; -831.000; -857.000
426.006;16278.850; -604.000; -355.000
426.130; 2770.750; -696.000; -508.000
426.255;  356.475; -611.000; -491.000
426.379;  140.950; -189.000; -577.000
426.504;  347.100;  660.000;  544.000
426.629; 3868.100; -519.000; -466.000
426.753; 2780.475;   64.000;  -46.000
426.878;  331.500; -252.000; -288.000
427.002;  133.550; -651.000; -668.000
427.127; 1499.625;  -35.000; -158.000
427.251;10793.575;  372.000;  401.000
427.375; 3290.725; -191.000; -173.000
427.500; 2765.200; -616.000; -610.000
427.624; 1018.625; -234.000; -400.000
427.749;  104.375; -216.000; -225.000
427.873;  -26.425; -499.000; -412.000
427.997;  -43.625; -222.000; -230.000
428.122;   68.975;  795.000;  703.000
428.246;   77.325;  433.000;  434.000
428.371; -118.175; -869.000; -773.000
428.495; -110.550; -624.000; -646.000
428.619;  -46.875; -186.000; -117.000
428.743;   22.700;   65.000;  132.000
428.868;   38.450; -732.000; -643.000
428.992; 1748.500; -219.000; -326.000
429.116;  764.050; -329.000; -357.000
429.240;  334.225;  419.000;  426.000
429.365;   -1.675; -454.000; -574.000
429.489;  -20.400; -638.000; -647.000
429.613;   22.450; -236.000; -177.000
429.737;   41.475; -563.000; -432.000
429.861;  259.400; -247.000; -133.000
429.985; 5155.650; -425.000; -305.000
430.109; 5968.025; -770.000; -908.000
430.234;  701.700;   76.000;  -50.000
430.358;   63.300; -250.000; -160.000
430.482;  -72.225; -672.000; -564.000
430.606;  -59.725; -655.000; -375.000
430.730;   37.275; -437.000; -388.000
430.854;  206.750; -909.000; -835.000
430.978;  -52.925; -795.000; -764.000
431.102;  -81.550; -499.000; -422.000
431.226; -112.600; -874.000; -815.000
431.350;   27.950;  345.000;  422.000
431.474;  -59.000; -661.000; -373.000
431.597; -141.650;-1060.000; -848.000
431.721;  -80.900; -276.000; -267.000
431.845; -123.400; -704.000; -472.000
431.969;  -89.800; -304.000; -349.000
432.093; -103.275; -395.000; -317.000
432.217;  -17.475;   32.000;   82.000
432.341;  -84.475; -523.000; -518.000
432.464;   12.325;   96.000;   40.000
432.588;  293.500; -401.000; -329.000
432.712;  117.525;  -52.000;  -52.000
432.836;   43.900;  213.000;  263.000
432.959;  -13.375; -372.000; -311.000
433.083;   67.450;   11.000;    2.000
433.207;  344.125;  285.000;  930.000
433.330; 4624.125; -391.000; -200.000
433.454; 6005.150; -654.000; -638.000
433.578; 3442.525;  583.000;  278.000
433.701;  690.325; -623.000; -675.000
433.825;  184.725; -292.000; -299.000
433.949;  241.775;   28.000;  -72.000
434.072;  104.925; -410.000; -323.000
434.196;   -2.375; -309.000; -117.000
434.319; 3605.300;25482.000;25124.000
434.443;  719.825; -656.000; -603.000
434.566; 2553.900;  281.000;   62.000
434.690;  464.125; -637.000; -383.000
434.813;   59.125; -251.000; -173.000
434.937;  -77.950; -569.000; -696.000
435.060;  -26.825; -423.000; -332.000
435.184;  420.725; -492.000; -217.000
435.307;  257.425;  159.000;  102.000
435.431;   -4.325;  -40.000;   24.000
435.554;  -69.475; -399.000; -240.000
435.677;  -94.850; -350.000; -258.000
435.801;  -47.825;  -25.000;   49.000
435.924;   -8.000;    1.000;  -67.000
436.048;  -85.550;-1019.000; -732.000
436.171;  -62.325; -240.000;  -66.000
436.294;  -28.800; -248.000; -229.000
436.417;   77.075; -963.000; -849.000
436.541;  -85.775; -814.000; -840.000
436.664;  -58.725; -242.000; -316.000
436.787;  -25.250;   13.000;  113.000
436.910; -105.325; -792.000; -422.000
437.034;    9.775;  142.000;  143.000
437.157;   74.175;  -11.000;    0.000
437.280;  -22.025; -392.000; -292.000
437.403;  -66.150; -982.000; -869.000
437.526;  833.600; -903.000; -865.000
437.649; 3074.425; -505.000; -332.000
437.772;  530.850; -692.000; -540.000
437.896;  136.475;  700.000;  544.000
438.019;  -87.825; -758.000; -503.000
438.142;  -77.525; -596.000; -506.000
438.265;   14.050; -639.000; -670.000
438.388;  749.700; -520.000; -410.000
438.511;  168.300; -597.000; -394.000
438.634;  -20.800; -247.000; -125.000
438.757; -126.250; -693.000; -619.000
438.880;  -17.625;  -34.000;  -57.000
439.003;  -75.800; -417.000; -437.000
439.126;  -64.900; -287.000; -167.000
439.248;  -56.500;  -98.000; -139.000
439.371;  -48.500;    9.000;  -53.000
439.494;    3.725;  510.000;  439.000
439.617;  -69.925;   65.000;  -88.000
439.740; -177.850; -968.000; -816.000
439.863; -146.250; -755.000; -595.000
439.986; -129.950; -476.000; -431.000
440.108;  -52.100; -161.000; -112.000
440.231; -160.375; -950.000; -836.000
440.354;  -34.825;  -64.000; -150.000
440.477;   65.850; -566.000; -542.000
440.599;   29.200; -200.000; -225.000
440.722; -117.050; -709.000; -586.000
440.845;   61.700;  751.000;  928.000
440.968; -107.925; -415.000; -311.000
441.090;  -83.550; -199.000;  -33.000
441.213; -162.175;-1021.000; -825.000
441.336;  -46.475; -159.000;   -5.000
441.458;  -75.800; -549.000; -396.000
441.581;  -79.850; -628.000; -629.000
441.703;  -53.850; -152.000;   13.000
441.826; -109.225; -557.000; -400.000
441.948;  -63.175;   56.000;   51.000
442.071;   29.725;  555.000;  424.000
442.193; -114.075; -531.000; -485.000
442.316;   16.400;  152.000;   97.000
442.438;   40.200; -233.000;  -10.000
442.561;   75.200;  272.000;  262.000
442.683;  699.375; -809.000; -522.000
442.806; 1561.675;   -8.000;   74.000
442.928;  101.025; -859.000; -604.000
443.051;  -56.200; -577.000; -373.000
443.173;  -87.700; -341.000; -339.000
443.295;  -99.100; -263.000; -371.000
443.418;  -64.175; -321.000;  -29.000
443.540;  -15.325; -106.000;   -4.000
443.662; -113.075; -563.000; -465.000
443.785;   -6.325;  335.000;  199.000
443.907; -106.475; -362.000; -208.000
444.029; -141.675; -767.000; -494.000
444.152; -142.150; -644.000; -554.000
444.274;  -26.250;  -18.000;  -24.000
444.396; -107.125; -461.000; -221.000
444.518; -131.150; -691.000; -454.000
444.640; -113.125; -268.000; -111.000
444.763;  -20.650;  388.000;  249.000
444.885; -119.400; -432.000; -392.000
445.007;  -39.300;   35.000;   86.000
445.129; -117.375; -610.000; -515.000
445.251;  -89.600; -372.000; -439.000
445.373; -138.825; -537.000; -386.000
445.495;    0.350;  242.000;  350.000
445.617;   56.425;  853.000;  753.000
445.739;  -72.400; -215.000;  -97.000
445.861;  -28.825; -245.000; -112.000
445.984;  -29.950; -267.000; -101.000
446.105;  272.475; -418.000; -251.000
446.227;  796.600; -176.000;  -19.000
446.349;   39.375; -358.000; -249.000
446.471;  -93.975; -615.000; -448.000
446.593;  -66.350; -316.000;   19.000
446.715;    9.275;  -67.000;   41.000
446.837;   75.475;  697.000;  832.000
446.959;  -96.500; -457.000; -478.000
447.081; -137.950; -628.000; -518.000
447.203;   47.125;  862.000;  834.000
447.325;  -84.575; -270.000;   42.000
447.446;  -17.800;  286.000;  530.000
447.568; -152.600; -921.000; -803.000
447.690;  -73.400; -236.000; -245.000
447.812; -152.025; -798.000; -519.000
447.933;  -39.775;  155.000;  127.000
448.055;  -64.075; -306.000; -261.000
448.177;  165.900;   31.000;   79.000
448.299;  161.025; -935.000; -727.000
448.420;   41.100;  -25.000;  159.000
448.542;  -50.675;   -3.000;   33.000
448.664;  -20.850;  109.000;  322.000
448.785;  -42.025;  265.000;   83.000
448.907;  -79.600; -614.000; -353.000
449.028;   -9.375; -771.000; -471.000
449.150;   67.275;  492.000;  589.000
449.272; -187.000;-1044.000; -913.000
449.393;   12.825;  612.000;  694.000
449.515; -138.800; -634.000; -581.000
449.636;  -55.575; -264.000; -155.000
449.758;   80.225;  763.000;  622.000
449.879; -105.525; -498.000; -396.000
450.001;  -88.125; -149.000;  -49.000
450.122;  -53.575;  -95.000;  162.000
450.244;  -35.925;   37.000;  364.000
450.365;  -95.400; -495.000; -301.000
450.486;  -50.075;   80.000;  268.000
450.608;   28.550;  393.000;  326.000
450.729;   43.975;  578.000;  645.000
450.850;  -10.100; -574.000; -466.000
450.972;  632.300; -552.000; -389.000
451.093; 4497.000;  190.000;  588.000
451.214; 2082.375; -516.000; -337.000
451.336;  385.200;  773.000;  579.000
451.457;   53.675;  264.000;  393.000
451.578;  -55.300; -118.000;  -74.000
451.699; -118.075; -546.000; -540.000
451.821;  -76.825; -284.000;  -50.000
451.942;    2.000;  278.000;  285.000
452.063;   19.975;  228.000;  419.000
452.184;  495.025;  -54.000;  -49.000
452.305; 1056.200;  103.000;  170.000
452.427;  131.400; -549.000; -301.000
452.548;  -20.800;   23.000;   79.000
452.669;  -46.450; -257.000;  -89.000
452.790;  -30.125;    3.000;  -18.000
452.911;  -12.250;  195.000;  259.000
453.032;  -69.200; -289.000;  -60.000
453.153;  -36.700;  -29.000;   81.000
453.274;   48.900;  737.000;  868.000
453.395;  -41.375;  -51.000;  175.000
453.516;   67.100; 1317.000; 1388.000
453.637;  -55.550; -205.000; -150.000
453.758;  -62.850;   15.000;   69.000
453.879; -130.475; -462.000; -250.000
454.000;   70.525; 1086.000;  948.000
454.121; -113.275; -554.000; -326.000
454.242; -117.850; -599.000; -383.000
454.362;  -61.325;  -99.000;  114.000
454.483;  -33.475; -309.000; -229.000
454.604;   61.100;  512.000;  580.000
454.725; -118.975; -627.000; -555.000
454.846; -109.800; -474.000; -406.000
454.967;  -26.175;  230.000;  539.000
455.087;  -53.825;  179.000;  153.000
455.208;    3.600;  554.000;  856.000
455.329;  -57.000;  -22.000;   82.000
455.450;   11.750;  473.000;  633.000
455.570;  -89.050; -234.000; -211.000
455.691;  -51.025;  201.000;  407.000
455.812; -103.925; -270.000;  -92.000
455.932;  -71.225;  107.000;  -97.000
456.053;  -81.875;   36.000;   24.000
456.173; -115.675; -433.000; -355.000
456.294; -137.300; -476.000; -303.000
456.415;  -74.550;  -73.000;   70.000
456.535;  -24.025;  297.000;  273.000
456.656;  -38.850;  132.000;  240.000
456.776;  -72.125;    3.000;  298.000
456.897;  -11.400;  308.000;  513.000
457.017;  -82.250; -153.000;   -3.000
457.138; -115.375; -402.000; -249.000
457.258;  -25.050;  263.000;  224.000
457.379;  -13.025;  509.000;  521.000
457.499;  -21.625;  443.000;  432.000
457.620; -105.950; -407.000; -231.000
457.740;  -95.900; -132.000;  -11.000
457.860;  -73.775;   87.000;   44.000
457.981;  -42.775;  132.000;  124.000
458.101;  -73.600;  -89.000;   40.000
458.221;  -28.400;  336.000;  402.000
458.342;  -61.800;   -4.000;  -37.000
458.462;   15.775;  617.000;  352.000
458.582;  -50.600; -302.000; -294.000
458.703;   -6.400;  303.000;  154.000
458.823;  -23.875;   22.000;  163.000
458.943;   15.275;  341.000;  467.000
459.063;  -14.500; 1124.000;  192.000
459.183;  -24.100;  328.000;  313.000
459.304;    0.675;  315.000;  517.000
459.424;  -58.725; -246.000;  -89.000
459.544;  290.000;  388.000;  764.000
459.664;  781.850;  499.000;  506.000
459.784;  299.975; 1004.000; 1175.000
459.904;   48.200;  867.000;  744.000
460.024;   62.100;  867.000;  684.000
460.144;    7.700;  449.000;  554.000
460.264;   -4.375;  515.000;  327.000
460.385;  -89.825; -145.000; -119.000
460.505;   33.375;  905.000;  858.000
460.625; -101.925;  -17.000;  -68.000
460.745;  -21.775;  396.000;  541.000
460.864;  -44.375;  153.000;  469.000
460.984;   13.650;  499.000;  573.000
461.104;  132.625; 1656.000; 1775.000
461.224;   20.675;  657.000;  650.000
461.344;  -23.150;  431.000;  360.000
461.464;  -46.125;  258.000;  513.000
461.584;   -7.825;  283.000;  466.000
461.704;  -48.525;   58.000;  108.000
461.824;  -62.275;  238.000;  259.000
461.943;  -44.975;  191.000;  130.000
462.063;  -71.775;    2.000;  324.000
462.183;   37.775;  639.000;  717.000
462.303;  107.475; 1678.000; 1230.000
462.422;   29.025;  781.000;  840.000
462.542;  -36.050;  271.000;  391.000
462.662;   28.675;  353.000;  380.000
462.782;  242.325;  833.000;  572.000
462.901;  451.900;  545.000;  717.000
463.021;  288.275; 1702.000; 1638.000
463.141;  -13.250;  337.000;  770.000
463.260;  -42.450;  614.000;  474.000
463.380;    0.125;  902.000;  884.000
463.499;  -37.350;  342.000;  332.000
463.619;  -43.750;  581.000;  559.000
463.738;  104.000; 1644.000;  903.000
463.858;   17.325;  657.000;  811.000
463.978;  -35.200;  542.000;  396.000
464.097;   29.075;  921.000; 1114.000
464.217;  110.150; 1196.000; 1143.000
464.336;  106.150; 1068.000; 1130.000
464.455;  -33.750;  328.000;  659.000
464.575;   44.525;  597.000;  602.000
464.694;  184.900; 1204.000; 1179.000
464.814;  126.475; 1190.000; 1138.000
464.933;   79.600; 1095.000; 1027.000
465.052;   96.725; 1412.000; 1054.000
465.172;   87.775;  922.000;  799.000
465.291;  148.225; 1376.000; 1320.000
465.410;    7.650;  462.000;  735.000
465.530;   77.025; 1355.000; 1310.000
465.649;   57.900; 1209.000; 1273.000
465.768;  139.250; 1673.000; 1508.000
465.888;   27.050;  941.000; 1174.000
466.007;   93.575; 1335.000; 1440.000
466.126;   -5.600;  721.000;  641.000
466.245;   40.525; 1176.000; 1187.000
466.364;   19.625;  950.000; 1060.000
466.484;   54.750; 1024.000; 1213.000
466.603;   50.750; 1101.000; 1222.000
466.722;  113.000; 1490.000; 1769.000
466.841;   86.975; 1151.000; 1401.000
466.960;   24.425; 1069.000;  972.000
467.079;  122.725; 1971.000; 1786.000
467.198;   46.250; 1238.000; 1181.000
467.317;   94.800; 1768.000; 1162.000
467.436;   74.900; 1709.000; 1261.000
467.555;  117.425; 1796.000; 1746.000
467.674;   55.300; 1227.000; 1329.000
467.793;   54.250; 1376.000; 1374.000
467.912;   78.000; 1658.000; 1539.000
468.031;  141.775; 2038.000; 1930.000
468.150;  133.175; 1842.000; 1837.000
468.269;  198.075; 2313.000; 2090.000
468.388;  185.275; 2168.000; 2339.000
468.507;  247.425; 2884.000; 2903.000
468.626;  259.300; 2555.000; 2541.000
468.744;  140.450; 2018.000; 2174.000
468.863;  185.500; 2312.000; 2523.000
468.982;   92.200; 1503.000; 1555.000
469.101;  218.875; 2788.000; 2692.000
469.220;  142.025; 2333.000; 2176.000
469.338;  241.050; 2935.000; 3051.000
469.457;  219.675; 2719.000; 2545.000
469.576;  340.800; 3953.000; 3784.000
469.695;  240.275; 2877.000; 3066.000
469.813;  424.500; 4148.000; 4192.000
469.932;  416.475; 4255.000; 4485.000
470.051;  414.950; 4075.000; 4161.000
470.169;  819.675; 4470.000; 4338.000
470.288; 1425.725; 4700.000; 4809.000
470.406;  876.400; 5059.000; 5194.000
470.525;  626.150; 6101.000; 5787.000
470.644;  640.025; 6847.000; 6794.000
470.762;  841.150; 8397.000; 7873.000
470.881;  903.425; 8651.000; 8464.000
470.999; 1046.025; 9685.000; 9151.000
471.118; 1102.000;11174.000;10711.000

