
Integration time [ms]: 100.000
Averaging Nr. [scans]: 40
Smoothing Nr. [pixels]: 0
Data measured with spectrometer [name]: 2101012U2
Wave   ;Sample   ;Dark     ;Reference
[nm]   ;[counts] ;[counts] ;[counts] 

197.733;   53.700;  516.000;  404.000
197.879;  -72.200; -610.000; -634.000
198.025;  -57.200; -475.000; -420.000
198.171;  -75.900; -602.000; -612.000
198.317;  -36.450; -401.000; -316.000
198.463;  -57.700; -655.000; -404.000
198.609;   25.275;  181.000; -137.000
198.755;  -89.200; -644.000; -410.000
198.901;  -70.825; -505.000; -424.000
199.047;  -69.275; -615.000; -488.000
199.193;  -45.325; -230.000; -468.000
199.339;  -42.025; -222.000; -369.000
199.485;   31.300;  330.000;  271.000
199.631;    8.925;  227.000;  310.000
199.777;  -56.750; -466.000; -398.000
199.923;  -56.700; -610.000; -424.000
200.069;  -15.650; -141.000;  -58.000
200.215;   58.775;  128.000;  453.000
200.361;   33.400;  243.000;  477.000
200.507;  -61.725; -600.000; -373.000
200.653;  -28.000; -371.000; -194.000
200.798;  -46.750; -215.000; -125.000
200.944;   -7.375; -146.000;  -41.000
201.090;   45.975;   61.000;  222.000
201.236;   -9.925; -116.000; -158.000
201.382;  132.625;  874.000;  903.000
201.528;   -4.500;  -58.000;  -48.000
201.674;  -47.025; -386.000; -293.000
201.819;  -68.675; -540.000; -439.000
201.965;  -83.275; -699.000; -447.000
202.111;  -38.425; -273.000; -226.000
202.257;  -47.575; -250.000; -238.000
202.402;   -0.725;   13.000;  -36.000
202.548;  -37.275; -169.000; -116.000
202.694;   76.225;  410.000; -183.000
202.840;  -75.375; -603.000; -531.000
202.985;  -79.625; -681.000; -639.000
203.131; -114.225; -832.000; -666.000
203.277;  -30.625; -199.000; -262.000
203.423;  -64.900; -434.000; -520.000
203.568;  -39.250; -462.000; -237.000
203.714;  -60.900; -535.000; -542.000
203.860;  -78.775; -682.000; -641.000
204.005;   13.525;  112.000;  167.000
204.151;   75.450;  561.000;  556.000
204.296;  -45.250; -354.000; -221.000
204.442;  -78.425; -600.000; -547.000
204.588;  -83.875; -592.000; -579.000
204.733;   14.025;  178.000;  168.000
204.879; -123.275;-1018.000; -822.000
205.025;    1.900;  -99.000;  126.000
205.170;   -6.200;  -17.000;   94.000
205.316;   72.350;  438.000;  661.000
205.461;  -85.875; -698.000; -554.000
205.607;   92.350;  609.000;  665.000
205.752;  -86.075; -626.000; -551.000
205.898;  -62.650; -501.000; -391.000
206.043;  -60.225; -578.000; -506.000
206.189;  -54.050; -243.000; -285.000
206.334;   69.375;  554.000;  606.000
206.480;   82.500;  409.000;  239.000
206.625;  -77.200; -529.000; -552.000
206.771;  -52.675; -451.000; -373.000
206.916;  -38.800; -210.000; -537.000
207.062;  -78.175; -545.000; -591.000
207.207;  -59.200; -546.000; -443.000
207.353;   57.500;  185.000;  460.000
207.498;   14.000;  196.000;   85.000
207.643;  -63.300; -501.000; -370.000
207.789; -132.900;-1069.000; -910.000
207.934; -110.475; -665.000; -713.000
208.080;  -33.825; -154.000;   66.000
208.225;  -15.675;  -22.000;  -57.000
208.370;  -78.950; -727.000; -619.000
208.516;  -80.775; -741.000; -487.000
208.661;  -39.450; -127.000;  -69.000
208.806;  -23.850; -165.000; -171.000
208.952; -129.000;-1044.000; -731.000
209.097;   66.625;  378.000;  349.000
209.242;  -48.600; -307.000; -382.000
209.387;   63.775;  392.000;  350.000
209.533;  -38.800; -321.000; -350.000
209.678;   83.525;  472.000;  543.000
209.823;  -48.875; -408.000; -310.000
209.969; -110.500; -860.000; -757.000
210.114; -110.775; -907.000; -719.000
210.259; -129.125; -939.000; -889.000
210.404;  -12.200; -171.000;  103.000
210.549;    9.900;  108.000;    3.000
210.695;  -17.200;   -3.000;  -95.000
210.840;   25.550;   94.000;   67.000
210.985;  -57.825; -484.000; -303.000
211.130;   63.225;  268.000;  406.000
211.275;   11.950;  207.000;  199.000
211.420;  -56.575; -300.000; -289.000
211.566;  -75.850; -536.000; -489.000
211.711;   28.300;  218.000;  157.000
211.856;  -68.700; -545.000; -519.000
212.001;    6.750;  151.000;   44.000
212.146;   24.300;  153.000;   49.000
212.291;  -20.925; -210.000; -186.000
212.436;  -24.275; -280.000;   -6.000
212.581;  -89.625; -685.000; -653.000
212.726;  -82.200; -487.000; -538.000
212.871;  -64.275; -552.000; -217.000
213.016; -164.375;-1172.000;-1029.000
213.161;   60.400;  406.000;  291.000
213.306;  -80.975; -435.000; -577.000
213.451; -109.900; -778.000; -689.000
213.596;  -49.325; -455.000; -347.000
213.741;  -64.875; -448.000; -538.000
213.886;  -70.800; -498.000; -517.000
214.031;  -22.100; -294.000; -124.000
214.176;  -57.350; -408.000; -341.000
214.321;  -32.325; -296.000; -157.000
214.466;  -24.325; -163.000;  -43.000
214.611;   -7.400;  -61.000;  -10.000
214.756; -133.800; -948.000; -858.000
214.901;  -46.050; -388.000; -226.000
215.046; -124.500; -797.000; -825.000
215.191;   24.000;  128.000;   35.000
215.336;  -13.875; -157.000;  -19.000
215.480;  -76.025; -684.000; -505.000
215.625;  -11.000; -175.000;  -19.000
215.770;  -93.675; -757.000; -662.000
215.915;    3.600;   -5.000;  -97.000
216.060;    5.100; -113.000;  -21.000
216.205; -106.875; -731.000; -779.000
216.349;  -86.200; -470.000; -533.000
216.494; -133.075; -939.000; -867.000
216.639; -128.975; -823.000; -888.000
216.784;  -92.700; -577.000; -525.000
216.929;   50.350;  392.000;  281.000
217.073;  -14.925; -244.000;  -31.000
217.218;   -8.125;   78.000;  -47.000
217.363;  -89.000; -656.000; -618.000
217.507;  -91.725; -623.000; -588.000
217.652; -125.600; -845.000; -874.000
217.797;  -91.500; -708.000; -659.000
217.942; -115.550; -856.000; -720.000
218.086;   61.925;  608.000;  539.000
218.231;  -27.325; -174.000;  -26.000
218.376;  -40.650; -337.000; -229.000
218.520;   22.000;  -41.000;   96.000
218.665;  -42.925; -338.000; -204.000
218.810;  -45.725; -275.000; -233.000
218.954;   18.450;  201.000;   35.000
219.099; -109.500; -713.000; -963.000
219.243;  -76.800; -589.000; -554.000
219.388;  -37.275; -264.000; -136.000
219.532;  -23.750; -116.000; -116.000
219.677;  -65.400; -564.000; -521.000
219.822;  -11.100;   33.000;   89.000
219.966;    6.375;   17.000;  -99.000
220.111;  -35.825; -328.000;  -40.000
220.255; -103.675; -797.000; -750.000
220.400;  -31.625; -180.000; -146.000
220.544;  -72.475; -516.000; -450.000
220.689;  -60.350; -422.000; -451.000
220.833;   -5.100; -123.000;  -58.000
220.978;  -63.800; -393.000; -563.000
221.122;   39.650;  319.000;  307.000
221.267; -119.425; -906.000; -837.000
221.411;  -65.050; -478.000; -394.000
221.555;  -12.750; -104.000;  -23.000
221.700;  -46.000; -329.000; -222.000
221.844;   37.150;  255.000;  272.000
221.989;  -44.000; -328.000; -311.000
222.133;  -43.550; -289.000; -307.000
222.277;   -5.500;    5.000;   78.000
222.422;   16.125;  227.000;  113.000
222.566;  -30.600; -381.000; -214.000
222.711;  -55.350; -414.000; -479.000
222.855;  -76.325; -643.000; -586.000
222.999;  -84.275; -642.000; -717.000
223.144;  -43.400; -195.000; -194.000
223.288;   58.375;  423.000;  251.000
223.432;   20.250;  184.000;  230.000
223.576;   16.800;  152.000;  -21.000
223.721;   35.925;  364.000;  273.000
223.865;  -61.875; -472.000; -475.000
224.009;  241.750; 1673.000; 1631.000
224.153;  -86.125; -660.000; -671.000
224.298;  -59.025; -531.000; -489.000
224.442;  -22.725;  -74.000;  -33.000
224.586;  -18.375; -169.000; -106.000
224.730;  -99.950; -858.000; -670.000
224.875; -101.450; -739.000; -688.000
225.019;  -10.950;  102.000;  188.000
225.163;   44.475;  208.000;  341.000
225.307;    9.250;   97.000;  -91.000
225.451;   41.125;  360.000;  481.000
225.595;   27.275;  264.000;  176.000
225.739;  -19.575; -170.000;  -94.000
225.884;   -2.400;   86.000;    5.000
226.028; -101.325; -760.000; -626.000
226.172;  -43.575; -260.000; -273.000
226.316; -116.275; -941.000; -902.000
226.460;  -77.350; -645.000; -493.000
226.604;  -51.900; -406.000; -400.000
226.748;  -99.900; -836.000; -733.000
226.892;  -31.125; -227.000; -181.000
227.036;  -55.425; -537.000; -447.000
227.180;  -62.925; -551.000; -375.000
227.324;  -69.000; -561.000; -580.000
227.468; -116.875; -819.000; -717.000
227.612;    4.375;  242.000;  -28.000
227.756; -102.475; -845.000; -698.000
227.900;   56.125;  342.000;  441.000
228.044;  -52.750; -509.000; -290.000
228.188;   39.675;  448.000;  568.000
228.332;  -88.200; -546.000; -472.000
228.476;  -32.850; -223.000; -149.000
228.620;  -28.000; -210.000; -150.000
228.764;   64.900;  431.000;  349.000
228.908;  -17.750; -155.000;   30.000
229.052;  -76.925; -615.000; -528.000
229.195;   -3.925; -172.000;   13.000
229.339;  -24.200; -235.000; -305.000
229.483;  -29.950;    5.000; -162.000
229.627;  -10.575; -156.000;  139.000
229.771;  -57.650; -218.000; -294.000
229.915;   -2.925;  230.000;   79.000
230.059; -101.400; -648.000; -663.000
230.202;  -42.975; -370.000; -317.000
230.346;  -12.600; -107.000;  107.000
230.490;  -69.825; -489.000; -521.000
230.634; -111.725; -736.000; -553.000
230.777;   63.150;  478.000;  509.000
230.921;  -66.750; -450.000; -359.000
231.065;  -42.650; -246.000; -286.000
231.209;   30.950;  261.000;  265.000
231.352;   13.100;   54.000;   40.000
231.496;   32.950;  568.000;  188.000
231.640;  -82.000; -693.000; -621.000
231.783;   61.600;  546.000;  525.000
231.927;  -51.250; -294.000; -365.000
232.071; -122.675; -962.000; -736.000
232.214; -116.325; -980.000; -764.000
232.358;  -99.900; -683.000; -599.000
232.502;   -4.300;  -19.000;    7.000
232.645; -139.000;-1090.000; -927.000
232.789;  -43.150; -257.000; -218.000
232.933;  -50.425; -407.000; -224.000
233.076; -137.575;-1038.000; -897.000
233.220; -113.600; -752.000; -777.000
233.363;  -88.975; -669.000; -477.000
233.507;   62.950;  371.000;  129.000
233.650;  -99.325; -764.000; -834.000
233.794;   39.225;  438.000;  461.000
233.938;  -71.200; -530.000; -362.000
234.081;  -13.650;  -93.000;   31.000
234.225;  -74.625; -631.000; -539.000
234.368; -115.375; -773.000; -723.000
234.512;  -47.050; -385.000; -299.000
234.655;  -90.925; -582.000; -555.000
234.798;  -87.800; -493.000; -466.000
234.942; -131.625; -884.000;-1002.000
235.085;  -79.100; -651.000; -443.000
235.229;  -70.050; -405.000; -410.000
235.372;  -63.475; -247.000; -191.000
235.516;  -59.025; -397.000; -321.000
235.659;    4.125;   92.000;  121.000
235.802;  -12.250;  -38.000;  -22.000
235.946;   24.600;  335.000;  215.000
236.089;   28.050;  126.000;  250.000
236.233;   49.475;  275.000;  298.000
236.376;  -52.825; -235.000; -378.000
236.519;  -55.650; -297.000; -319.000
236.663;  -24.250; -215.000; -117.000
236.806; -160.275;-1029.000; -999.000
236.949;   75.825;  543.000;  431.000
237.092;   58.000;  412.000;  391.000
237.236;  -78.850; -589.000; -502.000
237.379;   55.700;  352.000;  428.000
237.522; -134.450; -879.000; -768.000
237.666;  -26.000; -271.000;   18.000
237.809; -130.375; -851.000; -823.000
237.952;   24.475;  469.000;  271.000
238.095;  -53.500; -447.000; -442.000
238.238;   79.425;  688.000;  700.000
238.382;   -7.775;  166.000;  103.000
238.525;  -83.700; -598.000; -511.000
238.668; -148.600;-1060.000; -985.000
238.811;  -87.675; -638.000; -643.000
238.954;  -52.550; -483.000; -334.000
239.097;   80.275;  617.000;  664.000
239.241;   26.500;  394.000;  326.000
239.384;  -40.725; -254.000; -214.000
239.527;  -47.350; -424.000; -224.000
239.670; -155.150; -994.000;-1091.000
239.813; -116.100; -696.000; -658.000
239.956;   89.450;  579.000;  473.000
240.099; -104.900; -778.000; -725.000
240.242;   54.400;  428.000;  432.000
240.385;   54.300;  466.000;  450.000
240.528;  -86.675; -706.000; -473.000
240.671;   23.225;  189.000;  134.000
240.814;  -46.850; -441.000; -158.000
240.957;  -91.650; -767.000; -578.000
241.100; -106.175; -779.000; -755.000
241.243; -135.575;-1234.000; -893.000
241.386;  -75.400; -508.000; -379.000
241.529;  -97.825; -735.000; -547.000
241.672;  -73.350; -566.000; -495.000
241.815;  -96.800; -832.000; -808.000
241.958;  -24.450; -125.000; -182.000
242.101;  -84.425; -545.000; -390.000
242.244;  -38.125; -270.000; -325.000
242.387;  -42.850; -304.000; -246.000
242.530;   50.875;  470.000;  134.000
242.673;  -35.650; -381.000; -309.000
242.815; -131.250; -925.000; -899.000
242.958;  -72.400; -482.000; -381.000
243.101;   -6.650;  132.000;  187.000
243.244;  -80.875; -564.000; -521.000
243.387;  -49.700; -313.000; -316.000
243.530;  -95.875; -657.000; -674.000
243.672;    1.675;   43.000;  -92.000
243.815;  -51.650; -355.000; -283.000
243.958;   -0.550;   98.000;  -26.000
244.101;  -10.650;   59.000;  -16.000
244.243;   -8.600;  -47.000;  101.000
244.386; -120.000; -761.000; -630.000
244.529;  -20.300; -132.000; -139.000
244.672; -160.075;-1154.000; -951.000
244.814; -104.225; -621.000; -794.000
244.957;  -36.175; -380.000; -304.000
245.100;  -87.925; -489.000; -489.000
245.242;  -58.050; -387.000; -374.000
245.385;  -10.825;  -59.000;  -39.000
245.528; -124.475; -871.000; -705.000
245.670;   84.450;  612.000;  634.000
245.813;  -98.300; -599.000; -547.000
245.956;  -39.150; -324.000; -275.000
246.098;  -80.550; -508.000; -650.000
246.241;  -17.150;  194.000;   48.000
246.383;  -12.050; -119.000;  -73.000
246.526;  -85.650; -454.000; -525.000
246.669; -117.900; -889.000; -780.000
246.811;   12.650;  172.000;   -1.000
246.954;  -70.225; -512.000; -426.000
247.096;  -25.975;  -84.000;   -6.000
247.239;  -69.900; -482.000; -445.000
247.381;  -78.750; -647.000; -488.000
247.524;   83.875;  645.000;  679.000
247.666;  -15.550;   58.000;   11.000
247.809; -123.150; -887.000; -691.000
247.951;  -12.925;  -75.000;  138.000
248.094;   20.900;  432.000;  308.000
248.236; -163.000;-1262.000;-1238.000
248.378;   -4.650; -356.000;  -81.000
248.521;  -33.250; -334.000; -337.000
248.663;  -52.325; -236.000; -267.000
248.806;  -33.950; -300.000; -266.000
248.948; -103.750; -886.000; -763.000
249.090;  -52.575; -428.000; -398.000
249.233;  -51.025; -344.000; -381.000
249.375;  -70.650; -474.000; -451.000
249.518;   -9.925;  -83.000; -133.000
249.660;  -13.500; -103.000;    3.000
249.802; -174.425;-1303.000;-1189.000
249.945;  -82.650; -612.000; -540.000
250.087; -102.950; -834.000; -768.000
250.229;  -49.425; -362.000; -480.000
250.371;  -69.575; -494.000; -439.000
250.514;  -67.025; -310.000; -244.000
250.656;  -15.175;   69.000;  102.000
250.798; -124.750; -849.000; -800.000
250.940;  -79.475; -322.000; -322.000
251.083;  -40.800; -335.000; -111.000
251.225;   53.425;  338.000;  310.000
251.367;  -44.050; -274.000; -373.000
251.509;  -32.600; -265.000; -210.000
251.651; -110.600; -731.000; -671.000
251.794;   41.800;  538.000;  632.000
251.936; -127.200; -821.000; -747.000
252.078;  -83.475; -540.000; -461.000
252.220;  -84.900; -645.000; -477.000
252.362;   81.550;  344.000;  462.000
252.504;  -81.450; -677.000; -584.000
252.646; -120.875; -875.000; -722.000
252.788;   -8.275;   14.000; -128.000
252.931;  -55.050; -257.000; -253.000
253.073;  -47.275; -376.000; -317.000
253.215;   -6.525;  141.000;  122.000
253.357;  -11.450;   82.000; -153.000
253.499;  -53.300; -374.000; -234.000
253.641;  -93.575; -749.000; -594.000
253.783;  -83.975; -609.000; -527.000
253.925; -104.325; -586.000; -591.000
254.067; -106.825; -744.000; -667.000
254.209;  -26.625; -391.000; -259.000
254.351; -137.600; -865.000; -883.000
254.493;  -66.425; -441.000; -417.000
254.635; -117.425; -936.000; -818.000
254.777;  -95.675; -752.000; -687.000
254.918;  -58.375; -512.000; -430.000
255.060;  -68.500; -551.000; -395.000
255.202;  -63.750; -473.000; -261.000
255.344;  -82.250; -658.000; -455.000
255.486;  -77.725; -471.000; -406.000
255.628; -121.075; -780.000; -781.000
255.770;  -85.750; -676.000; -536.000
255.912;  -70.325; -559.000; -468.000
256.053;  -85.575; -730.000; -508.000
256.195;  155.850; 1008.000;  903.000
256.337;  -94.775; -861.000; -595.000
256.479;   64.750;  532.000;  416.000
256.621;  -47.050; -394.000; -212.000
256.762; -106.850; -789.000; -742.000
256.904;   42.200;  485.000;  487.000
257.046;  -38.775; -381.000; -271.000
257.188;  -48.575; -351.000; -264.000
257.329;  -86.350; -525.000; -464.000
257.471; -127.750; -939.000; -807.000
257.613;  -78.100; -584.000; -498.000
257.755; -145.475;-1073.000; -982.000
257.896;   28.375;  286.000;  392.000
258.038;  -73.875; -403.000; -352.000
258.180;  -51.525; -354.000; -279.000
258.321;  -83.250; -581.000; -457.000
258.463;  -12.375;  -71.000;  133.000
258.605;  -95.750; -562.000; -570.000
258.746; -120.875; -886.000; -772.000
258.888; -150.925;-1026.000;-1020.000
259.029;   22.900;  121.000;   -8.000
259.171;  -96.425; -614.000; -550.000
259.313;  -11.950;  -49.000;  -47.000
259.454;  -76.225; -536.000; -414.000
259.596;  -70.925; -483.000; -390.000
259.737;  -80.225; -590.000; -474.000
259.879;   28.325;  217.000;  311.000
260.020;   79.575;  901.000;  636.000
260.162;  -29.025; -146.000; -253.000
260.303; -116.800; -768.000; -687.000
260.445;  -93.700; -609.000; -613.000
260.586;   28.450;  392.000;  157.000
260.728;  -33.025; -360.000; -248.000
260.869; -107.450; -350.000; -343.000
261.011;   72.125;  706.000;  537.000
261.152;  -66.450; -479.000; -319.000
261.293;  -89.800; -576.000; -595.000
261.435;  -28.800; -219.000; -184.000
261.576;  -62.100; -455.000; -325.000
261.718;   61.800;  420.000;  470.000
261.859; -132.125; -940.000; -949.000
262.000; -136.825; -951.000;-1016.000
262.142;  -24.350;  -52.000;  -60.000
262.283; -122.725; -808.000; -691.000
262.424;  -87.525; -666.000; -625.000
262.566; -159.650;-1161.000; -983.000
262.707; -124.600; -840.000; -830.000
262.848; -123.650; -769.000; -726.000
262.990;  -51.400; -362.000; -345.000
263.131;   71.125;  650.000;  681.000
263.272;   -9.150;  -61.000;  -41.000
263.413;  -95.900; -589.000; -561.000
263.555;  -74.675; -669.000; -143.000
263.696;  -84.600; -550.000; -641.000
263.837;  -71.275; -449.000; -551.000
263.978;  -10.575;   -5.000;  -77.000
264.119;  -59.175; -283.000; -264.000
264.261; -117.400; -847.000; -630.000
264.402;  -26.500;   33.000;   40.000
264.543;  -71.200; -509.000; -524.000
264.684;  -20.500;   61.000;  -50.000
264.825;  -73.125; -816.000; -538.000
264.966;   -1.775;  -84.000;  -67.000
265.107; -125.300; -646.000; -670.000
265.248; -129.250; -825.000; -812.000
265.390;   -5.725;  152.000;   -9.000
265.531;  -37.800; -238.000; -107.000
265.672;  -88.475; -557.000; -630.000
265.813;   64.425;  563.000;  439.000
265.954; -147.900; -959.000; -940.000
266.095;  -23.300; -372.000; -322.000
266.236;  -99.350; -686.000; -548.000
266.377;  -41.650; -243.000; -297.000
266.518;  -82.925; -619.000; -547.000
266.659;   29.200;  170.000;  268.000
266.800;    8.075;   83.000;   85.000
266.941;  -91.575; -487.000; -478.000
267.082;   14.975;  354.000;   99.000
267.223;  -66.625; -344.000; -273.000
267.364; -115.200; -892.000; -686.000
267.504;  -22.975;    3.000;  135.000
267.645;  -11.200;  160.000;   67.000
267.786;  -39.050; -147.000;  -86.000
267.927;  -64.250; -473.000; -379.000
268.068;  -17.075; -186.000;  -61.000
268.209;  -51.475; -175.000; -413.000
268.350;  -55.725; -388.000; -532.000
268.490;  -95.425; -648.000; -521.000
268.631;   32.100;  127.000;  225.000
268.772; -112.400; -874.000; -647.000
268.913;  -63.550; -328.000; -476.000
269.054;  -24.525; -117.000;   12.000
269.194;  -50.925; -418.000; -402.000
269.335; -153.750;-1137.000;-1074.000
269.476;  -26.550;   33.000;  -35.000
269.617;  -37.750; -347.000; -392.000
269.757; -101.100; -713.000; -646.000
269.898; -101.500; -856.000; -613.000
270.039;  -72.600; -415.000; -405.000
270.180; -133.700; -952.000; -816.000
270.320;  -39.900; -190.000; -250.000
270.461;  -34.450; -277.000; -249.000
270.602;  -22.650; -186.000; -156.000
270.742; -126.450; -868.000; -943.000
270.883;  -82.200; -442.000; -390.000
271.023;  -58.600; -358.000; -357.000
271.164;  -92.075; -607.000; -528.000
271.305; -102.350; -666.000; -654.000
271.445; -104.625; -722.000; -683.000
271.586;  -57.925; -462.000; -283.000
271.726;  -55.375; -397.000; -322.000
271.867;  -68.900; -594.000; -534.000
272.008;  145.125; -473.000; -285.000
272.148;  118.300;  462.000;  468.000
272.289;    7.625; -113.000; -181.000
272.429;   15.425;   19.000;  185.000
272.570; -103.225; -633.000; -737.000
272.710;  -99.700; -825.000; -775.000
272.851;  -42.300;  113.000; -130.000
272.991; -171.225;-1173.000;-1077.000
273.131;  -65.900; -419.000; -459.000
273.272; -113.425; -683.000; -723.000
273.412;    7.800; -143.000;  -31.000
273.553;  -60.325; -488.000; -507.000
273.693;  117.300;  913.000;  858.000
273.834;  -97.075; -894.000; -692.000
273.974;  -80.350; -664.000; -615.000
274.114; -107.125; -772.000; -560.000
274.255;   60.975;  414.000;  373.000
274.395;    4.425; -180.000; -125.000
274.535;   17.625;  199.000;  350.000
274.676;   33.875;  225.000;   94.000
274.816;    0.325;  110.000;   34.000
274.956;  -79.550; -624.000; -690.000
275.097;  -96.400;-1014.000; -922.000
275.237; -115.900; -913.000; -803.000
275.377; -101.925; -778.000; -689.000
275.517; -139.525; -878.000; -937.000
275.658;  -67.275; -590.000; -555.000
275.798;  -72.800; -606.000; -413.000
275.938;   10.775;  215.000;  323.000
276.078;  -82.625; -626.000; -395.000
276.218;   -4.400;   99.000;  104.000
276.359; -143.550;-1026.000;-1024.000
276.499;  -84.925; -605.000; -446.000
276.639;  -27.800; -305.000; -151.000
276.779;  -60.075; -475.000; -357.000
276.919; -106.500; -783.000; -624.000
277.059;  -25.825; -261.000; -212.000
277.199;  -40.100; -357.000; -259.000
277.340;   42.000;  287.000;  175.000
277.480; -113.650; -840.000; -693.000
277.620;   10.750;  192.000;   16.000
277.760; -205.275;-1533.000;-1294.000
277.900;    6.100;  113.000;   33.000
278.040;   11.600;  137.000;  159.000
278.180;   23.775;  270.000;  170.000
278.320;   -3.750;   21.000;   56.000
278.460;  -84.125; -443.000; -469.000
278.600;  -85.900; -708.000; -598.000
278.740;   51.925;  448.000;  224.000
278.880;  -62.800; -768.000; -791.000
279.020;   -6.850; -194.000; -144.000
279.160; -103.825; -672.000; -595.000
279.300; -128.600; -926.000; -873.000
279.440; -101.000; -709.000; -622.000
279.579;  -45.400;-1014.000; -929.000
279.719;  -51.175; -410.000; -394.000
279.859;   56.725;   -4.000;   41.000
279.999;   29.350; -208.000;  101.000
280.139;  -37.175; -435.000; -387.000
280.279;  -82.300; -708.000; -745.000
280.419;  -18.100; -229.000; -147.000
280.559;  -29.450; -259.000; -180.000
280.698;  -95.900; -790.000; -639.000
280.838;  -97.850; -778.000; -800.000
280.978; -119.150; -846.000; -790.000
281.118; -115.375; -811.000; -704.000
281.257;    5.350;   24.000;    6.000
281.397; -122.425;-1094.000; -960.000
281.537;  -99.975; -599.000; -712.000
281.677;  -25.450; -150.000; -101.000
281.816; -109.275; -700.000; -630.000
281.956;  -28.250; -193.000; -257.000
282.096;  -82.450; -539.000; -396.000
282.235; -112.475; -672.000; -638.000
282.375;  -37.300; -243.000;  -98.000
282.515; -102.625; -715.000; -707.000
282.654;   23.275;   29.000;  106.000
282.794;   16.800;  388.000;  244.000
282.934;  -66.975; -530.000; -491.000
283.073; -135.375;-1030.000; -857.000
283.213;  -74.600; -460.000; -467.000
283.353;  -34.250; -408.000; -349.000
283.492;  -42.550; -264.000; -296.000
283.632;  -39.850; -254.000; -168.000
283.771; -108.250; -859.000; -730.000
283.911;  -54.725; -369.000; -260.000
284.050; -113.400; -794.000; -748.000
284.190; -173.800;-1229.000;-1096.000
284.329; -137.500;-1055.000; -964.000
284.469;  -72.050; -516.000; -591.000
284.608;  -73.400; -559.000; -598.000
284.748;  -85.125; -614.000; -570.000
284.887;  -14.250;  -87.000;  -20.000
285.027; -118.950; -844.000; -892.000
285.166;  -51.950; -192.000; -249.000
285.306;   -7.275; -116.000;  -33.000
285.445;  -59.450; -229.000; -343.000
285.584; -100.350; -630.000; -494.000
285.724;  -49.150; -282.000; -322.000
285.863; -121.375; -857.000; -507.000
286.002;  -60.900; -366.000; -276.000
286.142; -105.925; -715.000; -622.000
286.281;  -91.150; -525.000; -493.000
286.420;  -75.900; -554.000; -417.000
286.560;   95.675;  653.000;  623.000
286.699; -146.725; -958.000; -912.000
286.838;  -91.200; -590.000; -591.000
286.978;  -91.900; -533.000; -537.000
287.117; -145.300;-1085.000; -950.000
287.256;  -28.375; -228.000; -211.000
287.395;  -57.825; -197.000; -378.000
287.535;  -56.775; -370.000; -298.000
287.674;  -81.500; -509.000; -484.000
287.813;   52.950;  661.000;  533.000
287.952; -144.750;-1010.000; -871.000
288.091; -151.675;-1049.000; -915.000
288.231;   -3.075;   13.000;   15.000
288.370; -179.400;-1217.000;-1200.000
288.509;  -94.900; -728.000; -645.000
288.648;  -84.175; -770.000; -548.000
288.787;  -35.225; -243.000;  -87.000
288.926;  -67.350; -454.000; -475.000
289.065;  109.300;  859.000;  672.000
289.204;  -47.700; -377.000; -217.000
289.344; -104.025; -791.000; -690.000
289.483;   17.925;  416.000;  304.000
289.622;  -41.650; -291.000; -149.000
289.761;  -19.250; -309.000; -166.000
289.900; -118.300; -785.000; -626.000
290.039;  -21.750;  -12.000;  -95.000
290.178;  -43.475; -274.000; -180.000
290.317;  -81.650; -618.000; -479.000
290.456;  -62.075; -463.000; -451.000
290.595; -149.250; -961.000; -833.000
290.734; -142.825; -904.000; -891.000
290.873;  -66.600; -456.000; -420.000
291.011; -132.675; -833.000; -843.000
291.150; -108.650; -770.000; -682.000
291.289;  -43.025; -343.000; -110.000
291.428;  -90.675; -599.000; -480.000
291.567;  -59.075; -370.000; -442.000
291.706;  -15.075;  109.000;  154.000
291.845;  -88.075; -597.000; -505.000
291.984; -176.375;-1234.000;-1061.000
292.122;   60.975;  602.000;  582.000
292.261;   52.450;  620.000;  463.000
292.400;    7.425; -144.000;  211.000
292.539; -114.050; -959.000; -813.000
292.678;  -37.250; -325.000; -300.000
292.816; -161.850;-1136.000; -965.000
292.955;  -93.875; -844.000; -684.000
293.094;  -26.825; -173.000; -337.000
293.233;  -58.275; -556.000; -400.000
293.371;  -26.975; -225.000;  -84.000
293.510; -104.725; -866.000; -780.000
293.649; -135.800; -959.000; -924.000
293.787;  -73.275;-1083.000;-1012.000
293.926;   -4.050; -113.000;  -32.000
294.065;  -58.175; -379.000; -290.000
294.203;   51.150;  298.000;  406.000
294.342;   17.625;   74.000;  156.000
294.481; 6386.675;51180.000; -836.000
294.619;  -38.975; -425.000; -582.000
294.758; -148.875;-1230.000;-1137.000
294.896;   54.500; -125.000;    5.000
295.035; -130.375;-1040.000;-1006.000
295.174; -132.050;-1082.000; -954.000
295.312;  -33.300; -323.000; -203.000
295.451;  -27.600; -307.000; -428.000
295.589;  -61.650; -389.000; -518.000
295.728;    6.000; -292.000; -165.000
295.866;   -0.500;  -36.000;  -51.000
296.005;  -67.175; -584.000; -341.000
296.143;  -66.650; -558.000; -596.000
296.282; -114.575; -957.000; -881.000
296.420;  -95.025; -657.000; -557.000
296.559;  -94.600; -892.000; -633.000
296.697;    3.700; -847.000; -665.000
296.835;   15.350;-1141.000;-1002.000
296.974;   30.300;  -23.000;   39.000
297.112;  -14.075; -443.000; -504.000
297.251;  -85.400; -815.000; -755.000
297.389;   61.675; -576.000; -438.000
297.527;   26.675; -145.000;  -83.000
297.666;  -73.925; -486.000; -438.000
297.804;  -70.925; -404.000; -264.000
297.942;    4.525; -136.000; -161.000
298.081;   -7.225; -183.000;   63.000
298.219;   38.225;  -17.000;  -19.000
298.357;   45.875; -144.000;  -71.000
298.495;   -3.325; -810.000; -812.000
298.634;   54.925;  245.000;  219.000
298.772;   24.600; -220.000; -338.000
298.910;  -46.575; -309.000; -182.000
299.048;  -15.575; -130.000; -153.000
299.187;  -27.975; -350.000; -250.000
299.325;   12.225;   52.000;  122.000
299.463;   15.525; -389.000; -299.000
299.601;   89.500; -327.000; -271.000
299.739; -111.200; -908.000; -883.000
299.877; -102.075; -791.000; -703.000
300.016;  -57.425;-1095.000; -935.000
300.154;  138.775;  -19.000; -161.000
300.292;   29.575; -428.000; -348.000
300.430;    3.675; -408.000; -291.000
300.568; -122.025; -940.000; -874.000
300.706;  -54.975; -366.000; -469.000
300.844;  -95.125;-1108.000; -979.000
300.982;  108.800;  246.000;  282.000
301.120; -115.275; -965.000; -866.000
301.258;  -84.500; -812.000; -705.000
301.396;   32.975;  104.000;  -41.000
301.534;   56.850; -218.000; -293.000
301.672;  -30.625; -664.000; -521.000
301.810;   -0.825; -613.000; -545.000
301.948;   81.475;   53.000;  149.000
302.086;  501.250; -250.000;  -32.000
302.224;  759.550; -610.000; -585.000
302.362;   -7.000; -558.000; -622.000
302.500;  -44.125; -923.000; -893.000
302.638;   80.125;  128.000;  245.000
302.776;    1.800; -352.000; -408.000
302.913;   38.650;  447.000;  236.000
303.051;   -9.550;  -86.000;  -23.000
303.189;   37.825;   90.000;  118.000
303.327;  -52.075; -341.000; -256.000
303.465;  -94.750; -832.000; -588.000
303.603;  -95.375; -805.000; -604.000
303.740;   82.850;  417.000;  241.000
303.878;   -1.025; -800.000; -759.000
304.016; -104.775; -915.000; -790.000
304.154; -141.175;-1123.000;-1152.000
304.291;  -53.775; -505.000; -554.000
304.429;    1.650;  102.000;   74.000
304.567; -130.725; -908.000; -893.000
304.705;  -58.300; -408.000; -515.000
304.842;   51.400; -616.000; -540.000
304.980;   48.650;  215.000;   35.000
305.118;    8.625; -367.000; -365.000
305.255;  -87.150; -945.000; -927.000
305.393;   56.625;  178.000;  239.000
305.531; -134.550;-1173.000; -956.000
305.668;  -93.275; -663.000; -582.000
305.806;   65.875; -358.000; -439.000
305.943;   66.525; -629.000; -637.000
306.081;   43.850; -378.000; -267.000
306.219; -119.625; -863.000; -748.000
306.356;   -0.850;  158.000;   27.000
306.494;  117.900;  981.000;  761.000
306.631;   -3.825;  -11.000;  -55.000
306.769;  -22.425; -613.000; -485.000
306.906;  -17.550; -284.000; -258.000
307.044;  -70.000; -473.000; -488.000
307.181;  -61.850; -410.000; -332.000
307.319;   -0.500;  112.000;   87.000
307.456; -174.300;-1191.000;-1153.000
307.594; -118.450; -980.000; -727.000
307.731;    0.350; -371.000; -164.000
307.868;    0.350;  -15.000;   20.000
308.006; -134.650; -961.000; -847.000
308.143;  -87.075; -618.000; -330.000
308.281;   85.325;  -37.000; -254.000
308.418;  -45.925; -748.000; -640.000
308.555;  -67.350; -400.000; -250.000
308.693;  -82.575; -577.000; -573.000
308.830; -100.925; -712.000; -657.000
308.967;  -10.925; -215.000;  -95.000
309.105;  -48.650; -507.000; -396.000
309.242;    2.200; -468.000; -367.000
309.379;  162.600; -577.000; -655.000
309.517;  -94.650; -936.000; -948.000
309.654; -100.725; -910.000; -734.000
309.791;  -88.525; -662.000; -580.000
309.928; -115.575; -977.000; -914.000
310.065;  170.825;  819.000;  697.000
310.203;  -17.450; -825.000; -850.000
310.340;  -27.200; -465.000; -321.000
310.477;  -79.025; -412.000; -516.000
310.614;  -75.700; -383.000; -473.000
310.751;  -80.425; -427.000; -518.000
310.889;  -28.550;    1.000;   11.000
311.026; -138.575;-1161.000; -939.000
311.163;  -64.075; -386.000; -380.000
311.300;  -73.350; -512.000; -479.000
311.437;  -83.375; -658.000; -619.000
311.574; -158.050;-1226.000; -985.000
311.711;  -79.400; -595.000; -433.000
311.848;  -48.475; -380.000; -388.000
311.985;    8.575;  270.000;   93.000
312.122; -131.350; -932.000; -762.000
312.259; -123.275; -941.000; -994.000
312.396;  -77.650; -508.000; -551.000
312.533;  -86.350; -812.000; -790.000
312.670; -142.900;-1070.000; -898.000
312.807;  -32.475; -352.000; -367.000
312.944;  -70.600; -513.000; -611.000
313.081;  -39.700; -150.000; -415.000
313.218; -117.650;-1111.000; -867.000
313.355;   -6.775; -531.000; -449.000
313.492;   -7.425; -455.000; -292.000
313.629;  131.800;  815.000;  735.000
313.766; -162.300;-1176.000;-1008.000
313.902;  -26.575; -186.000;   21.000
314.039;  -52.000; -372.000; -289.000
314.176;   23.800;  286.000;  192.000
314.313;  -83.175; -569.000; -473.000
314.450;  -82.600; -788.000; -684.000
314.587;  -67.050; -468.000; -480.000
314.723;    5.750;  -78.000;  130.000
314.860;   37.975;  318.000;  332.000
314.997;   32.625;  223.000;  142.000
315.134;  -37.125; -385.000; -368.000
315.270;  -39.250; -480.000; -496.000
315.407; -132.300;-1094.000; -967.000
315.544;  -57.550; -657.000; -538.000
315.681;  -71.550; -681.000; -565.000
315.817;   30.275; -133.000; -176.000
315.954;   24.375; -613.000; -392.000
316.091; -146.050;-1045.000;-1023.000
316.227;  -12.250;  -71.000; -179.000
316.364;  -10.575;   23.000;    6.000
316.500;  -43.300; -113.000; -300.000
316.637;  -38.950; -181.000; -302.000
316.774;  -87.500; -625.000; -358.000
316.910; -105.350; -598.000; -629.000
317.047;  -75.825; -487.000; -351.000
317.183;  -59.050; -435.000; -566.000
317.320;  -15.925; -367.000; -321.000
317.456;  -61.750; -733.000; -805.000
317.593;  -98.875; -598.000; -641.000
317.729;   -1.175;  168.000;  -67.000
317.866; -202.250;-1434.000;-1285.000
318.002; -106.925; -708.000; -948.000
318.139; -115.250; -883.000; -867.000
318.275; -125.975;-1003.000; -738.000
318.412;  -70.250; -517.000; -336.000
318.548;  -38.075; -751.000; -720.000
318.685; -113.625; -985.000; -888.000
318.821; -103.675; -762.000; -735.000
318.957;  -19.700;   34.000;  -23.000
319.094;   44.500;  297.000;  154.000
319.230;  -69.300; -756.000; -742.000
319.367;   86.600; -471.000; -520.000
319.503;   38.675; -538.000; -436.000
319.639; -115.600; -877.000; -793.000
319.775;  -73.200; -750.000; -685.000
319.912;  -54.750; -424.000; -519.000
320.048; -105.450;-1184.000;-1184.000
320.184;   57.400;   59.000;   70.000
320.321;  -61.000; -497.000; -467.000
320.457;   57.625;  475.000;  662.000
320.593;  -70.400; -375.000; -382.000
320.729; -125.900; -732.000; -734.000
320.866;  -84.075; -577.000; -635.000
321.002;  -91.900; -759.000; -809.000
321.138;  -24.100; -135.000; -211.000
321.274;   59.825; -148.000; -115.000
321.410;  -25.900; -585.000; -353.000
321.546;  -60.925;-1011.000; -911.000
321.683;   40.975;  400.000;  185.000
321.819;  -13.025;  -48.000; -117.000
321.955; -125.500; -743.000; -722.000
322.091;  -65.575; -585.000; -540.000
322.227;  -18.250; -382.000; -202.000
322.363;  -35.550; -320.000; -215.000
322.499;  -43.000; -343.000; -331.000
322.635;  132.100;  636.000;  443.000
322.771;   21.475; -139.000;   12.000
322.907;   75.775;  129.000;  327.000
323.043;  -18.425; -115.000; -206.000
323.179;  -33.500; -394.000; -363.000
323.315;   12.575; -401.000; -371.000
323.451;   72.175; -328.000; -236.000
323.587;   58.975;  -60.000;  -77.000
323.723;   -0.900; -682.000; -601.000
323.859;  -28.025; -258.000;  -76.000
323.995;  -47.250; -467.000; -409.000
324.131; -122.975; -967.000; -892.000
324.267;  -45.100; -254.000; -276.000
324.402; -127.575; -960.000; -983.000
324.538;  -28.275; -279.000; -104.000
324.674;   25.575;  164.000;   77.000
324.810;   94.625;  226.000;  308.000
324.946;  -18.950; -810.000; -658.000
325.082;  -86.700; -568.000; -475.000
325.217;  -19.700;  -62.000;   16.000
325.353; -113.150; -764.000; -659.000
325.489;  -90.850; -540.000; -506.000
325.625;  -84.900; -579.000; -525.000
325.760;   53.800;  517.000;  376.000
325.896;  -19.425; -515.000; -702.000
326.032;  -61.600; -403.000; -352.000
326.168;  -69.525; -462.000; -369.000
326.303;  -61.225; -352.000; -461.000
326.439;  -32.800; -336.000; -276.000
326.575;   -1.700; -190.000;  -29.000
326.710;   -5.475; -156.000;  -30.000
326.846;   -7.125;  146.000;  103.000
326.982;  -98.725; -530.000; -548.000
327.117;  -74.100; -481.000; -442.000
327.253;  -98.675; -745.000; -742.000
327.388; -145.750;-1137.000;-1153.000
327.524;  -68.300; -811.000; -578.000
327.659;  -38.750;  -58.000;  -22.000
327.795;   -6.650;   69.000;   45.000
327.931;  -92.050; -723.000; -499.000
328.066;  -27.575; -417.000; -276.000
328.202;  -13.400;   12.000; -129.000
328.337;   92.450;  957.000;  713.000
328.473;   39.675;  -12.000;  -74.000
328.608;  -28.450; -256.000; -267.000
328.743;  -95.575; -799.000; -664.000
328.879;    0.175;  214.000;  114.000
329.014;  -29.375; -102.000; -122.000
329.150; -104.325; -358.000; -483.000
329.285;  -83.225; -465.000; -466.000
329.421;  -73.900; -548.000; -246.000
329.556;  -11.850;  -36.000;   85.000
329.691; -115.200; -633.000; -615.000
329.827;  -73.550; -626.000; -480.000
329.962;  -43.525;  131.000; -301.000
330.097;  -85.600; -673.000; -585.000
330.233;  -46.600; -410.000; -223.000
330.368; -127.600; -839.000; -628.000
330.503;  -27.750;    3.000;   98.000
330.638;    4.200;  -93.000; -125.000
330.774;  -66.150; -609.000; -530.000
330.909;  -37.675; -434.000; -244.000
331.044;  -99.725; -714.000; -708.000
331.179; -176.975;-1217.000;-1109.000
331.315;   15.950;   77.000;   20.000
331.450;   11.425;  157.000;  285.000
331.585;  -98.250; -805.000; -706.000
331.720;  -93.600; -510.000; -460.000
331.855;  -12.700;  -35.000; -102.000
331.990;  261.300;   62.000;  138.000
332.126;  133.150; -110.000;   71.000
332.261;  -23.675; -379.000; -265.000
332.396;    2.175; -135.000; -242.000
332.531;  -95.950;-1074.000;-1031.000
332.666;   28.025; -519.000; -363.000
332.801; -100.575; -726.000; -807.000
332.936;  -38.825; -192.000; -122.000
333.071; -158.275; -870.000; -817.000
333.206;   14.850;  307.000;  379.000
333.341;   32.400;  344.000;  418.000
333.476;  -88.200; -627.000; -623.000
333.611;  -36.425; -251.000; -173.000
333.746;  -52.350; -381.000; -464.000
333.881; -114.750; -973.000; -935.000
334.016; -138.825; -936.000; -917.000
334.151; -134.650; -746.000; -702.000
334.286;   18.425;  152.000;  186.000
334.421;  -28.975; -125.000; -178.000
334.556;  -87.475; -611.000; -567.000
334.690; -100.775; -631.000; -577.000
334.825;   55.125;  381.000;   83.000
334.960;  -46.075; -285.000; -413.000
335.095;    7.200;  135.000;  -91.000
335.230;  -88.550; -722.000; -738.000
335.365; -144.875;-1084.000; -990.000
335.499; -132.575;-1108.000;-1037.000
335.634;   31.250;    9.000;  534.000
335.769;  -99.825; -755.000; -720.000
335.904;  -50.225; -603.000; -561.000
336.038;  -50.575; -735.000; -657.000
336.173; -122.225;-1206.000;-1194.000
336.308;   13.000; -116.000; -189.000
336.443;   31.225; -544.000; -634.000
336.577;  -60.000; -936.000; -787.000
336.712;   72.500;   -4.000;  -12.000
336.847;  -26.075; -724.000; -607.000
336.981;   69.250; -272.000; -208.000
337.116;  295.975;  615.000;  501.000
337.250;  144.625; -434.000; -421.000
337.385;  272.525; -297.000; -208.000
337.520;   97.375; -632.000; -603.000
337.654;  -53.375; -215.000; -126.000
337.789; -147.000; -989.000; -933.000
337.923;  -21.975; -104.000; -205.000
338.058; -101.025; -673.000; -738.000
338.192;  -41.750; -611.000; -488.000
338.327;  -16.950;  -18.000; -155.000
338.461;  -73.000; -299.000; -469.000
338.596; -104.650; -780.000; -638.000
338.730; -102.975; -767.000; -803.000
338.865;   91.000;  -46.000; -140.000
338.999;  -51.850; -846.000; -702.000
339.134;  -30.550; -634.000; -536.000
339.268;    3.000; -741.000; -603.000
339.403;  372.100; -740.000; -775.000
339.537;  115.000; -894.000; -820.000
339.671; -118.050; -829.000; -813.000
339.806;  -69.675; -556.000; -512.000
339.940;   22.200; -261.000; -235.000
340.074; -100.800; -685.000; -510.000
340.209;  -56.900; -351.000; -230.000
340.343;  -87.900; -517.000; -573.000
340.477;  143.150;  998.000; 1036.000
340.612;  -58.225;-1033.000; -900.000
340.746;  120.975; -199.000; -243.000
340.880;  -77.975; -924.000; -785.000
341.014;  -29.350;  -45.000; -154.000
341.149; -121.925; -756.000; -718.000
341.283; -121.275; -839.000; -754.000
341.417; -104.100;-1124.000; -938.000
341.551;   92.650; -768.000; -708.000
341.685;  -42.800; -633.000; -611.000
341.820;  -67.800; -562.000; -493.000
341.954;  -58.125; -218.000; -349.000
342.088; -167.825;-1102.000;-1019.000
342.222;   56.475;  565.000;  618.000
342.356;  -74.400; -395.000; -335.000
342.490;  -91.425; -880.000; -841.000
342.624;  -55.800; -339.000; -242.000
342.758;  -23.700; -364.000; -312.000
342.892;  -85.500; -710.000; -585.000
343.026;  -51.825;  -58.000; -116.000
343.160;  -72.825; -426.000; -376.000
343.294;  -78.325; -474.000; -337.000
343.428;  -44.200; -488.000; -448.000
343.562;  -15.700; -172.000;  -23.000
343.696;  -36.075; -385.000; -314.000
343.830;  -16.400; -362.000; -356.000
343.964;  -14.325; -231.000; -168.000
344.098;  767.925;  199.000;   70.000
344.232;  651.400; -266.000; -127.000
344.366;   60.325; -567.000; -453.000
344.500;   18.825; -665.000; -744.000
344.634;   36.450; -324.000; -164.000
344.768;  -21.800; -531.000; -341.000
344.902;   23.450;  278.000;  256.000
345.035;  -81.725; -556.000; -496.000
345.169; -148.750; -933.000; -656.000
345.303;  -45.925; -308.000; -482.000
345.437;  -67.025; -826.000; -717.000
345.571;  -82.625; -675.000; -594.000
345.704;  -66.125; -309.000; -532.000
345.838;  -26.625; -331.000; -284.000
345.972;  -43.650; -543.000; -495.000
346.106;  158.925; -179.000; -190.000
346.239;  400.650; -312.000; -243.000
346.373;   -3.425; -343.000; -302.000
346.507; -145.250; -950.000; -962.000
346.640;  124.800;  -30.000;   13.000
346.774;  -71.475; -650.000; -797.000
346.908;  -18.925; -138.000;  -11.000
347.041; -125.425; -646.000; -593.000
347.175;   -4.800;  259.000;   27.000
347.309;  -82.175; -698.000; -628.000
347.442; -111.500; -883.000; -732.000
347.576;  247.275;  670.000;  668.000
347.709;  147.625; -123.000;  -52.000
347.843; -101.250; -933.000; -825.000
347.976;   21.975;  235.000;  294.000
348.110; -191.425;-1268.000;-1186.000
348.243; -118.125; -679.000; -772.000
348.377;   -2.925;  -26.000;   60.000
348.510;   47.175;  403.000;  540.000
348.644;  -29.675;  -37.000; -159.000
348.777;   -4.250;  180.000;  191.000
348.911;  -33.450; -142.000; -112.000
349.044;  147.300;  471.000;  448.000
349.178;  113.050;-1069.000;-1006.000
349.311;  108.625;  141.000;  255.000
349.444;   -7.000; -927.000; -813.000
349.578;  -27.000; -347.000; -200.000
349.711; -108.675; -959.000; -862.000
349.845;  -41.025; -661.000; -591.000
349.978; -153.850;-1224.000;-1137.000
350.111; -103.975; -546.000; -612.000
350.244;  -99.975; -596.000; -700.000
350.378;  -23.025; -392.000; -393.000
350.511;  -69.800; -393.000; -426.000
350.644; -116.050; -808.000; -806.000
350.778;   16.675;  168.000;  104.000
350.911;   -3.450;  134.000;  140.000
351.044;  -94.575; -685.000; -615.000
351.177;  -45.725; -321.000; -281.000
351.310;  -22.025;    3.000; -131.000
351.444;  -92.800; -888.000; -788.000
351.577;   99.725;  140.000;   90.000
351.710;   87.575;  593.000;  417.000
351.843;  -35.000; -165.000;  -77.000
351.976;    5.525;  149.000;  -79.000
352.109;  -86.125; -621.000; -612.000
352.242;  -40.975; -464.000; -419.000
352.376;  -51.525; -580.000; -636.000
352.509;  125.800; -437.000; -356.000
352.642;  -13.675; -654.000; -604.000
352.775;   37.325; -141.000;  -98.000
352.908; -126.675; -933.000; -904.000
353.041; -113.650; -814.000; -824.000
353.174;  -63.525; -551.000; -424.000
353.307;  -93.275; -753.000; -764.000
353.440;   76.450;  541.000;  453.000
353.573; -104.325; -957.000;-1008.000
353.706;  -28.275; -384.000; -558.000
353.839;  -27.150; -264.000; -220.000
353.971;  -92.650; -657.000; -512.000
354.104;  -97.800; -896.000; -835.000
354.237;  -48.950; -627.000; -662.000
354.370;  -95.225; -846.000; -879.000
354.503; -192.025;-1231.000;-1308.000
354.636;  -41.850; -529.000; -348.000
354.769; -125.275; -937.000; -860.000
354.902;  -20.200; -230.000; -139.000
355.034;  -19.425; -164.000; -220.000
355.167;  -28.275; -262.000; -162.000
355.300;  -75.925;-1061.000; -880.000
355.433; 1003.275;  -71.000;  -14.000
355.565; 1538.675; -402.000; -384.000
355.698;  398.800; -356.000; -296.000
355.831;  -17.050; -882.000; -801.000
355.964;   61.625; -285.000; -170.000
356.096;  -90.975; -856.000; -843.000
356.229;   -5.300; -523.000; -530.000
356.362;  341.775; -373.000; -266.000
356.494;  631.250; -229.000; -162.000
356.627;  443.075;  269.000;  377.000
356.760;  677.950;  120.000;   53.000
356.892; 1003.500; -286.000; -601.000
357.025;  566.475;  403.000;  389.000
357.157;  498.775; -167.000; -179.000
357.290;  736.725; -856.000; -713.000
357.423;  235.500; -667.000; -556.000
357.555;  108.750; -217.000; -228.000
357.688;  141.875; -483.000; -364.000
357.820;  366.825; -870.000; -877.000
357.953; 3223.400; -563.000; -589.000
358.085;  657.500; -632.000; -612.000
358.218;  874.400;-1131.000; -932.000
358.350;  150.000;  -58.000;  312.000
358.483; -129.975;-1300.000;-1187.000
358.615;  -60.925;-1182.000;-1078.000
358.747;  -82.450;-1187.000;-1058.000
358.880;   -8.650; -810.000; -744.000
359.012;  -11.200; -376.000; -202.000
359.145;  -54.750; -480.000; -511.000
359.277;   37.825; -962.000; -913.000
359.409; 2648.325;  536.000;  231.000
359.542;  650.450; -738.000; -688.000
359.674;   48.725;   46.000;   13.000
359.806;  -68.675; -565.000; -438.000
359.939;  -47.550; -617.000; -516.000
360.071;  -19.850; -583.000; -579.000
360.203;  -38.275; -411.000; -364.000
360.335;   44.750;  164.000;  -16.000
360.468;  166.475; -249.000; -307.000
360.600; 2161.925; -547.000; -454.000
360.732; 2903.875; -546.000; -423.000
360.864;  380.275;-1216.000;-1044.000
360.996;  211.725; -516.000; -554.000
361.129;   22.400; -389.000; -598.000
361.261;   14.250;  110.000; -113.000
361.393;  -30.050; -252.000; -214.000
361.525;    1.725;   94.000;  244.000
361.657;  -67.825; -821.000; -703.000
361.789;    0.825; -139.000; -155.000
361.921;  151.900; -642.000; -593.000
362.053;  203.950;  524.000;  541.000
362.185;   40.950;  288.000;   72.000
362.318;  -93.925; -709.000; -705.000
362.450;  100.625;  294.000;  444.000
362.582;   42.950; -913.000; -870.000
362.714;  -40.025; -353.000; -332.000
362.846; -102.250; -606.000; -490.000
362.978; -157.850; -941.000; -811.000
363.109;   20.200; -161.000; -260.000
363.241;  355.725; -739.000; -749.000
363.373;  428.775; -649.000; -564.000
363.505;  694.625; -186.000;  -91.000
363.637;  146.725; -787.000; -601.000
363.769; -121.725;-1067.000;-1080.000
363.901;  -84.300; -596.000; -654.000
364.033; -141.100;-1103.000;-1062.000
364.165;  -21.825; -283.000; -283.000
364.296;   75.100; -316.000; -177.000
364.428;   65.625;-1344.000;-1220.000
364.560;  -78.700; -679.000; -661.000
364.692;  -84.025; -738.000; -835.000
364.824;  190.900; -588.000; -456.000
364.955;  412.975; -402.000; -564.000
365.087;  992.300;-1097.000; -852.000
365.219;   11.125; -686.000; -816.000
365.351;  -77.750; -526.000; -572.000
365.482;   35.950;  300.000;  240.000
365.614;  -49.675; -402.000; -314.000
365.746; -119.825; -729.000; -752.000
365.877;  -92.075; -706.000; -672.000
366.009;  262.625;  -35.000;  -62.000
366.141; -102.500;-1249.000;-1134.000
366.272; -107.725; -803.000; -719.000
366.404; -127.350;-1005.000; -874.000
366.535;  -21.300; -139.000;  -12.000
366.667; -116.325; -644.000; -649.000
366.799;   27.425;  353.000;  203.000
366.930; -132.200; -862.000; -996.000
367.062;  124.450; -639.000; -613.000
367.193;  155.325; -872.000; -842.000
367.325;  -65.225; -580.000; -684.000
367.456;   45.050; -246.000;   31.000
367.588;  163.675; -371.000; -318.000
367.719;   20.250;  -44.000;  -45.000
367.851;  -29.025; -222.000; -241.000
367.982;  -79.900; -875.000; -732.000
368.113;   63.625; -475.000; -358.000
368.245; -136.650; -960.000; -841.000
368.376;  -33.900; -254.000; -302.000
368.508;  -54.275; -188.000; -263.000
368.639; -143.225;-1166.000;-1034.000
368.770;  -49.100; -670.000; -589.000
368.902;  -93.100; -836.000; -926.000
369.033; -118.350; -906.000; -855.000
369.164;  -56.150; -720.000; -653.000
369.296; -103.550; -452.000; -601.000
369.427;   -5.950; -209.000; -144.000
369.558;  -53.175; -593.000; -377.000
369.689;  -96.575; -721.000; -569.000
369.821; -134.825; -951.000; -845.000
369.952;  -32.725;   42.000; -108.000
370.083;  -58.825; -229.000; -108.000
370.214;  -89.925; -735.000; -650.000
370.345;   -8.475;   65.000;   81.000
370.477; -113.400; -810.000; -790.000
370.608;  181.800; -328.000; -264.000
370.739;  -84.025;-1233.000;-1292.000
370.870;  -63.250;-1102.000; -923.000
371.001;   61.275; -378.000; -467.000
371.132;  -94.000; -754.000; -735.000
371.263;  -18.000;  -42.000; -148.000
371.394; -139.775; -841.000; -748.000
371.525;   23.675;  345.000;  225.000
371.657;  -91.925; -808.000; -670.000
371.788;   48.575;  103.000;  199.000
371.919;  123.350; -384.000; -304.000
372.050; 3114.950;  -91.000; -156.000
372.181;  901.775; -188.000; -294.000
372.311;  310.150;   42.000; -127.000
372.442;   16.600; -457.000; -451.000
372.573;  -28.475; -444.000; -340.000
372.704; -122.800;-1008.000; -980.000
372.835;   38.200; -228.000; -289.000
372.966;  -77.025; -646.000; -554.000
373.097;  -85.100; -575.000; -711.000
373.228;  -46.325; -717.000; -542.000
373.359;   75.825; -824.000; -536.000
373.490;  748.150; -881.000; -727.000
373.620;  925.950;-1001.000; -803.000
373.751; 1492.075; -332.000; -396.000
373.882;  634.375; -663.000; -733.000
374.013;   41.800; -449.000; -262.000
374.143;  -73.800; -581.000; -659.000
374.274; -103.875; -987.000; -908.000
374.405;  137.675; -388.000; -276.000
374.536;  376.000; -526.000; -387.000
374.666;  922.700; -759.000; -807.000
374.797;  166.200; -817.000; -868.000
374.928;  704.675; -710.000; -560.000
375.058;  713.725; -535.000; -500.000
375.189;   47.050;  -59.000;  -93.000
375.320; -109.275; -928.000;-1034.000
375.450;  -61.950; -625.000; -616.000
375.581;  -41.075; -526.000; -436.000
375.712;  -44.650; -574.000; -250.000
375.842;  238.025; -438.000; -415.000
375.973;  150.700; -554.000; -513.000
376.103;  -76.300; -665.000; -648.000
376.234;  -92.150; -531.000; -552.000
376.364;  -71.825; -944.000; -867.000
376.495;  287.525;  925.000;  529.000
376.625;  -22.775; -472.000; -485.000
376.756;   26.125; -709.000; -678.000
376.886;  -98.375;-1178.000;-1026.000
377.017;   58.625;-1048.000;-1061.000
377.147;  367.675; -786.000; -782.000
377.278;   57.125;  174.000;  228.000
377.408; -133.075; -801.000; -815.000
377.538; -116.375; -707.000; -693.000
377.669;  -84.050; -537.000; -613.000
377.799; -102.875; -645.000; -635.000
377.929;  -66.850; -610.000; -428.000
378.060; -135.150; -781.000; -847.000
378.190;  -54.125; -726.000; -531.000
378.320;  -60.975; -401.000; -406.000
378.451;  -12.400; -131.000;  -22.000
378.581;  -17.175;  -67.000; -110.000
378.711;  152.600; 1035.000;  866.000
378.841;  -36.025; -533.000; -675.000
378.972;  -85.975; -871.000; -751.000
379.102;  -38.475; -652.000; -579.000
379.232;  -17.200; -126.000;  -73.000
379.362; -128.125;-1001.000; -885.000
379.492;  -17.100; -373.000; -424.000
379.623;   79.500;    0.000;  111.000
379.753; -106.375;-1107.000; -974.000
379.883;  159.650;   59.000;  156.000
380.013;  -37.325;-1081.000;-1017.000
380.143; -123.950;-1097.000;-1056.000
380.273; -107.875; -985.000; -861.000
380.403;  -19.150; -344.000; -257.000
380.533;  -34.150; -651.000; -664.000
380.663;   46.750;  173.000;  128.000
380.793; -111.850;-1027.000;-1074.000
380.923;  -32.000; -103.000;  -34.000
381.053; -103.775; -613.000; -623.000
381.183;  -46.875; -106.000; -248.000
381.313;    6.825; -656.000; -470.000
381.443;   -0.700; -692.000; -473.000
381.573;  132.900; -402.000; -409.000
381.703;  169.725;-1249.000;-1095.000
381.833; -157.975;-1454.000;-1336.000
381.963;   84.175; -134.000;  -87.000
382.093; 1155.600; -925.000; -909.000
382.223;  318.400; -713.000; -602.000
382.353;  -42.750; -801.000; -608.000
382.482;  273.050;-1091.000; -964.000
382.612;  635.875; -872.000; -644.000
382.742;  330.850; -695.000; -622.000
382.872;  184.250; -565.000; -551.000
383.002;   48.725;  347.000; -132.000
383.131;  -25.200; -226.000; -160.000
383.261;  -59.125; -706.000; -768.000
383.391;  267.275; -552.000; -377.000
383.521; 3394.525;  451.000;  263.000
383.650;  800.175; -947.000; -904.000
383.780;  -25.300; -783.000; -656.000
383.910;  104.850;  880.000;  802.000
384.039;  -12.125; -794.000; -656.000
384.169;  117.900;-1205.000;-1017.000
384.299;  -53.825; -650.000; -662.000
384.428;  -97.950; -764.000; -680.000
384.558;  -60.550; -308.000; -275.000
384.687;  -49.400; -414.000; -334.000
384.817;   16.925;   75.000;   -2.000
384.947;    4.150; -234.000; -141.000
385.076;  263.375;  982.000;  912.000
385.206;   89.950;  369.000;  480.000
385.335;  -42.850; -549.000; -417.000
385.465;  -87.600; -655.000; -663.000
385.594;  101.950;  -53.000;  -44.000
385.724;  319.675; -868.000; -838.000
385.853;   58.800; -296.000; -270.000
385.982; 1161.275; -743.000; -787.000
386.112; 1784.525;-1052.000; -871.000
386.241;  100.425; -307.000; -312.000
386.371;    1.425; -174.000;  -87.000
386.500;  -20.075; -825.000; -789.000
386.629;    0.175; -874.000; -817.000
386.759;   59.400;  -43.000;   68.000
386.888;  -32.450; -170.000; -250.000
387.017;  -68.075; -648.000; -620.000
387.147;  -87.425; -771.000; -798.000
387.276;   -8.700; -410.000; -397.000
387.405;  -19.150; -398.000; -342.000
387.535;  -68.800; -452.000; -361.000
387.664;  -83.525; -692.000; -620.000
387.793;   39.975; -198.000; -113.000
387.922;  442.575;  255.000;  200.000
388.052;   -1.200; -576.000; -423.000
388.181;   -8.250; -342.000; -472.000
388.310;  -33.250; -889.000; -710.000
388.439;  -71.850; -749.000; -742.000
388.568;  146.700;  365.000;  244.000
388.697;  873.150; -756.000; -653.000
388.826;  139.000; -768.000; -666.000
388.956;   31.550; -285.000; -307.000
389.085;  -52.400; -347.000; -287.000
389.214; -112.650; -842.000; -872.000
389.343;  -70.075; -645.000; -413.000
389.472;  407.450;  126.000;  149.000
389.601;  505.850;   91.000;    0.000
389.730;  -16.375; -568.000; -687.000
389.859;   55.875;  226.000;   46.000
389.988;  143.775; -423.000; -408.000
390.117;  110.025; -168.000; -146.000
390.246;  -23.525; -331.000; -320.000
390.375;   67.050; -673.000; -626.000
390.504;  -74.025; -703.000; -621.000
390.633; -102.600; -672.000; -726.000
390.761;  -81.525; -732.000; -645.000
390.890;    2.800;   -4.000; -130.000
391.019;  -42.025; -421.000; -441.000
391.148; -122.100; -826.000; -855.000
391.277;  -96.500; -576.000; -493.000
391.406;  -95.475; -821.000; -805.000
391.534;   -3.150;  574.000; -301.000
391.663;  -81.825; -583.000; -645.000
391.792;  -99.200; -673.000; -701.000
391.921;   72.125;   -3.000;   15.000
392.050;  131.950; -287.000; -228.000
392.178;  -72.550;-1206.000;-1061.000
392.307;   93.900; -758.000; -712.000
392.436;   49.525; -427.000; -641.000
392.564;   14.100;  166.000;   -6.000
392.693; -110.050; -860.000; -682.000
392.822;  143.025; -529.000; -534.000
392.950;   55.125; -880.000; -714.000
393.079;  258.200; -188.000; -328.000
393.208;   -7.750; -488.000; -511.000
393.336;  -23.800; -170.000; -145.000
393.465;  -61.450; -317.000; -199.000
393.593;  -15.675;   62.000;   79.000
393.722; -161.200;-1121.000; -916.000
393.850;  -41.475; -188.000;  -61.000
393.979; -160.150; -926.000; -805.000
394.107;  -60.450; -517.000; -537.000
394.236;  -39.875; -570.000; -507.000
394.364;  156.850;  383.000;  206.000
394.493;  157.900; -911.000; -767.000
394.621;  -32.575; -955.000; -916.000
394.750;  776.050; -873.000; -923.000
394.878; 3124.775; -247.000; -149.000
395.007; 4148.325; -721.000; -807.000
395.135;  281.475; -790.000; -721.000
395.263; -101.550;-1038.000;-1040.000
395.392;  -32.050;  -25.000; -107.000
395.520; -147.125; -818.000; -679.000
395.648; -117.000; -865.000; -915.000
395.777;  -35.550; -366.000; -405.000
395.905;  -72.500; -449.000; -564.000
396.033;  -15.500;  217.000;  172.000
396.162;  330.625; -399.000; -453.000
396.290;  283.675;  -17.000;   -2.000
396.418;   51.325; -555.000; -514.000
396.546;  -95.975; -571.000; -466.000
396.674; -109.725; -850.000; -878.000
396.803;   -2.000;  -72.000;  -23.000
396.931;   54.400; -179.000; -199.000
397.059;  -18.525;-1026.000; -989.000
397.187; -141.300;-1026.000; -975.000
397.315; -150.125; -884.000; -649.000
397.443; -103.900; -592.000; -443.000
397.572;  -83.725; -578.000; -424.000
397.700;  -50.275; -607.000; -614.000
397.828;  -10.025;  120.000;  -90.000
397.956;  -58.175; -508.000; -478.000
398.084;  -62.400; -767.000; -626.000
398.212;   15.075;  137.000;  124.000
398.340;    0.475;  -56.000;  159.000
398.468;    8.100; -390.000; -169.000
398.596; -138.175; -993.000; -953.000
398.724; -125.775; -762.000; -767.000
398.852; -153.925;-1024.000; -976.000
398.980;  -83.275; -560.000; -560.000
399.108;  -70.200; -982.000; -735.000
399.236;    7.925;   13.000;    8.000
399.363;   11.975;  222.000;  196.000
399.491;  -85.250; -404.000; -398.000
399.619; -132.650; -829.000; -800.000
399.747; -121.375; -859.000; -771.000
399.875;   70.975;  220.000;  234.000
400.003;  -61.400; -359.000; -284.000
400.130; -103.050; -421.000; -341.000
400.258;  -27.025;  -83.000;   38.000
400.386;  -85.000; -352.000; -168.000
400.514;  -52.600; -526.000; -587.000
400.641; -102.600; -928.000; -802.000
400.769; -159.500; -979.000; -888.000
400.897; -117.000; -838.000; -793.000
401.025;  -43.950; -166.000; -152.000
401.152;   -7.625;  220.000;   38.000
401.280; -103.150; -430.000; -429.000
401.408; -124.075; -712.000; -576.000
401.535; -108.550; -735.000; -758.000
401.663; -200.750;-1134.000;-1054.000
401.790;  -93.750; -514.000; -525.000
401.918;   35.300;  436.000;  405.000
402.046;  -31.950;  134.000;  122.000
402.173;  -50.475;  -18.000;    7.000
402.301;  -81.950; -519.000; -397.000
402.428;   26.200;  528.000;  383.000
402.556; -161.350;-1188.000; -913.000
402.683;  -27.900;  -20.000;   -1.000
402.811;  -32.800;  -37.000; -206.000
402.938;  -15.500;   20.000;   27.000
403.066;  165.950; -574.000; -558.000
403.193;  304.475;  299.000;  239.000
403.321;  213.850; -396.000; -574.000
403.448;  266.300;   83.000;   27.000
403.575;  106.200;  -90.000;  -46.000
403.703; -117.375; -732.000; -557.000
403.830;  -69.050; -531.000; -496.000
403.957; -145.900;-1117.000;-1023.000
404.085;    6.600;  -61.000; -172.000
404.212;   89.500;  -50.000;   63.000
404.339;  276.475; -566.000; -306.000
404.467; 6232.125; -612.000; -524.000
404.594; 3766.025; -287.000; -227.000
404.721;  826.075; -869.000; -764.000
404.848;   64.200; -113.000; -202.000
404.976; -105.950; -856.000; -783.000
405.103;  -14.100;  -14.000;  -82.000
405.230;  -11.975;  190.000;  226.000
405.357;   20.575;  117.000;   44.000
405.484;  280.675;  -49.000;    5.000
405.612;   29.000; -548.000; -563.000
405.739;  -72.575; -488.000; -243.000
405.866;   73.700;  669.000;  385.000
405.993;  -43.500; -398.000; -102.000
406.120; -139.450; -801.000; -887.000
406.247;  -56.825; -323.000; -342.000
406.374;  358.125;  540.000;  629.000
406.501;   35.700; -632.000; -702.000
406.628; -106.050; -621.000; -589.000
406.755; -113.675; -803.000; -620.000
406.882;  -64.475; -228.000; -277.000
407.009;  -98.475; -719.000; -628.000
407.136;   22.525; -480.000; -401.000
407.263;   94.700; -939.000; -829.000
407.390;  -97.325; -692.000; -614.000
407.517; -187.575;-1139.000;-1187.000
407.644;  -63.825; -332.000; -256.000
407.771;  -65.200; -249.000; -287.000
407.898;  -12.225;  168.000;  328.000
408.025;  -85.050; -421.000; -313.000
408.151;  -25.425;   82.000;  153.000
408.278;  -69.900; -267.000; -216.000
408.405; -136.625; -931.000; -899.000
408.532;  -94.025; -549.000; -542.000
408.659; -124.875; -677.000; -648.000
408.785; -214.675;-1298.000;-1170.000
408.912;  -79.525; -412.000; -296.000
409.039; -106.400; -610.000; -686.000
409.166; -111.425; -591.000; -555.000
409.292; -128.425; -571.000; -534.000
409.419; -134.525; -665.000; -649.000
409.546;  -91.875; -431.000; -192.000
409.672; -129.825; -713.000; -545.000
409.799;  -24.100;  -36.000;   34.000
409.926;  -52.500; -180.000; -179.000
410.052; -180.850;-1127.000;-1091.000
410.179;  -69.550; -368.000; -392.000
410.305;  -90.925; -375.000; -493.000
410.432;  -49.975; -220.000; -333.000
410.558;  -96.700; -305.000; -380.000
410.685; -117.750; -688.000; -431.000
410.812; -102.750; -409.000; -588.000
410.938; -147.325; -964.000; -808.000
411.065; -104.100; -671.000; -645.000
411.191;  -41.775; -189.000; -174.000
411.317; -137.625; -823.000; -742.000
411.444;  -77.075; -317.000; -246.000
411.570;  -64.925; -339.000; -294.000
411.697; -132.200; -758.000; -752.000
411.823; -192.150; -989.000; -999.000
411.949;  -50.900;  -56.000;   17.000
412.076; -118.575; -539.000; -519.000
412.202; -127.175; -758.000; -757.000
412.329; -127.125; -798.000; -752.000
412.455; -122.300; -821.000; -657.000
412.581;  -23.800;  -15.000;  172.000
412.707;  -90.525; -540.000; -457.000
412.834;    6.150;  156.000;  219.000
412.960;  -97.400; -785.000; -784.000
413.086; -116.550; -743.000; -701.000
413.212;  132.475;  604.000;  578.000
413.339;  -73.725; -685.000; -701.000
413.465;  -27.425; -364.000; -310.000
413.591; -106.650; -757.000; -474.000
413.717;  -68.075; -358.000; -366.000
413.843; -139.425; -839.000; -861.000
413.969;  -74.775;  -47.000; -292.000
414.096; -110.625; -679.000; -679.000
414.222;  -12.725;  -33.000;   85.000
414.348;  -46.775; -652.000; -385.000
414.474;   65.975;   38.000;  -52.000
414.600;  -24.950; -126.000; -144.000
414.726;  -19.125;  -96.000;  -55.000
414.852;  -51.300; -365.000; -342.000
414.978;   14.975;  104.000;  -18.000
415.104;   52.050;   38.000;   80.000
415.230;    6.525; -329.000; -330.000
415.356;   32.400; -409.000; -514.000
415.482;  180.100;   13.000;  -35.000
415.608;  278.625; -247.000; -323.000
415.734;  981.650;   67.000;   38.000
415.860;21312.400; -875.000; -767.000
415.986;14692.975; -685.000; -607.000
416.111; 1228.100; -798.000; -652.000
416.237;  253.925; -424.000; -571.000
416.363; 1271.150; -765.000; -733.000
416.489; 4417.600; -324.000; -251.000
416.615;  466.675; -707.000; -742.000
416.741;  -40.825; -677.000; -784.000
416.866; -108.575; -673.000; -736.000
416.992; -139.950; -801.000; -818.000
417.118;  -38.075;  -41.000;  -80.000
417.244; -106.750; -798.000; -531.000
417.369;  -92.900; -801.000; -612.000
417.495;  -25.700; -325.000; -254.000
417.621;  -81.550;-1015.000; -803.000
417.746;  -18.125; -579.000; -572.000
417.872;   43.200; -254.000; -144.000
417.998;   50.475; -515.000; -530.000
418.123; 1177.500;-1073.000; -845.000
418.249; 5705.800; -512.000; -601.000
418.374;  763.875; -916.000; -824.000
418.500;  103.150; -383.000; -482.000
418.626;  120.125;   70.000;  -59.000
418.751;  103.650; -549.000; -448.000
418.877;  194.525; -637.000; -643.000
419.002; 1983.175; -688.000; -560.000
419.128;13332.050; -930.000; -721.000
419.253; 3124.650; -967.000; -837.000
419.379;  404.475; -391.000; -338.000
419.504;  406.375;  325.000;  415.000
419.629;  544.150; -393.000; -212.000
419.755; 3953.325; -317.000; -254.000
419.880;22638.125;  -98.000;   67.000
420.006;12147.925; -280.000; -221.000
420.131;30355.725; -662.000; -775.000
420.256; 4155.475; -315.000; -316.000
420.382;  543.025; -665.000; -687.000
420.507;   47.975; -649.000; -778.000
420.632;  105.725; -337.000; -339.000
420.758;  194.275; -251.000; -425.000
420.883;  -87.900; -876.000; -672.000
421.008; -119.250; -775.000; -619.000
421.133;  -90.525; -509.000; -467.000
421.259;  -72.550; -325.000; -259.000
421.384; -116.450; -834.000; -693.000
421.509;  -63.625;-1052.000; -862.000
421.634;  954.850; -936.000; -820.000
421.759;  375.450; -359.000; -327.000
421.885;  -58.225; -717.000; -656.000
422.010; -106.925; -673.000; -542.000
422.135; -144.775; -695.000; -727.000
422.260;   26.025;  340.000;  280.000
422.385;  -42.675;   12.000;  -98.000
422.510;   -5.300;  151.000;  -26.000
422.635;    8.925;  -87.000;  -43.000
422.760;   63.625; -766.000; -791.000
422.885;   29.875;  -57.000;  -80.000
423.010;  -41.400; -112.000; -169.000
423.135;  -96.175; -481.000; -561.000
423.260;  -29.500; -150.000; -245.000
423.385;   43.625;  476.000;  222.000
423.510;    5.400;   71.000;  -22.000
423.635;   73.800;  133.000;   45.000
423.760;   45.675;  383.000;  328.000
423.885;   42.225;  336.000;  391.000
424.010;  -15.050;  -68.000;  -13.000
424.135;  -30.375;    5.000;  -33.000
424.259; -101.750; -654.000; -457.000
424.384;  -61.675; -279.000; -272.000
424.509;  -46.350; -260.000; -186.000
424.634;  -85.625; -761.000; -623.000
424.759;  -51.675; -688.000; -544.000
424.883;  -27.550; -506.000; -527.000
425.008;  143.900; -502.000; -410.000
425.133; 2094.125; -679.000; -653.000
425.258;  918.775; -517.000; -381.000
425.382;  947.875; -867.000; -774.000
425.507; 2220.600; -487.000; -543.000
425.632;  389.350; -802.000; -663.000
425.756;  464.225; -256.000; -146.000
425.881; 7283.375; -831.000; -857.000
426.006;18846.025; -604.000; -355.000
426.130; 2746.150; -696.000; -508.000
426.255;  345.175; -611.000; -491.000
426.379;  165.525; -189.000; -577.000
426.504;  387.900;  660.000;  544.000
426.629; 4330.250; -519.000; -466.000
426.753; 2835.900;   64.000;  -46.000
426.878;  332.625; -252.000; -288.000
427.002;  144.025; -651.000; -668.000
427.127; 1721.700;  -35.000; -158.000
427.251;12098.875;  372.000;  401.000
427.375; 3235.500; -191.000; -173.000
427.500; 2039.800; -616.000; -610.000
427.624;  634.325; -234.000; -400.000
427.749;   76.175; -216.000; -225.000
427.873;  -53.075; -499.000; -412.000
427.997;  -54.075; -222.000; -230.000
428.122;   72.450;  795.000;  703.000
428.246;   51.125;  433.000;  434.000
428.371; -136.550; -869.000; -773.000
428.495; -117.300; -624.000; -646.000
428.619;  -35.900; -186.000; -117.000
428.743;    7.275;   65.000;  132.000
428.868;   -7.100; -732.000; -643.000
428.992; 1211.050; -219.000; -326.000
429.116;  458.275; -329.000; -357.000
429.240;  235.050;  419.000;  426.000
429.365;  -37.350; -454.000; -574.000
429.489;  -61.325; -638.000; -647.000
429.613;   12.350; -236.000; -177.000
429.737;   20.775; -563.000; -432.000
429.861;  277.025; -247.000; -133.000
429.985; 6012.050; -425.000; -305.000
430.109; 6335.900; -770.000; -908.000
430.234;  692.200;   76.000;  -50.000
430.358;   70.125; -250.000; -160.000
430.482;  -71.125; -672.000; -564.000
430.606;  -78.250; -655.000; -375.000
430.730;  -14.700; -437.000; -388.000
430.854;   55.750; -909.000; -835.000
430.978;  -77.950; -795.000; -764.000
431.102; -102.800; -499.000; -422.000
431.226; -120.550; -874.000; -815.000
431.350;   26.950;  345.000;  422.000
431.474; -103.125; -661.000; -373.000
431.597; -156.975;-1060.000; -848.000
431.721;  -89.850; -276.000; -267.000
431.845; -135.575; -704.000; -472.000
431.969;  -80.800; -304.000; -349.000
432.093;  -88.125; -395.000; -317.000
432.217;  -20.900;   32.000;   82.000
432.341;  -81.575; -523.000; -518.000
432.464;    1.125;   96.000;   40.000
432.588;  132.725; -401.000; -329.000
432.712;   51.550;  -52.000;  -52.000
432.836;   41.750;  213.000;  263.000
432.959;  -21.925; -372.000; -311.000
433.083;   99.550;   11.000;    2.000
433.207;  414.525;  285.000;  930.000
433.330; 5608.825; -391.000; -200.000
433.454; 6530.975; -654.000; -638.000
433.578; 3801.000;  583.000;  278.000
433.701;  653.350; -623.000; -675.000
433.825;  120.625; -292.000; -299.000
433.949;  126.150;   28.000;  -72.000
434.072;   13.375; -410.000; -323.000
434.196;  -12.125; -309.000; -117.000
434.319; 3826.600;25482.000;25124.000
434.443;  765.400; -656.000; -603.000
434.566; 2771.075;  281.000;   62.000
434.690;  413.325; -637.000; -383.000
434.813;   68.750; -251.000; -173.000
434.937;  -80.475; -569.000; -696.000
435.060;  -45.300; -423.000; -332.000
435.184;  235.100; -492.000; -217.000
435.307;  119.200;  159.000;  102.000
435.431;  -19.425;  -40.000;   24.000
435.554;  -84.500; -399.000; -240.000
435.677; -102.750; -350.000; -258.000
435.801;  -57.725;  -25.000;   49.000
435.924;  -26.825;    1.000;  -67.000
436.048; -117.225;-1019.000; -732.000
436.171;  -82.225; -240.000;  -66.000
436.294;  -22.050; -248.000; -229.000
436.417;   94.725; -963.000; -849.000
436.541;  -81.725; -814.000; -840.000
436.664;  -67.800; -242.000; -316.000
436.787;  -37.550;   13.000;  113.000
436.910; -126.250; -792.000; -422.000
437.034;   -0.675;  142.000;  143.000
437.157;   39.725;  -11.000;    0.000
437.280;  -68.575; -392.000; -292.000
437.403; -108.625; -982.000; -869.000
437.526;  507.775; -903.000; -865.000
437.649; 1860.250; -505.000; -332.000
437.772;  236.200; -692.000; -540.000
437.896;   94.350;  700.000;  544.000
438.019; -104.850; -758.000; -503.000
438.142; -112.125; -596.000; -506.000
438.265;  -47.225; -639.000; -670.000
438.388;  414.100; -520.000; -410.000
438.511;   34.775; -597.000; -394.000
438.634;  -60.825; -247.000; -125.000
438.757; -130.550; -693.000; -619.000
438.880;  -37.550;  -34.000;  -57.000
439.003;  -91.200; -417.000; -437.000
439.126;  -72.650; -287.000; -167.000
439.248;  -82.325;  -98.000; -139.000
439.371;  -51.750;    9.000;  -53.000
439.494;   16.100;  510.000;  439.000
439.617;  -65.675;   65.000;  -88.000
439.740; -175.900; -968.000; -816.000
439.863; -159.225; -755.000; -595.000
439.986; -122.200; -476.000; -431.000
440.108;  -49.600; -161.000; -112.000
440.231; -182.825; -950.000; -836.000
440.354;  -56.425;  -64.000; -150.000
440.477;  -15.250; -566.000; -542.000
440.599;  -45.975; -200.000; -225.000
440.722; -134.775; -709.000; -586.000
440.845;   61.425;  751.000;  928.000
440.968; -107.350; -415.000; -311.000
441.090;  -75.200; -199.000;  -33.000
441.213; -172.075;-1021.000; -825.000
441.336;  -73.050; -159.000;   -5.000
441.458;  -96.025; -549.000; -396.000
441.581; -105.625; -628.000; -629.000
441.703;  -76.450; -152.000;   13.000
441.826; -120.700; -557.000; -400.000
441.948;  -64.850;   56.000;   51.000
442.071;   19.200;  555.000;  424.000
442.193; -114.025; -531.000; -485.000
442.316;   -2.300;  152.000;   97.000
442.438;   22.225; -233.000;  -10.000
442.561;   58.425;  272.000;  262.000
442.683;  454.500; -809.000; -522.000
442.806;  947.300;   -8.000;   74.000
442.928;  -25.725; -859.000; -604.000
443.051;  -78.425; -577.000; -373.000
443.173; -103.075; -341.000; -339.000
443.295;  -97.550; -263.000; -371.000
443.418;  -64.225; -321.000;  -29.000
443.540;  -25.175; -106.000;   -4.000
443.662; -126.950; -563.000; -465.000
443.785;  -22.125;  335.000;  199.000
443.907; -109.575; -362.000; -208.000
444.029; -145.100; -767.000; -494.000
444.152; -148.850; -644.000; -554.000
444.274;  -55.250;  -18.000;  -24.000
444.396; -109.275; -461.000; -221.000
444.518; -142.225; -691.000; -454.000
444.640; -106.950; -268.000; -111.000
444.763;  -34.450;  388.000;  249.000
444.885; -124.900; -432.000; -392.000
445.007;  -54.750;   35.000;   86.000
445.129; -128.750; -610.000; -515.000
445.251; -113.700; -372.000; -439.000
445.373; -140.675; -537.000; -386.000
445.495;   -6.375;  242.000;  350.000
445.617;   50.975;  853.000;  753.000
445.739;  -75.125; -215.000;  -97.000
445.861;  -59.650; -245.000; -112.000
445.984;  -59.825; -267.000; -101.000
446.105;  147.575; -418.000; -251.000
446.227;  489.350; -176.000;  -19.000
446.349;  -34.875; -358.000; -249.000
446.471; -105.050; -615.000; -448.000
446.593;  -93.875; -316.000;   19.000
446.715;  -24.900;  -67.000;   41.000
446.837;   47.550;  697.000;  832.000
446.959; -121.725; -457.000; -478.000
447.081; -127.850; -628.000; -518.000
447.203;   47.775;  862.000;  834.000
447.325;  -91.925; -270.000;   42.000
447.446;  -17.475;  286.000;  530.000
447.568; -168.550; -921.000; -803.000
447.690; -101.150; -236.000; -245.000
447.812; -160.875; -798.000; -519.000
447.933;  -35.800;  155.000;  127.000
448.055;  -78.400; -306.000; -261.000
448.177;  112.675;   31.000;   79.000
448.299;   19.150; -935.000; -727.000
448.420;   -7.250;  -25.000;  159.000
448.542;  -48.800;   -3.000;   33.000
448.664;  -38.750;  109.000;  322.000
448.785;  -42.125;  265.000;   83.000
448.907; -102.400; -614.000; -353.000
449.028;  -53.925; -771.000; -471.000
449.150;   29.875;  492.000;  589.000
449.272; -187.550;-1044.000; -913.000
449.393;   18.225;  612.000;  694.000
449.515; -149.475; -634.000; -581.000
449.636;  -80.100; -264.000; -155.000
449.758;   73.725;  763.000;  622.000
449.879; -106.075; -498.000; -396.000
450.001;  -90.425; -149.000;  -49.000
450.122;  -48.575;  -95.000;  162.000
450.244;  -37.550;   37.000;  364.000
450.365;  -95.525; -495.000; -301.000
450.486;  -24.975;   80.000;  268.000
450.608;    7.450;  393.000;  326.000
450.729;   72.525;  578.000;  645.000
450.850;    7.100; -574.000; -466.000
450.972;  838.875; -552.000; -389.000
451.093; 5364.700;  190.000;  588.000
451.214; 2191.050; -516.000; -337.000
451.336;  389.700;  773.000;  579.000
451.457;   59.750;  264.000;  393.000
451.578;  -46.050; -118.000;  -74.000
451.699; -127.650; -546.000; -540.000
451.821;  -77.750; -284.000;  -50.000
451.942;  -19.975;  278.000;  285.000
452.063;   44.950;  228.000;  419.000
452.184;  607.875;  -54.000;  -49.000
452.305; 1125.050;  103.000;  170.000
452.427;  116.025; -549.000; -301.000
452.548;  -20.600;   23.000;   79.000
452.669;  -66.950; -257.000;  -89.000
452.790;  -62.500;    3.000;  -18.000
452.911;  -11.600;  195.000;  259.000
453.032;  -80.800; -289.000;  -60.000
453.153;  -56.225;  -29.000;   81.000
453.274;   56.050;  737.000;  868.000
453.395;  -59.025;  -51.000;  175.000
453.516;  114.875; 1317.000; 1388.000
453.637;  -82.150; -205.000; -150.000
453.758;  -58.675;   15.000;   69.000
453.879; -134.475; -462.000; -250.000
454.000;   54.325; 1086.000;  948.000
454.121; -120.275; -554.000; -326.000
454.242; -123.800; -599.000; -383.000
454.362;  -70.925;  -99.000;  114.000
454.483;  -61.450; -309.000; -229.000
454.604;   67.100;  512.000;  580.000
454.725; -144.750; -627.000; -555.000
454.846; -125.500; -474.000; -406.000
454.967;  -36.175;  230.000;  539.000
455.087;  -44.700;  179.000;  153.000
455.208;   -0.225;  554.000;  856.000
455.329;  -63.525;  -22.000;   82.000
455.450;   21.675;  473.000;  633.000
455.570;  -85.925; -234.000; -211.000
455.691;  -39.850;  201.000;  407.000
455.812; -114.850; -270.000;  -92.000
455.932;  -74.150;  107.000;  -97.000
456.053;  -88.400;   36.000;   24.000
456.173; -126.000; -433.000; -355.000
456.294; -137.625; -476.000; -303.000
456.415;  -81.400;  -73.000;   70.000
456.535;  -52.275;  297.000;  273.000
456.656;  -46.825;  132.000;  240.000
456.776;  -81.975;    3.000;  298.000
456.897;   -7.325;  308.000;  513.000
457.017;  -79.225; -153.000;   -3.000
457.138; -109.975; -402.000; -249.000
457.258;  -33.725;  263.000;  224.000
457.379;  -15.375;  509.000;  521.000
457.499;  -49.175;  443.000;  432.000
457.620; -139.925; -407.000; -231.000
457.740; -117.075; -132.000;  -11.000
457.860;  -57.625;   87.000;   44.000
457.981;  -46.525;  132.000;  124.000
458.101;  -87.375;  -89.000;   40.000
458.221;  -18.275;  336.000;  402.000
458.342;  -79.125;   -4.000;  -37.000
458.462;   29.450;  617.000;  352.000
458.582;  -37.725; -302.000; -294.000
458.703;   15.125;  303.000;  154.000
458.823;  -22.600;   22.000;  163.000
458.943;   29.050;  341.000;  467.000
459.063;  -24.950; 1124.000;  192.000
459.183;  -33.900;  328.000;  313.000
459.304;   -2.300;  315.000;  517.000
459.424;  -83.450; -246.000;  -89.000
459.544;  340.050;  388.000;  764.000
459.664;  878.675;  499.000;  506.000
459.784;  311.550; 1004.000; 1175.000
459.904;   70.725;  867.000;  744.000
460.024;   50.000;  867.000;  684.000
460.144;   10.375;  449.000;  554.000
460.264;   -8.200;  515.000;  327.000
460.385;  -92.225; -145.000; -119.000
460.505;   12.000;  905.000;  858.000
460.625; -115.725;  -17.000;  -68.000
460.745;  -29.300;  396.000;  541.000
460.864;  -62.775;  153.000;  469.000
460.984;    3.550;  499.000;  573.000
461.104;  142.350; 1656.000; 1775.000
461.224;   15.750;  657.000;  650.000
461.344;  -31.925;  431.000;  360.000
461.464;  -45.700;  258.000;  513.000
461.584;  -12.700;  283.000;  466.000
461.704;  -71.275;   58.000;  108.000
461.824;  -71.725;  238.000;  259.000
461.943;  -70.150;  191.000;  130.000
462.063;  -75.775;    2.000;  324.000
462.183;   25.750;  639.000;  717.000
462.303;  100.650; 1678.000; 1230.000
462.422;   15.300;  781.000;  840.000
462.542;  -50.250;  271.000;  391.000
462.662;   38.575;  353.000;  380.000
462.782;  262.150;  833.000;  572.000
462.901;  487.225;  545.000;  717.000
463.021;  288.150; 1702.000; 1638.000
463.141;  -28.575;  337.000;  770.000
463.260;   -7.450;  614.000;  474.000
463.380;    2.975;  902.000;  884.000
463.499;  -56.300;  342.000;  332.000
463.619;  -44.825;  581.000;  559.000
463.738;  115.375; 1644.000;  903.000
463.858;    5.275;  657.000;  811.000
463.978;  -26.200;  542.000;  396.000
464.097;   40.000;  921.000; 1114.000
464.217;  130.575; 1196.000; 1143.000
464.336;  110.700; 1068.000; 1130.000
464.455;  -39.900;  328.000;  659.000
464.575;   21.400;  597.000;  602.000
464.694;  156.575; 1204.000; 1179.000
464.814;  115.375; 1190.000; 1138.000
464.933;   76.775; 1095.000; 1027.000
465.052;   79.075; 1412.000; 1054.000
465.172;   76.325;  922.000;  799.000
465.291;  117.425; 1376.000; 1320.000
465.410;    2.175;  462.000;  735.000
465.530;   77.725; 1355.000; 1310.000
465.649;   58.950; 1209.000; 1273.000
465.768;  139.975; 1673.000; 1508.000
465.888;   44.900;  941.000; 1174.000
466.007;   69.775; 1335.000; 1440.000
466.126;   -8.000;  721.000;  641.000
466.245;   31.625; 1176.000; 1187.000
466.364;   27.875;  950.000; 1060.000
466.484;   46.775; 1024.000; 1213.000
466.603;   33.800; 1101.000; 1222.000
466.722;  105.375; 1490.000; 1769.000
466.841;   68.975; 1151.000; 1401.000
466.960;   23.850; 1069.000;  972.000
467.079;  143.975; 1971.000; 1786.000
467.198;   40.975; 1238.000; 1181.000
467.317;   92.000; 1768.000; 1162.000
467.436;   57.775; 1709.000; 1261.000
467.555;  106.300; 1796.000; 1746.000
467.674;   38.250; 1227.000; 1329.000
467.793;   43.525; 1376.000; 1374.000
467.912;   74.600; 1658.000; 1539.000
468.031;  126.025; 2038.000; 1930.000
468.150;  131.600; 1842.000; 1837.000
468.269;  177.200; 2313.000; 2090.000
468.388;  177.750; 2168.000; 2339.000
468.507;  238.500; 2884.000; 2903.000
468.626;  254.525; 2555.000; 2541.000
468.744;  142.200; 2018.000; 2174.000
468.863;  186.975; 2312.000; 2523.000
468.982;  103.625; 1503.000; 1555.000
469.101;  217.075; 2788.000; 2692.000
469.220;  156.150; 2333.000; 2176.000
469.338;  238.350; 2935.000; 3051.000
469.457;  200.875; 2719.000; 2545.000
469.576;  339.900; 3953.000; 3784.000
469.695;  225.775; 2877.000; 3066.000
469.813;  403.300; 4148.000; 4192.000
469.932;  432.875; 4255.000; 4485.000
470.051;  416.600; 4075.000; 4161.000
470.169;  889.000; 4470.000; 4338.000
470.288; 1519.900; 4700.000; 4809.000
470.406;  881.425; 5059.000; 5194.000
470.525;  604.500; 6101.000; 5787.000
470.644;  640.700; 6847.000; 6794.000
470.762;  814.875; 8397.000; 7873.000
470.881;  907.825; 8651.000; 8464.000
470.999; 1058.325; 9685.000; 9151.000
471.118; 1120.475;11174.000;10711.000

