
Integration time [ms]: 200.000
Averaging Nr. [scans]: 10
Smoothing Nr. [pixels]: 0
Data measured with spectrometer [name]: 2101012U2
Wave   ;Sample   ;Dark     ;Reference
[nm]   ;[counts] ;[counts] ;[counts] 

197.733;  139.200;  516.000;  404.000
197.879; -163.000; -610.000; -634.000
198.025;  -73.300; -475.000; -420.000
198.171; -144.400; -602.000; -612.000
198.317;  -74.300; -401.000; -316.000
198.463; -114.500; -655.000; -404.000
198.609;   52.800;  181.000; -137.000
198.755; -151.000; -644.000; -410.000
198.901; -153.900; -505.000; -424.000
199.047; -154.400; -615.000; -488.000
199.193;  -85.100; -230.000; -468.000
199.339;  -78.900; -222.000; -369.000
199.485;   89.600;  330.000;  271.000
199.631;   67.700;  227.000;  310.000
199.777; -100.100; -466.000; -398.000
199.923; -129.400; -610.000; -424.000
200.069;  -30.000; -141.000;  -58.000
200.215;  136.000;  128.000;  453.000
200.361;  114.000;  243.000;  477.000
200.507; -167.600; -600.000; -373.000
200.653;  -52.300; -371.000; -194.000
200.798;  -86.200; -215.000; -125.000
200.944;  -38.600; -146.000;  -41.000
201.090;  102.200;   61.000;  222.000
201.236;  -56.900; -116.000; -158.000
201.382;  256.900;  874.000;  903.000
201.528;   35.100;  -58.000;  -48.000
201.674; -133.900; -386.000; -293.000
201.819; -125.800; -540.000; -439.000
201.965; -173.000; -699.000; -447.000
202.111;  -71.800; -273.000; -226.000
202.257;  -87.300; -250.000; -238.000
202.402;   16.700;   13.000;  -36.000
202.548;  -43.700; -169.000; -116.000
202.694;  166.600;  410.000; -183.000
202.840; -149.300; -603.000; -531.000
202.985; -151.800; -681.000; -639.000
203.131; -250.500; -832.000; -666.000
203.277;  -51.900; -199.000; -262.000
203.423;  -81.400; -434.000; -520.000
203.568;  -73.400; -462.000; -237.000
203.714; -150.700; -535.000; -542.000
203.860; -179.300; -682.000; -641.000
204.005;   70.500;  112.000;  167.000
204.151;  170.800;  561.000;  556.000
204.296;  -73.800; -354.000; -221.000
204.442; -159.500; -600.000; -547.000
204.588; -176.600; -592.000; -579.000
204.733;   34.500;  178.000;  168.000
204.879; -284.100;-1018.000; -822.000
205.025;    7.100;  -99.000;  126.000
205.170;   18.800;  -17.000;   94.000
205.316;  172.300;  438.000;  661.000
205.461; -168.600; -698.000; -554.000
205.607;  152.700;  609.000;  665.000
205.752; -157.200; -626.000; -551.000
205.898;  -96.900; -501.000; -391.000
206.043; -121.100; -578.000; -506.000
206.189;  -94.300; -243.000; -285.000
206.334;  158.800;  554.000;  606.000
206.480;  168.600;  409.000;  239.000
206.625; -142.300; -529.000; -552.000
206.771;  -87.500; -451.000; -373.000
206.916;  -49.700; -210.000; -537.000
207.062; -143.300; -545.000; -591.000
207.207; -129.200; -546.000; -443.000
207.353;  117.300;  185.000;  460.000
207.498;   33.800;  196.000;   85.000
207.643; -101.600; -501.000; -370.000
207.789; -270.900;-1069.000; -910.000
207.934; -204.500; -665.000; -713.000
208.080;  -50.100; -154.000;   66.000
208.225;  -23.500;  -22.000;  -57.000
208.370; -191.800; -727.000; -619.000
208.516; -187.600; -741.000; -487.000
208.661;  -48.000; -127.000;  -69.000
208.806;  -40.300; -165.000; -171.000
208.952; -264.000;-1044.000; -731.000
209.097;  137.100;  378.000;  349.000
209.242;  -84.900; -307.000; -382.000
209.387;  126.900;  392.000;  350.000
209.533;  -98.800; -321.000; -350.000
209.678;  158.900;  472.000;  543.000
209.823; -106.700; -408.000; -310.000
209.969; -228.500; -860.000; -757.000
210.114; -195.800; -907.000; -719.000
210.259; -230.000; -939.000; -889.000
210.404;  -17.600; -171.000;  103.000
210.549;    5.800;  108.000;    3.000
210.695;  -13.600;   -3.000;  -95.000
210.840;   53.400;   94.000;   67.000
210.985; -119.900; -484.000; -303.000
211.130;  147.700;  268.000;  406.000
211.275;   58.000;  207.000;  199.000
211.420;  -77.600; -300.000; -289.000
211.566; -135.000; -536.000; -489.000
211.711;   56.300;  218.000;  157.000
211.856; -117.800; -545.000; -519.000
212.001;   23.300;  151.000;   44.000
212.146;   13.700;  153.000;   49.000
212.291;  -22.500; -210.000; -186.000
212.436;  -60.300; -280.000;   -6.000
212.581; -176.900; -685.000; -653.000
212.726; -148.800; -487.000; -538.000
212.871;  -88.000; -552.000; -217.000
213.016; -322.100;-1172.000;-1029.000
213.161;  136.500;  406.000;  291.000
213.306; -130.600; -435.000; -577.000
213.451; -213.700; -778.000; -689.000
213.596;  -93.600; -455.000; -347.000
213.741;  -94.200; -448.000; -538.000
213.886; -156.700; -498.000; -517.000
214.031;  -26.400; -294.000; -124.000
214.176; -119.400; -408.000; -341.000
214.321;  -36.900; -296.000; -157.000
214.466;  -61.700; -163.000;  -43.000
214.611;   20.300;  -61.000;  -10.000
214.756; -264.600; -948.000; -858.000
214.901;  -42.300; -388.000; -226.000
215.046; -236.100; -797.000; -825.000
215.191;   40.700;  128.000;   35.000
215.336;  -23.300; -157.000;  -19.000
215.480; -146.100; -684.000; -505.000
215.625;  -28.700; -175.000;  -19.000
215.770; -151.800; -757.000; -662.000
215.915;   -6.600;   -5.000;  -97.000
216.060;   10.100; -113.000;  -21.000
216.205; -216.700; -731.000; -779.000
216.349; -154.300; -470.000; -533.000
216.494; -267.700; -939.000; -867.000
216.639; -213.200; -823.000; -888.000
216.784; -186.200; -577.000; -525.000
216.929;  116.800;  392.000;  281.000
217.073;  -27.100; -244.000;  -31.000
217.218;   17.800;   78.000;  -47.000
217.363; -160.700; -656.000; -618.000
217.507; -187.600; -623.000; -588.000
217.652; -259.800; -845.000; -874.000
217.797; -195.100; -708.000; -659.000
217.942; -224.600; -856.000; -720.000
218.086;  175.000;  608.000;  539.000
218.231;  -37.300; -174.000;  -26.000
218.376;  -64.700; -337.000; -229.000
218.520;   18.500;  -41.000;   96.000
218.665;  -51.400; -338.000; -204.000
218.810; -100.500; -275.000; -233.000
218.954;   51.300;  201.000;   35.000
219.099; -227.000; -713.000; -963.000
219.243; -161.800; -589.000; -554.000
219.388;  -49.400; -264.000; -136.000
219.532;  -45.900; -116.000; -116.000
219.677; -171.500; -564.000; -521.000
219.822;   17.500;   33.000;   89.000
219.966;    5.600;   17.000;  -99.000
220.111;  -68.300; -328.000;  -40.000
220.255; -198.200; -797.000; -750.000
220.400;  -32.200; -180.000; -146.000
220.544; -148.200; -516.000; -450.000
220.689; -113.100; -422.000; -451.000
220.833;  -28.900; -123.000;  -58.000
220.978;  -94.800; -393.000; -563.000
221.122;   99.100;  319.000;  307.000
221.267; -214.200; -906.000; -837.000
221.411; -130.300; -478.000; -394.000
221.555;  -22.700; -104.000;  -23.000
221.700;  -57.200; -329.000; -222.000
221.844;   66.900;  255.000;  272.000
221.989;  -75.700; -328.000; -311.000
222.133;  -48.800; -289.000; -307.000
222.277;  -21.900;    5.000;   78.000
222.422;   33.300;  227.000;  113.000
222.566;  -65.800; -381.000; -214.000
222.711; -113.300; -414.000; -479.000
222.855; -158.200; -643.000; -586.000
222.999; -157.100; -642.000; -717.000
223.144;  -52.200; -195.000; -194.000
223.288;  131.600;  423.000;  251.000
223.432;   42.000;  184.000;  230.000
223.576;   56.200;  152.000;  -21.000
223.721;   80.000;  364.000;  273.000
223.865;  -89.700; -472.000; -475.000
224.009;  552.000; 1673.000; 1631.000
224.153; -143.600; -660.000; -671.000
224.298; -111.100; -531.000; -489.000
224.442;  -24.700;  -74.000;  -33.000
224.586;   -6.800; -169.000; -106.000
224.730; -197.400; -858.000; -670.000
224.875; -255.500; -739.000; -688.000
225.019;   42.000;  102.000;  188.000
225.163;  117.500;  208.000;  341.000
225.307;   43.000;   97.000;  -91.000
225.451;   92.500;  360.000;  481.000
225.595;   80.200;  264.000;  176.000
225.739;  -18.100; -170.000;  -94.000
225.884;   13.200;   86.000;    5.000
226.028; -189.600; -760.000; -626.000
226.172;  -66.100; -260.000; -273.000
226.316; -230.600; -941.000; -902.000
226.460; -127.800; -645.000; -493.000
226.604; -133.600; -406.000; -400.000
226.748; -214.000; -836.000; -733.000
226.892;  -59.300; -227.000; -181.000
227.036; -106.900; -537.000; -447.000
227.180;  -97.300; -551.000; -375.000
227.324; -127.800; -561.000; -580.000
227.468; -224.300; -819.000; -717.000
227.612;   36.900;  242.000;  -28.000
227.756; -230.900; -845.000; -698.000
227.900;  115.500;  342.000;  441.000
228.044; -123.700; -509.000; -290.000
228.188;  127.800;  448.000;  568.000
228.332; -157.600; -546.000; -472.000
228.476;  -42.300; -223.000; -149.000
228.620;  -35.400; -210.000; -150.000
228.764;  177.900;  431.000;  349.000
228.908;  -56.600; -155.000;   30.000
229.052; -137.500; -615.000; -528.000
229.195;  -40.300; -172.000;   13.000
229.339;  -13.400; -235.000; -305.000
229.483;  -46.500;    5.000; -162.000
229.627;   21.000; -156.000;  139.000
229.771;  -64.200; -218.000; -294.000
229.915;   55.600;  230.000;   79.000
230.059; -165.600; -648.000; -663.000
230.202;  -94.900; -370.000; -317.000
230.346;  -10.800; -107.000;  107.000
230.490; -119.100; -489.000; -521.000
230.634; -181.700; -736.000; -553.000
230.777;  205.000;  478.000;  509.000
230.921; -115.200; -450.000; -359.000
231.065;  -61.800; -246.000; -286.000
231.209;   43.900;  261.000;  265.000
231.352;   25.500;   54.000;   40.000
231.496;   42.400;  568.000;  188.000
231.640; -170.200; -693.000; -621.000
231.783;  138.300;  546.000;  525.000
231.927;  -58.100; -294.000; -365.000
232.071; -218.800; -962.000; -736.000
232.214; -219.500; -980.000; -764.000
232.358; -188.100; -683.000; -599.000
232.502;   25.400;  -19.000;    7.000
232.645; -239.500;-1090.000; -927.000
232.789;  -19.700; -257.000; -218.000
232.933;  -91.700; -407.000; -224.000
233.076; -251.100;-1038.000; -897.000
233.220; -208.700; -752.000; -777.000
233.363; -135.100; -669.000; -477.000
233.507;  129.100;  371.000;  129.000
233.650; -179.100; -764.000; -834.000
233.794;   96.700;  438.000;  461.000
233.938; -104.200; -530.000; -362.000
234.081;  -44.200;  -93.000;   31.000
234.225; -113.300; -631.000; -539.000
234.368; -219.800; -773.000; -723.000
234.512;  -83.300; -385.000; -299.000
234.655; -179.500; -582.000; -555.000
234.798; -129.300; -493.000; -466.000
234.942; -258.500; -884.000;-1002.000
235.085; -157.700; -651.000; -443.000
235.229; -127.300; -405.000; -410.000
235.372; -106.400; -247.000; -191.000
235.516;  -88.300; -397.000; -321.000
235.659;   82.400;   92.000;  121.000
235.802;  -14.700;  -38.000;  -22.000
235.946;   71.800;  335.000;  215.000
236.089;   57.000;  126.000;  250.000
236.233;  109.400;  275.000;  298.000
236.376;  -85.500; -235.000; -378.000
236.519;  -86.200; -297.000; -319.000
236.663;  -59.300; -215.000; -117.000
236.806; -257.000;-1029.000; -999.000
236.949;  127.100;  543.000;  431.000
237.092;  147.500;  412.000;  391.000
237.236; -146.000; -589.000; -502.000
237.379;  147.000;  352.000;  428.000
237.522; -216.100; -879.000; -768.000
237.666;   13.100; -271.000;   18.000
237.809; -239.700; -851.000; -823.000
237.952;   83.900;  469.000;  271.000
238.095; -130.900; -447.000; -442.000
238.238;  201.200;  688.000;  700.000
238.382;  -12.700;  166.000;  103.000
238.525; -142.900; -598.000; -511.000
238.668; -266.700;-1060.000; -985.000
238.811; -172.500; -638.000; -643.000
238.954;  -81.200; -483.000; -334.000
239.097;  237.700;  617.000;  664.000
239.241;   68.500;  394.000;  326.000
239.384;  -70.100; -254.000; -214.000
239.527; -125.000; -424.000; -224.000
239.670; -301.200; -994.000;-1091.000
239.813; -218.600; -696.000; -658.000
239.956;  198.500;  579.000;  473.000
240.099; -225.800; -778.000; -725.000
240.242;  153.000;  428.000;  432.000
240.385;  126.300;  466.000;  450.000
240.528; -125.300; -706.000; -473.000
240.671;   55.100;  189.000;  134.000
240.814;  -46.500; -441.000; -158.000
240.957; -199.400; -767.000; -578.000
241.100; -182.000; -779.000; -755.000
241.243; -277.900;-1234.000; -893.000
241.386; -133.100; -508.000; -379.000
241.529; -167.500; -735.000; -547.000
241.672; -123.400; -566.000; -495.000
241.815; -231.400; -832.000; -808.000
241.958;  -17.600; -125.000; -182.000
242.101; -168.400; -545.000; -390.000
242.244;  -68.400; -270.000; -325.000
242.387;  -45.300; -304.000; -246.000
242.530;   94.300;  470.000;  134.000
242.673;  -59.600; -381.000; -309.000
242.815; -255.100; -925.000; -899.000
242.958;  -85.600; -482.000; -381.000
243.101;   36.100;  132.000;  187.000
243.244; -154.300; -564.000; -521.000
243.387;  -98.200; -313.000; -316.000
243.530; -176.500; -657.000; -674.000
243.672;    8.900;   43.000;  -92.000
243.815; -102.600; -355.000; -283.000
243.958;    6.600;   98.000;  -26.000
244.101;   16.400;   59.000;  -16.000
244.243;  -30.500;  -47.000;  101.000
244.386; -206.500; -761.000; -630.000
244.529;  -50.100; -132.000; -139.000
244.672; -300.400;-1154.000; -951.000
244.814; -207.300; -621.000; -794.000
244.957; -115.800; -380.000; -304.000
245.100; -149.500; -489.000; -489.000
245.242; -120.100; -387.000; -374.000
245.385;  -11.600;  -59.000;  -39.000
245.528; -233.000; -871.000; -705.000
245.670;  165.500;  612.000;  634.000
245.813; -176.700; -599.000; -547.000
245.956;  -61.400; -324.000; -275.000
246.098; -153.800; -508.000; -650.000
246.241;   27.900;  194.000;   48.000
246.383;    9.100; -119.000;  -73.000
246.526; -108.000; -454.000; -525.000
246.669; -238.700; -889.000; -780.000
246.811;   51.800;  172.000;   -1.000
246.954; -115.100; -512.000; -426.000
247.096;  -52.700;  -84.000;   -6.000
247.239; -113.600; -482.000; -445.000
247.381; -127.100; -647.000; -488.000
247.524;  208.800;  645.000;  679.000
247.666;   -2.500;   58.000;   11.000
247.809; -248.800; -887.000; -691.000
247.951;  -31.200;  -75.000;  138.000
248.094;   89.200;  432.000;  308.000
248.236; -338.300;-1262.000;-1238.000
248.378;  -19.900; -356.000;  -81.000
248.521;  -16.800; -334.000; -337.000
248.663;  -52.000; -236.000; -267.000
248.806;  -54.200; -300.000; -266.000
248.948; -202.600; -886.000; -763.000
249.090;  -93.000; -428.000; -398.000
249.233;  -73.800; -344.000; -381.000
249.375; -137.800; -474.000; -451.000
249.518;  -11.800;  -83.000; -133.000
249.660;   -5.400; -103.000;    3.000
249.802; -340.700;-1303.000;-1189.000
249.945; -141.900; -612.000; -540.000
250.087; -225.000; -834.000; -768.000
250.229;  -78.000; -362.000; -480.000
250.371; -169.500; -494.000; -439.000
250.514;  -91.000; -310.000; -244.000
250.656; -128.200;   69.000;  102.000
250.798; -266.900; -849.000; -800.000
250.940; -113.800; -322.000; -322.000
251.083;  -37.400; -335.000; -111.000
251.225;  134.800;  338.000;  310.000
251.367;  -90.100; -274.000; -373.000
251.509;  -69.000; -265.000; -210.000
251.651; -207.400; -731.000; -671.000
251.794;  159.400;  538.000;  632.000
251.936; -209.900; -821.000; -747.000
252.078; -152.500; -540.000; -461.000
252.220; -135.600; -645.000; -477.000
252.362;  149.500;  344.000;  462.000
252.504; -137.600; -677.000; -584.000
252.646; -219.900; -875.000; -722.000
252.788;    0.200;   14.000; -128.000
252.931;  -64.600; -257.000; -253.000
253.073;  -70.500; -376.000; -317.000
253.215;   47.300;  141.000;  122.000
253.357;   -0.300;   82.000; -153.000
253.499;  -86.100; -374.000; -234.000
253.641; -172.800; -749.000; -594.000
253.783; -161.100; -609.000; -527.000
253.925; -150.800; -586.000; -591.000
254.067; -242.700; -744.000; -667.000
254.209;  -47.600; -391.000; -259.000
254.351; -258.200; -865.000; -883.000
254.493; -123.500; -441.000; -417.000
254.635; -234.700; -936.000; -818.000
254.777; -166.000; -752.000; -687.000
254.918; -145.200; -512.000; -430.000
255.060;  -90.100; -551.000; -395.000
255.202; -126.200; -473.000; -261.000
255.344; -155.800; -658.000; -455.000
255.486; -119.500; -471.000; -406.000
255.628; -213.900; -780.000; -781.000
255.770; -172.200; -676.000; -536.000
255.912; -144.100; -559.000; -468.000
256.053; -162.900; -730.000; -508.000
256.195;  355.000; 1008.000;  903.000
256.337; -192.200; -861.000; -595.000
256.479;  119.300;  532.000;  416.000
256.621;  -71.100; -394.000; -212.000
256.762; -166.100; -789.000; -742.000
256.904;   96.700;  485.000;  487.000
257.046;  -79.900; -381.000; -271.000
257.188;  -57.200; -351.000; -264.000
257.329; -140.500; -525.000; -464.000
257.471; -221.300; -939.000; -807.000
257.613; -101.800; -584.000; -498.000
257.755; -312.400;-1073.000; -982.000
257.896;   97.000;  286.000;  392.000
258.038; -131.600; -403.000; -352.000
258.180;  -24.200; -354.000; -279.000
258.321; -156.700; -581.000; -457.000
258.463;   17.200;  -71.000;  133.000
258.605; -151.700; -562.000; -570.000
258.746; -205.500; -886.000; -772.000
258.888; -303.700;-1026.000;-1020.000
259.029;   63.800;  121.000;   -8.000
259.171; -188.100; -614.000; -550.000
259.313;   12.600;  -49.000;  -47.000
259.454; -134.400; -536.000; -414.000
259.596;  -49.800; -483.000; -390.000
259.737; -124.600; -590.000; -474.000
259.879;   78.300;  217.000;  311.000
260.020;  237.900;  901.000;  636.000
260.162;  -26.800; -146.000; -253.000
260.303; -242.200; -768.000; -687.000
260.445; -167.000; -609.000; -613.000
260.586;  102.700;  392.000;  157.000
260.728;  -89.600; -360.000; -248.000
260.869; -146.400; -350.000; -343.000
261.011;  176.100;  706.000;  537.000
261.152; -125.300; -479.000; -319.000
261.293; -177.000; -576.000; -595.000
261.435;  -64.800; -219.000; -184.000
261.576;  -86.800; -455.000; -325.000
261.718;  126.600;  420.000;  470.000
261.859; -247.200; -940.000; -949.000
262.000; -265.400; -951.000;-1016.000
262.142;  -18.300;  -52.000;  -60.000
262.283; -219.500; -808.000; -691.000
262.424; -155.900; -666.000; -625.000
262.566; -300.100;-1161.000; -983.000
262.707; -261.700; -840.000; -830.000
262.848; -223.700; -769.000; -726.000
262.990;  -93.700; -362.000; -345.000
263.131;  187.800;  650.000;  681.000
263.272;    0.200;  -61.000;  -41.000
263.413; -180.200; -589.000; -561.000
263.555; -123.700; -669.000; -143.000
263.696; -122.400; -550.000; -641.000
263.837;  -64.400; -449.000; -551.000
263.978;    9.100;   -5.000;  -77.000
264.119;  -66.600; -283.000; -264.000
264.261; -222.000; -847.000; -630.000
264.402;  -24.000;   33.000;   40.000
264.543; -126.200; -509.000; -524.000
264.684;    5.100;   61.000;  -50.000
264.825; -127.100; -816.000; -538.000
264.966;    6.400;  -84.000;  -67.000
265.107; -240.900; -646.000; -670.000
265.248; -225.100; -825.000; -812.000
265.390;   22.400;  152.000;   -9.000
265.531;  -32.500; -238.000; -107.000
265.672; -167.900; -557.000; -630.000
265.813;  146.800;  563.000;  439.000
265.954; -289.500; -959.000; -940.000
266.095;  -44.400; -372.000; -322.000
266.236; -177.600; -686.000; -548.000
266.377;  -64.300; -243.000; -297.000
266.518; -121.000; -619.000; -547.000
266.659;  118.700;  170.000;  268.000
266.800;   31.100;   83.000;   85.000
266.941; -132.000; -487.000; -478.000
267.082;   41.700;  354.000;   99.000
267.223;  -77.200; -344.000; -273.000
267.364; -218.500; -892.000; -686.000
267.504;    5.900;    3.000;  135.000
267.645;   -1.900;  160.000;   67.000
267.786;  -35.100; -147.000;  -86.000
267.927; -120.600; -473.000; -379.000
268.068;  -27.200; -186.000;  -61.000
268.209;  -78.700; -175.000; -413.000
268.350;  -93.800; -388.000; -532.000
268.490; -146.500; -648.000; -521.000
268.631;   90.600;  127.000;  225.000
268.772; -213.100; -874.000; -647.000
268.913;  -74.000; -328.000; -476.000
269.054;   -4.900; -117.000;   12.000
269.194;  -92.300; -418.000; -402.000
269.335; -290.900;-1137.000;-1074.000
269.476;   15.400;   33.000;  -35.000
269.617;  -68.100; -347.000; -392.000
269.757; -147.300; -713.000; -646.000
269.898; -205.700; -856.000; -613.000
270.039; -104.200; -415.000; -405.000
270.180; -267.500; -952.000; -816.000
270.320;  -69.900; -190.000; -250.000
270.461;  -88.000; -277.000; -249.000
270.602;  -21.800; -186.000; -156.000
270.742; -244.400; -868.000; -943.000
270.883; -119.000; -442.000; -390.000
271.023;  -93.800; -358.000; -357.000
271.164; -133.700; -607.000; -528.000
271.305; -202.500; -666.000; -654.000
271.445; -173.800; -722.000; -683.000
271.586; -110.200; -462.000; -283.000
271.726;  -98.300; -397.000; -322.000
271.867; -112.600; -594.000; -534.000
272.008;  320.700; -473.000; -285.000
272.148;  227.200;  462.000;  468.000
272.289;   59.800; -113.000; -181.000
272.429;   41.600;   19.000;  185.000
272.570; -200.100; -633.000; -737.000
272.710; -187.700; -825.000; -775.000
272.851;  -21.400;  113.000; -130.000
272.991; -329.600;-1173.000;-1077.000
273.131; -104.700; -419.000; -459.000
273.272; -193.300; -683.000; -723.000
273.412;    4.400; -143.000;  -31.000
273.553;  -78.700; -488.000; -507.000
273.693;  301.500;  913.000;  858.000
273.834; -188.800; -894.000; -692.000
273.974; -126.400; -664.000; -615.000
274.114; -190.700; -772.000; -560.000
274.255;  171.700;  414.000;  373.000
274.395;   33.000; -180.000; -125.000
274.535;  146.800;  199.000;  350.000
274.676;   59.400;  225.000;   94.000
274.816;   27.000;  110.000;   34.000
274.956; -160.500; -624.000; -690.000
275.097; -157.300;-1014.000; -922.000
275.237; -197.800; -913.000; -803.000
275.377; -195.000; -778.000; -689.000
275.517; -302.600; -878.000; -937.000
275.658; -116.900; -590.000; -555.000
275.798; -131.200; -606.000; -413.000
275.938;   49.400;  215.000;  323.000
276.078; -164.800; -626.000; -395.000
276.218;   -3.200;   99.000;  104.000
276.359; -248.600;-1026.000;-1024.000
276.499; -126.000; -605.000; -446.000
276.639;  -52.500; -305.000; -151.000
276.779;  -78.200; -475.000; -357.000
276.919; -205.100; -783.000; -624.000
277.059;  -31.300; -261.000; -212.000
277.199;  -82.100; -357.000; -259.000
277.340;  118.100;  287.000;  175.000
277.480; -214.100; -840.000; -693.000
277.620;   70.500;  192.000;   16.000
277.760; -365.200;-1533.000;-1294.000
277.900;   45.400;  113.000;   33.000
278.040;   67.400;  137.000;  159.000
278.180;  113.500;  270.000;  170.000
278.320;   15.500;   21.000;   56.000
278.460; -114.100; -443.000; -469.000
278.600; -170.200; -708.000; -598.000
278.740;  134.300;  448.000;  224.000
278.880; -112.100; -768.000; -791.000
279.020;   33.400; -194.000; -144.000
279.160; -169.600; -672.000; -595.000
279.300; -245.000; -926.000; -873.000
279.440; -183.300; -709.000; -622.000
279.579;  -52.200;-1014.000; -929.000
279.719;  -77.000; -410.000; -394.000
279.859;  135.200;   -4.000;   41.000
279.999;   68.400; -208.000;  101.000
280.139;  -16.400; -435.000; -387.000
280.279; -128.800; -708.000; -745.000
280.419;  -28.200; -229.000; -147.000
280.559;  -23.300; -259.000; -180.000
280.698; -146.400; -790.000; -639.000
280.838; -186.400; -778.000; -800.000
280.978; -183.100; -846.000; -790.000
281.118; -207.000; -811.000; -704.000
281.257;   57.500;   24.000;    6.000
281.397; -230.400;-1094.000; -960.000
281.537; -156.300; -599.000; -712.000
281.677;   12.400; -150.000; -101.000
281.816; -148.400; -700.000; -630.000
281.956;  -42.100; -193.000; -257.000
282.096; -115.800; -539.000; -396.000
282.235; -192.400; -672.000; -638.000
282.375;   -9.300; -243.000;  -98.000
282.515; -178.200; -715.000; -707.000
282.654;   40.200;   29.000;  106.000
282.794;   92.100;  388.000;  244.000
282.934; -105.300; -530.000; -491.000
283.073; -244.900;-1030.000; -857.000
283.213;  -93.000; -460.000; -467.000
283.353;  -80.300; -408.000; -349.000
283.492;  -58.800; -264.000; -296.000
283.632;  -71.600; -254.000; -168.000
283.771; -170.400; -859.000; -730.000
283.911;  -71.300; -369.000; -260.000
284.050; -206.400; -794.000; -748.000
284.190; -327.700;-1229.000;-1096.000
284.329; -248.100;-1055.000; -964.000
284.469; -139.600; -516.000; -591.000
284.608;  -98.300; -559.000; -598.000
284.748; -141.600; -614.000; -570.000
284.887;   29.200;  -87.000;  -20.000
285.027; -242.500; -844.000; -892.000
285.166;  -20.600; -192.000; -249.000
285.306;   15.100; -116.000;  -33.000
285.445;  -47.400; -229.000; -343.000
285.584; -123.900; -630.000; -494.000
285.724;  -88.600; -282.000; -322.000
285.863; -200.300; -857.000; -507.000
286.002;  -80.900; -366.000; -276.000
286.142; -186.800; -715.000; -622.000
286.281; -129.900; -525.000; -493.000
286.420; -128.100; -554.000; -417.000
286.560;  226.500;  653.000;  623.000
286.699; -273.900; -958.000; -912.000
286.838; -127.500; -590.000; -591.000
286.978; -168.200; -533.000; -537.000
287.117; -254.400;-1085.000; -950.000
287.256;  -55.200; -228.000; -211.000
287.395;  -99.400; -197.000; -378.000
287.535;  -82.500; -370.000; -298.000
287.674; -147.800; -509.000; -484.000
287.813;  104.000;  661.000;  533.000
287.952; -259.400;-1010.000; -871.000
288.091; -306.300;-1049.000; -915.000
288.231;   57.800;   13.000;   15.000
288.370; -322.600;-1217.000;-1200.000
288.509; -154.900; -728.000; -645.000
288.648; -169.400; -770.000; -548.000
288.787;  -31.700; -243.000;  -87.000
288.926;  -93.000; -454.000; -475.000
289.065;  235.800;  859.000;  672.000
289.204;  -66.900; -377.000; -217.000
289.344; -195.800; -791.000; -690.000
289.483;   74.100;  416.000;  304.000
289.622;  -24.500; -291.000; -149.000
289.761;  -17.900; -309.000; -166.000
289.900; -209.000; -785.000; -626.000
290.039;  -12.600;  -12.000;  -95.000
290.178;  -80.300; -274.000; -180.000
290.317; -122.200; -618.000; -479.000
290.456; -110.000; -463.000; -451.000
290.595; -255.400; -961.000; -833.000
290.734; -262.200; -904.000; -891.000
290.873; -135.500; -456.000; -420.000
291.011; -183.700; -833.000; -843.000
291.150; -198.000; -770.000; -682.000
291.289;  -29.200; -343.000; -110.000
291.428; -167.100; -599.000; -480.000
291.567; -102.200; -370.000; -442.000
291.706;   17.500;  109.000;  154.000
291.845; -147.900; -597.000; -505.000
291.984; -311.000;-1234.000;-1061.000
292.122;  172.600;  602.000;  582.000
292.261;  135.300;  620.000;  463.000
292.400;   24.400; -144.000;  211.000
292.539; -224.600; -959.000; -813.000
292.678;  -62.200; -325.000; -300.000
292.816; -320.600;-1136.000; -965.000
292.955; -180.900; -844.000; -684.000
293.094;  -16.200; -173.000; -337.000
293.233;  -93.400; -556.000; -400.000
293.371;  -69.900; -225.000;  -84.000
293.510; -196.400; -866.000; -780.000
293.649; -234.200; -959.000; -924.000
293.787; -140.800;-1083.000;-1012.000
293.926;    2.000; -113.000;  -32.000
294.065;  -78.300; -379.000; -290.000
294.203;  147.300;  298.000;  406.000
294.342;   63.900;   74.000;  156.000
294.481;11776.900;51180.000; -836.000
294.619;  -43.600; -425.000; -582.000
294.758; -285.800;-1230.000;-1137.000
294.896;  133.600; -125.000;    5.000
295.035; -248.700;-1040.000;-1006.000
295.174; -251.900;-1082.000; -954.000
295.312;  -71.700; -323.000; -203.000
295.451;    6.600; -307.000; -428.000
295.589;  -70.900; -389.000; -518.000
295.728;   76.700; -292.000; -165.000
295.866;   26.900;  -36.000;  -51.000
296.005; -110.300; -584.000; -341.000
296.143; -126.700; -558.000; -596.000
296.282; -200.800; -957.000; -881.000
296.420; -176.500; -657.000; -557.000
296.559; -138.000; -892.000; -633.000
296.697;   13.900; -847.000; -665.000
296.835;   68.300;-1141.000;-1002.000
296.974;  118.100;  -23.000;   39.000
297.112;   39.100; -443.000; -504.000
297.251; -122.600; -815.000; -755.000
297.389;  138.700; -576.000; -438.000
297.527;   95.900; -145.000;  -83.000
297.666;  -76.500; -486.000; -438.000
297.804;  -65.400; -404.000; -264.000
297.942;   -6.500; -136.000; -161.000
298.081;   43.400; -183.000;   63.000
298.219;  100.700;  -17.000;  -19.000
298.357;  111.600; -144.000;  -71.000
298.495;   69.500; -810.000; -812.000
298.634;  124.300;  245.000;  219.000
298.772;   90.000; -220.000; -338.000
298.910;  -29.200; -309.000; -182.000
299.048;   -4.000; -130.000; -153.000
299.187;  -27.500; -350.000; -250.000
299.325;   70.300;   52.000;  122.000
299.463;   50.300; -389.000; -299.000
299.601;  193.900; -327.000; -271.000
299.739; -203.400; -908.000; -883.000
299.877; -192.200; -791.000; -703.000
300.016; -116.800;-1095.000; -935.000
300.154;  301.400;  -19.000; -161.000
300.292;   76.800; -428.000; -348.000
300.430;   45.800; -408.000; -291.000
300.568; -200.500; -940.000; -874.000
300.706;  -75.500; -366.000; -469.000
300.844; -178.000;-1108.000; -979.000
300.982;  206.000;  246.000;  282.000
301.120; -221.600; -965.000; -866.000
301.258; -144.500; -812.000; -705.000
301.396;   96.200;  104.000;  -41.000
301.534;  120.300; -218.000; -293.000
301.672;   -4.100; -664.000; -521.000
301.810;   38.200; -613.000; -545.000
301.948;  262.600;   53.000;  149.000
302.086; 1001.100; -250.000;  -32.000
302.224; 1566.800; -610.000; -585.000
302.362;   62.900; -558.000; -622.000
302.500;  -69.600; -923.000; -893.000
302.638;  253.600;  128.000;  245.000
302.776;    3.000; -352.000; -408.000
302.913;  123.500;  447.000;  236.000
303.051;   73.400;  -86.000;  -23.000
303.189;  131.400;   90.000;  118.000
303.327;  -18.700; -341.000; -256.000
303.465; -151.000; -832.000; -588.000
303.603; -157.600; -805.000; -604.000
303.740;  178.100;  417.000;  241.000
303.878;   15.500; -800.000; -759.000
304.016; -160.300; -915.000; -790.000
304.154; -232.000;-1123.000;-1152.000
304.291;  -64.300; -505.000; -554.000
304.429;   51.700;  102.000;   74.000
304.567; -239.900; -908.000; -893.000
304.705; -103.300; -408.000; -515.000
304.842;  160.000; -616.000; -540.000
304.980;  114.800;  215.000;   35.000
305.118;   89.400; -367.000; -365.000
305.255; -180.500; -945.000; -927.000
305.393;  118.100;  178.000;  239.000
305.531; -186.200;-1173.000; -956.000
305.668; -138.000; -663.000; -582.000
305.806;  171.400; -358.000; -439.000
305.943;  163.700; -629.000; -637.000
306.081;  141.500; -378.000; -267.000
306.219; -176.800; -863.000; -748.000
306.356;   66.500;  158.000;   27.000
306.494;  267.600;  981.000;  761.000
306.631;   49.900;  -11.000;  -55.000
306.769;   14.800; -613.000; -485.000
306.906;   -4.800; -284.000; -258.000
307.044;  -82.300; -473.000; -488.000
307.181; -113.000; -410.000; -332.000
307.319;  170.800;  112.000;   87.000
307.456; -298.900;-1191.000;-1153.000
307.594; -189.700; -980.000; -727.000
307.731;    6.100; -371.000; -164.000
307.868;   45.900;  -15.000;   20.000
308.006; -271.000; -961.000; -847.000
308.143; -132.500; -618.000; -330.000
308.281;  405.600;  -37.000; -254.000
308.418;   35.300; -748.000; -640.000
308.555; -105.900; -400.000; -250.000
308.693; -101.700; -577.000; -573.000
308.830; -193.600; -712.000; -657.000
308.967;    0.300; -215.000;  -95.000
309.105;  -35.000; -507.000; -396.000
309.242;  112.800; -468.000; -367.000
309.379;  737.300; -577.000; -655.000
309.517;  -50.500; -936.000; -948.000
309.654; -179.200; -910.000; -734.000
309.791; -100.500; -662.000; -580.000
309.928; -198.300; -977.000; -914.000
310.065;  395.200;  819.000;  697.000
310.203;  -48.700; -825.000; -850.000
310.340;   -7.800; -465.000; -321.000
310.477;  -98.700; -412.000; -516.000
310.614;  -97.100; -383.000; -473.000
310.751; -131.400; -427.000; -518.000
310.889;   -6.200;    1.000;   11.000
311.026; -261.200;-1161.000; -939.000
311.163;  -70.400; -386.000; -380.000
311.300; -118.200; -512.000; -479.000
311.437; -129.500; -658.000; -619.000
311.574; -263.700;-1226.000; -985.000
311.711; -101.300; -595.000; -433.000
311.848;  -37.000; -380.000; -388.000
311.985;   75.600;  270.000;   93.000
312.122; -176.000; -932.000; -762.000
312.259; -203.000; -941.000; -994.000
312.396;  -89.100; -508.000; -551.000
312.533; -165.500; -812.000; -790.000
312.670; -231.100;-1070.000; -898.000
312.807;  -11.000; -352.000; -367.000
312.944; -106.900; -513.000; -611.000
313.081;  -10.400; -150.000; -415.000
313.218; -161.300;-1111.000; -867.000
313.355;   50.700; -531.000; -449.000
313.492;   54.800; -455.000; -292.000
313.629;  252.400;  815.000;  735.000
313.766; -309.500;-1176.000;-1008.000
313.902;  -27.100; -186.000;   21.000
314.039;  -48.200; -372.000; -289.000
314.176;   92.000;  286.000;  192.000
314.313; -125.300; -569.000; -473.000
314.450; -111.700; -788.000; -684.000
314.587; -113.800; -468.000; -480.000
314.723;   25.500;  -78.000;  130.000
314.860;  115.800;  318.000;  332.000
314.997;   79.700;  223.000;  142.000
315.134;  -49.200; -385.000; -368.000
315.270;  -19.000; -480.000; -496.000
315.407; -236.000;-1094.000; -967.000
315.544;  -92.900; -657.000; -538.000
315.681; -111.600; -681.000; -565.000
315.817;  125.700; -133.000; -176.000
315.954;   17.500; -613.000; -392.000
316.091; -258.500;-1045.000;-1023.000
316.227;  -24.800;  -71.000; -179.000
316.364;   33.600;   23.000;    6.000
316.500;  -44.100; -113.000; -300.000
316.637;  -35.500; -181.000; -302.000
316.774; -145.100; -625.000; -358.000
316.910; -161.700; -598.000; -629.000
317.047;  -86.500; -487.000; -351.000
317.183;  -61.900; -435.000; -566.000
317.320;    1.900; -367.000; -321.000
317.456; -131.100; -733.000; -805.000
317.593; -134.300; -598.000; -641.000
317.729;   20.200;  168.000;  -67.000
317.866; -378.600;-1434.000;-1285.000
318.002; -151.500; -708.000; -948.000
318.139; -147.200; -883.000; -867.000
318.275; -152.600;-1003.000; -738.000
318.412;  -99.800; -517.000; -336.000
318.548;  -72.700; -751.000; -720.000
318.685; -169.100; -985.000; -888.000
318.821; -129.900; -762.000; -735.000
318.957;  -41.300;   34.000;  -23.000
319.094;  126.100;  297.000;  154.000
319.230;  -92.800; -756.000; -742.000
319.367;  220.100; -471.000; -520.000
319.503;  119.300; -538.000; -436.000
319.639; -159.900; -877.000; -793.000
319.775; -107.400; -750.000; -685.000
319.912;  -68.600; -424.000; -519.000
320.048; -170.900;-1184.000;-1184.000
320.184;  193.200;   59.000;   70.000
320.321;  -81.700; -497.000; -467.000
320.457;  178.800;  475.000;  662.000
320.593;  -97.500; -375.000; -382.000
320.729; -178.700; -732.000; -734.000
320.866; -126.600; -577.000; -635.000
321.002; -140.000; -759.000; -809.000
321.138;  -12.300; -135.000; -211.000
321.274;  142.800; -148.000; -115.000
321.410;  -36.400; -585.000; -353.000
321.546;  -90.500;-1011.000; -911.000
321.683;  158.800;  400.000;  185.000
321.819;    8.500;  -48.000; -117.000
321.955; -216.700; -743.000; -722.000
322.091;  -32.200; -585.000; -540.000
322.227;    5.600; -382.000; -202.000
322.363;    4.400; -320.000; -215.000
322.499;  -82.700; -343.000; -331.000
322.635;  350.500;  636.000;  443.000
322.771;   81.200; -139.000;   12.000
322.907;  210.300;  129.000;  327.000
323.043;   -4.700; -115.000; -206.000
323.179;  -50.800; -394.000; -363.000
323.315;   36.200; -401.000; -371.000
323.451;  163.300; -328.000; -236.000
323.587;  171.000;  -60.000;  -77.000
323.723;   32.200; -682.000; -601.000
323.859;  -11.700; -258.000;  -76.000
323.995;  -45.100; -467.000; -409.000
324.131; -235.100; -967.000; -892.000
324.267;  -52.800; -254.000; -276.000
324.402; -243.500; -960.000; -983.000
324.538;   34.000; -279.000; -104.000
324.674;   75.700;  164.000;   77.000
324.810;  281.300;  226.000;  308.000
324.946;    2.500; -810.000; -658.000
325.082; -129.000; -568.000; -475.000
325.217;   20.200;  -62.000;   16.000
325.353; -173.900; -764.000; -659.000
325.489; -142.800; -540.000; -506.000
325.625;  -90.900; -579.000; -525.000
325.760;  206.500;  517.000;  376.000
325.896;  -10.800; -515.000; -702.000
326.032;  -63.300; -403.000; -352.000
326.168;  -83.000; -462.000; -369.000
326.303;  -90.200; -352.000; -461.000
326.439;   -4.600; -336.000; -276.000
326.575;   33.900; -190.000;  -29.000
326.710;    9.800; -156.000;  -30.000
326.846;   14.900;  146.000;  103.000
326.982; -166.300; -530.000; -548.000
327.117; -118.000; -481.000; -442.000
327.253; -149.300; -745.000; -742.000
327.388; -228.900;-1137.000;-1153.000
327.524;  -67.300; -811.000; -578.000
327.659;  -23.800;  -58.000;  -22.000
327.795;   21.200;   69.000;   45.000
327.931; -128.200; -723.000; -499.000
328.066;  -10.500; -417.000; -276.000
328.202;   20.800;   12.000; -129.000
328.337;  243.800;  957.000;  713.000
328.473;   28.100;  -12.000;  -74.000
328.608;    4.700; -256.000; -267.000
328.743; -172.100; -799.000; -664.000
328.879;   47.600;  214.000;  114.000
329.014;  -95.100; -102.000; -122.000
329.150; -131.700; -358.000; -483.000
329.285; -134.500; -465.000; -466.000
329.421;  -42.500; -548.000; -246.000
329.556;  -17.200;  -36.000;   85.000
329.691; -140.000; -633.000; -615.000
329.827; -135.200; -626.000; -480.000
329.962;  -41.800;  131.000; -301.000
330.097; -125.100; -673.000; -585.000
330.233;  -57.000; -410.000; -223.000
330.368; -224.500; -839.000; -628.000
330.503;    3.900;    3.000;   98.000
330.638;   22.000;  -93.000; -125.000
330.774;  -67.500; -609.000; -530.000
330.909;  -51.200; -434.000; -244.000
331.044; -128.900; -714.000; -708.000
331.179; -347.500;-1217.000;-1109.000
331.315;   69.200;   77.000;   20.000
331.450;   36.300;  157.000;  285.000
331.585; -145.900; -805.000; -706.000
331.720; -141.200; -510.000; -460.000
331.855;   25.500;  -35.000; -102.000
331.990;  495.700;   62.000;  138.000
332.126;  316.400; -110.000;   71.000
332.261;    4.600; -379.000; -265.000
332.396;   45.000; -135.000; -242.000
332.531; -145.000;-1074.000;-1031.000
332.666;   80.500; -519.000; -363.000
332.801; -168.200; -726.000; -807.000
332.936;  -24.800; -192.000; -122.000
333.071; -239.000; -870.000; -817.000
333.206;   77.800;  307.000;  379.000
333.341;  113.400;  344.000;  418.000
333.476; -133.000; -627.000; -623.000
333.611;  -19.300; -251.000; -173.000
333.746;  -76.200; -381.000; -464.000
333.881; -227.200; -973.000; -935.000
334.016; -235.700; -936.000; -917.000
334.151; -222.100; -746.000; -702.000
334.286;  104.200;  152.000;  186.000
334.421;    9.900; -125.000; -178.000
334.556; -127.200; -611.000; -567.000
334.690; -142.300; -631.000; -577.000
334.825;  138.000;  381.000;   83.000
334.960;  -77.700; -285.000; -413.000
335.095;   47.600;  135.000;  -91.000
335.230; -199.600; -722.000; -738.000
335.365; -250.300;-1084.000; -990.000
335.499; -280.700;-1108.000;-1037.000
335.634;   93.500;    9.000;  534.000
335.769; -156.700; -755.000; -720.000
335.904; -102.800; -603.000; -561.000
336.038; -107.200; -735.000; -657.000
336.173; -245.200;-1206.000;-1194.000
336.308;   21.100; -116.000; -189.000
336.443;   46.200; -544.000; -634.000
336.577; -139.800; -936.000; -787.000
336.712;  120.600;   -4.000;  -12.000
336.847;  -67.700; -724.000; -607.000
336.981;  108.800; -272.000; -208.000
337.116;  537.000;  615.000;  501.000
337.250;  271.000; -434.000; -421.000
337.385;  536.900; -297.000; -208.000
337.520;  212.500; -632.000; -603.000
337.654;  -56.000; -215.000; -126.000
337.789; -241.900; -989.000; -933.000
337.923;   -3.400; -104.000; -205.000
338.058; -152.500; -673.000; -738.000
338.192;  -67.300; -611.000; -488.000
338.327;    7.200;  -18.000; -155.000
338.461;  -75.600; -299.000; -469.000
338.596; -140.500; -780.000; -638.000
338.730; -177.700; -767.000; -803.000
338.865;  212.100;  -46.000; -140.000
338.999;  -64.200; -846.000; -702.000
339.134;  -72.500; -634.000; -536.000
339.268;   45.200; -741.000; -603.000
339.403;  679.400; -740.000; -775.000
339.537;  272.300; -894.000; -820.000
339.671; -160.700; -829.000; -813.000
339.806; -117.200; -556.000; -512.000
339.940;   80.200; -261.000; -235.000
340.074; -179.700; -685.000; -510.000
340.209;  -58.700; -351.000; -230.000
340.343; -159.200; -517.000; -573.000
340.477;  335.300;  998.000; 1036.000
340.612;  -81.900;-1033.000; -900.000
340.746;  311.400; -199.000; -243.000
340.880; -130.000; -924.000; -785.000
341.014;   16.900;  -45.000; -154.000
341.149; -197.500; -756.000; -718.000
341.283; -189.200; -839.000; -754.000
341.417; -221.600;-1124.000; -938.000
341.551;  174.200; -768.000; -708.000
341.685;  -27.600; -633.000; -611.000
341.820; -103.900; -562.000; -493.000
341.954;  -54.400; -218.000; -349.000
342.088; -300.200;-1102.000;-1019.000
342.222;  133.400;  565.000;  618.000
342.356;  -99.000; -395.000; -335.000
342.490; -197.500; -880.000; -841.000
342.624;  -49.900; -339.000; -242.000
342.758;   14.700; -364.000; -312.000
342.892; -129.900; -710.000; -585.000
343.026;   -7.900;  -58.000; -116.000
343.160;  -72.300; -426.000; -376.000
343.294; -144.900; -474.000; -337.000
343.428;  -39.400; -488.000; -448.000
343.562;   29.300; -172.000;  -23.000
343.696;    9.200; -385.000; -314.000
343.830;   -6.600; -362.000; -356.000
343.964;   55.400; -231.000; -168.000
344.098; 1528.200;  199.000;   70.000
344.232; 1283.800; -266.000; -127.000
344.366;  190.000; -567.000; -453.000
344.500;   91.500; -665.000; -744.000
344.634;   95.500; -324.000; -164.000
344.768;  -25.900; -531.000; -341.000
344.902;   72.300;  278.000;  256.000
345.035; -114.200; -556.000; -496.000
345.169; -233.600; -933.000; -656.000
345.303;  -37.400; -308.000; -482.000
345.437; -135.600; -826.000; -717.000
345.571; -109.900; -675.000; -594.000
345.704; -138.200; -309.000; -532.000
345.838;   -9.000; -331.000; -284.000
345.972;  -23.500; -543.000; -495.000
346.106;  332.200; -179.000; -190.000
346.239;  801.100; -312.000; -243.000
346.373;   30.900; -343.000; -302.000
346.507; -255.100; -950.000; -962.000
346.640;  246.500;  -30.000;   13.000
346.774; -117.300; -650.000; -797.000
346.908;   20.100; -138.000;  -11.000
347.041; -158.700; -646.000; -593.000
347.175;   37.400;  259.000;   27.000
347.309; -152.900; -698.000; -628.000
347.442; -195.100; -883.000; -732.000
347.576;  532.800;  670.000;  668.000
347.709;  339.700; -123.000;  -52.000
347.843; -205.500; -933.000; -825.000
347.976;   96.500;  235.000;  294.000
348.110; -336.200;-1268.000;-1186.000
348.243; -165.300; -679.000; -772.000
348.377;   56.900;  -26.000;   60.000
348.510;  146.900;  403.000;  540.000
348.644;  -45.500;  -37.000; -159.000
348.777;   50.600;  180.000;  191.000
348.911;  -38.300; -142.000; -112.000
349.044;  356.600;  471.000;  448.000
349.178;  266.000;-1069.000;-1006.000
349.311;  243.600;  141.000;  255.000
349.444;  -12.000; -927.000; -813.000
349.578;    3.400; -347.000; -200.000
349.711; -202.300; -959.000; -862.000
349.845;  -25.400; -661.000; -591.000
349.978; -267.500;-1224.000;-1137.000
350.111; -130.100; -546.000; -612.000
350.244; -124.900; -596.000; -700.000
350.378;   13.400; -392.000; -393.000
350.511; -108.300; -393.000; -426.000
350.644; -165.800; -808.000; -806.000
350.778;   10.900;  168.000;  104.000
350.911;   21.900;  134.000;  140.000
351.044; -168.000; -685.000; -615.000
351.177;   -1.200; -321.000; -281.000
351.310;   -9.900;    3.000; -131.000
351.444; -149.100; -888.000; -788.000
351.577;  229.900;  140.000;   90.000
351.710;  248.900;  593.000;  417.000
351.843;  -39.300; -165.000;  -77.000
351.976;   54.300;  149.000;  -79.000
352.109; -187.900; -621.000; -612.000
352.242;  -37.900; -464.000; -419.000
352.376; -137.900; -580.000; -636.000
352.509;  239.400; -437.000; -356.000
352.642;  -54.800; -654.000; -604.000
352.775;   85.000; -141.000;  -98.000
352.908; -194.000; -933.000; -904.000
353.041; -187.000; -814.000; -824.000
353.174; -111.400; -551.000; -424.000
353.307; -154.700; -753.000; -764.000
353.440;  172.700;  541.000;  453.000
353.573; -196.500; -957.000;-1008.000
353.706;  -93.400; -384.000; -558.000
353.839;  -21.800; -264.000; -220.000
353.971; -143.100; -657.000; -512.000
354.104; -142.300; -896.000; -835.000
354.237;  -44.700; -627.000; -662.000
354.370; -163.300; -846.000; -879.000
354.503; -364.200;-1231.000;-1308.000
354.636;  -52.600; -529.000; -348.000
354.769; -238.100; -937.000; -860.000
354.902;    2.600; -230.000; -139.000
355.034;   35.500; -164.000; -220.000
355.167;  -12.000; -262.000; -162.000
355.300; -160.900;-1061.000; -880.000
355.433; 1879.700;  -71.000;  -14.000
355.565; 2930.400; -402.000; -384.000
355.698;  777.700; -356.000; -296.000
355.831;  -15.900; -882.000; -801.000
355.964;  142.000; -285.000; -170.000
356.096; -136.100; -856.000; -843.000
356.229;    8.300; -523.000; -530.000
356.362;  664.000; -373.000; -266.000
356.494; 1156.900; -229.000; -162.000
356.627;  912.600;  269.000;  377.000
356.760; 1301.300;  120.000;   53.000
356.892; 1878.700; -286.000; -601.000
357.025; 1143.500;  403.000;  389.000
357.157; 1003.600; -167.000; -179.000
357.290; 1322.200; -856.000; -713.000
357.423;  406.400; -667.000; -556.000
357.555;  200.900; -217.000; -228.000
357.688;  214.700; -483.000; -364.000
357.820;  705.400; -870.000; -877.000
357.953; 6017.000; -563.000; -589.000
358.085; 1275.700; -632.000; -612.000
358.218; 1844.400;-1131.000; -932.000
358.350;  364.000;  -58.000;  312.000
358.483; -234.100;-1300.000;-1187.000
358.615;  -37.400;-1182.000;-1078.000
358.747; -114.100;-1187.000;-1058.000
358.880;   41.600; -810.000; -744.000
359.012;   39.300; -376.000; -202.000
359.145;  -70.200; -480.000; -511.000
359.277;   95.700; -962.000; -913.000
359.409; 4987.000;  536.000;  231.000
359.542; 1265.600; -738.000; -688.000
359.674;  158.900;   46.000;   13.000
359.806;  -73.300; -565.000; -438.000
359.939;  -40.100; -617.000; -516.000
360.071;    0.800; -583.000; -579.000
360.203;    4.100; -411.000; -364.000
360.335;  134.200;  164.000;  -16.000
360.468;  339.900; -249.000; -307.000
360.600; 4072.600; -547.000; -454.000
360.732; 5426.400; -546.000; -423.000
360.864;  728.400;-1216.000;-1044.000
360.996;  456.400; -516.000; -554.000
361.129;   76.700; -389.000; -598.000
361.261;   85.400;  110.000; -113.000
361.393;  -19.300; -252.000; -214.000
361.525;   96.400;   94.000;  244.000
361.657;  -77.600; -821.000; -703.000
361.789;   47.700; -139.000; -155.000
361.921;  392.600; -642.000; -593.000
362.053;  487.900;  524.000;  541.000
362.185;  117.600;  288.000;   72.000
362.318; -136.900; -709.000; -705.000
362.450;  243.300;  294.000;  444.000
362.582;  109.000; -913.000; -870.000
362.714;  -70.000; -353.000; -332.000
362.846;  -91.700; -606.000; -490.000
362.978; -211.800; -941.000; -811.000
363.109;   93.000; -161.000; -260.000
363.241;  756.600; -739.000; -749.000
363.373;  861.100; -649.000; -564.000
363.505; 1343.600; -186.000;  -91.000
363.637;  318.600; -787.000; -601.000
363.769; -214.000;-1067.000;-1080.000
363.901;  -83.800; -596.000; -654.000
364.033; -210.400;-1103.000;-1062.000
364.165;   19.600; -283.000; -283.000
364.296;  193.200; -316.000; -177.000
364.428;  167.500;-1344.000;-1220.000
364.560;  -98.500; -679.000; -661.000
364.692;  -92.600; -738.000; -835.000
364.824;  432.500; -588.000; -456.000
364.955;  864.700; -402.000; -564.000
365.087; 1870.000;-1097.000; -852.000
365.219;   75.700; -686.000; -816.000
365.351; -123.700; -526.000; -572.000
365.482;  126.400;  300.000;  240.000
365.614;  -25.000; -402.000; -314.000
365.746; -154.800; -729.000; -752.000
365.877; -158.100; -706.000; -672.000
366.009;  569.400;  -35.000;  -62.000
366.141; -154.600;-1249.000;-1134.000
366.272; -180.500; -803.000; -719.000
366.404; -187.900;-1005.000; -874.000
366.535;   43.200; -139.000;  -12.000
366.667; -185.200; -644.000; -649.000
366.799;  135.400;  353.000;  203.000
366.930; -199.700; -862.000; -996.000
367.062;  265.400; -639.000; -613.000
367.193;  311.100; -872.000; -842.000
367.325; -107.300; -580.000; -684.000
367.456;  124.000; -246.000;   31.000
367.588;  330.400; -371.000; -318.000
367.719;   71.900;  -44.000;  -45.000
367.851;  -20.600; -222.000; -241.000
367.982;  -94.300; -875.000; -732.000
368.113;  171.000; -475.000; -358.000
368.245; -210.700; -960.000; -841.000
368.376;  -44.000; -254.000; -302.000
368.508;  -34.000; -188.000; -263.000
368.639; -265.300;-1166.000;-1034.000
368.770;  -25.600; -670.000; -589.000
368.902; -112.400; -836.000; -926.000
369.033; -191.900; -906.000; -855.000
369.164;  -92.400; -720.000; -653.000
369.296; -177.200; -452.000; -601.000
369.427;   55.200; -209.000; -144.000
369.558;  -70.800; -593.000; -377.000
369.689; -107.500; -721.000; -569.000
369.821; -211.000; -951.000; -845.000
369.952;    0.800;   42.000; -108.000
370.083;  -56.600; -229.000; -108.000
370.214; -128.000; -735.000; -650.000
370.345;   34.300;   65.000;   81.000
370.477; -134.500; -810.000; -790.000
370.608;  375.500; -328.000; -264.000
370.739; -138.400;-1233.000;-1292.000
370.870;  -94.600;-1102.000; -923.000
371.001;  152.500; -378.000; -467.000
371.132; -112.200; -754.000; -735.000
371.263;  -14.700;  -42.000; -148.000
371.394; -216.300; -841.000; -748.000
371.525;  115.200;  345.000;  225.000
371.657; -168.900; -808.000; -670.000
371.788;  173.800;  103.000;  199.000
371.919;  288.700; -384.000; -304.000
372.050; 5930.400;  -91.000; -156.000
372.181; 1716.900; -188.000; -294.000
372.311;  625.100;   42.000; -127.000
372.442;   37.500; -457.000; -451.000
372.573;    8.500; -444.000; -340.000
372.704; -182.500;-1008.000; -980.000
372.835;  183.800; -228.000; -289.000
372.966;  -91.000; -646.000; -554.000
373.097; -105.200; -575.000; -711.000
373.228;  -58.600; -717.000; -542.000
373.359;  237.900; -824.000; -536.000
373.490; 1534.800; -881.000; -727.000
373.620; 1870.500;-1001.000; -803.000
373.751; 2902.200; -332.000; -396.000
373.882; 1258.800; -663.000; -733.000
374.013;  115.100; -449.000; -262.000
374.143;  -81.500; -581.000; -659.000
374.274; -195.700; -987.000; -908.000
374.405;  348.000; -388.000; -276.000
374.536;  688.500; -526.000; -387.000
374.666; 1739.900; -759.000; -807.000
374.797;  330.400; -817.000; -868.000
374.928; 1401.100; -710.000; -560.000
375.058; 1464.800; -535.000; -500.000
375.189;  165.200;  -59.000;  -93.000
375.320; -195.000; -928.000;-1034.000
375.450;  -63.400; -625.000; -616.000
375.581;  -49.900; -526.000; -436.000
375.712;  -25.500; -574.000; -250.000
375.842;  537.800; -438.000; -415.000
375.973;  326.300; -554.000; -513.000
376.103;  -62.500; -665.000; -648.000
376.234; -108.700; -531.000; -552.000
376.364;  -96.500; -944.000; -867.000
376.495;  660.500;  925.000;  529.000
376.625;   24.800; -472.000; -485.000
376.756;  100.000; -709.000; -678.000
376.886; -128.300;-1178.000;-1026.000
377.017;  145.100;-1048.000;-1061.000
377.147;  733.600; -786.000; -782.000
377.278;  161.700;  174.000;  228.000
377.408; -209.700; -801.000; -815.000
377.538; -183.000; -707.000; -693.000
377.669; -124.500; -537.000; -613.000
377.799; -138.000; -645.000; -635.000
377.929;  -84.400; -610.000; -428.000
378.060; -220.000; -781.000; -847.000
378.190;  -69.800; -726.000; -531.000
378.320;  -52.600; -401.000; -406.000
378.451;   38.000; -131.000;  -22.000
378.581;   44.900;  -67.000; -110.000
378.711;  325.300; 1035.000;  866.000
378.841;  -35.200; -533.000; -675.000
378.972; -133.500; -871.000; -751.000
379.102;  -11.700; -652.000; -579.000
379.232;   -4.500; -126.000;  -73.000
379.362; -186.400;-1001.000; -885.000
379.492;   34.600; -373.000; -424.000
379.623;  220.900;    0.000;  111.000
379.753; -170.700;-1107.000; -974.000
379.883;  398.300;   59.000;  156.000
380.013;   -2.300;-1081.000;-1017.000
380.143; -213.600;-1097.000;-1056.000
380.273; -196.900; -985.000; -861.000
380.403;   23.400; -344.000; -257.000
380.533;  -75.500; -651.000; -664.000
380.663;  159.500;  173.000;  128.000
380.793; -177.100;-1027.000;-1074.000
380.923;    5.900; -103.000;  -34.000
381.053; -143.100; -613.000; -623.000
381.183;   -2.800; -106.000; -248.000
381.313;   33.900; -656.000; -470.000
381.443;   54.500; -692.000; -473.000
381.573;  353.800; -402.000; -409.000
381.703;  475.400;-1249.000;-1095.000
381.833; -271.500;-1454.000;-1336.000
381.963;  217.000; -134.000;  -87.000
382.093; 2327.200; -925.000; -909.000
382.223;  700.300; -713.000; -602.000
382.353;   -7.800; -801.000; -608.000
382.482;  597.400;-1091.000; -964.000
382.612; 1219.000; -872.000; -644.000
382.742;  703.100; -695.000; -622.000
382.872;  443.300; -565.000; -551.000
383.002;  149.100;  347.000; -132.000
383.131;   -2.300; -226.000; -160.000
383.261;  -42.300; -706.000; -768.000
383.391;  584.400; -552.000; -377.000
383.521; 6393.000;  451.000;  263.000
383.650; 1429.200; -947.000; -904.000
383.780;   -0.600; -783.000; -656.000
383.910;  268.900;  880.000;  802.000
384.039;   41.900; -794.000; -656.000
384.169;  305.100;-1205.000;-1017.000
384.299;  -25.000; -650.000; -662.000
384.428; -145.300; -764.000; -680.000
384.558;  -73.700; -308.000; -275.000
384.687;  -28.700; -414.000; -334.000
384.817;   82.200;   75.000;   -2.000
384.947;   88.300; -234.000; -141.000
385.076;  577.200;  982.000;  912.000
385.206;  269.500;  369.000;  480.000
385.335;  -46.600; -549.000; -417.000
385.465; -111.800; -655.000; -663.000
385.594;  272.100;  -53.000;  -44.000
385.724;  670.200; -868.000; -838.000
385.853;  188.300; -296.000; -270.000
385.982; 2234.700; -743.000; -787.000
386.112; 3346.600;-1052.000; -871.000
386.241;  237.200; -307.000; -312.000
386.371;   64.500; -174.000;  -87.000
386.500;   47.400; -825.000; -789.000
386.629;   71.200; -874.000; -817.000
386.759;  197.800;  -43.000;   68.000
386.888;    6.500; -170.000; -250.000
387.017;  -96.000; -648.000; -620.000
387.147; -100.100; -771.000; -798.000
387.276;   20.500; -410.000; -397.000
387.405;   66.000; -398.000; -342.000
387.535;  -72.600; -452.000; -361.000
387.664; -114.900; -692.000; -620.000
387.793;  178.900; -198.000; -113.000
387.922;  909.500;  255.000;  200.000
388.052;   34.600; -576.000; -423.000
388.181;   29.900; -342.000; -472.000
388.310;  -23.500; -889.000; -710.000
388.439;  -81.400; -749.000; -742.000
388.568;  325.500;  365.000;  244.000
388.697; 1640.700; -756.000; -653.000
388.826;  323.300; -768.000; -666.000
388.956;  132.600; -285.000; -307.000
389.085;   -4.800; -347.000; -287.000
389.214; -179.600; -842.000; -872.000
389.343;  -64.100; -645.000; -413.000
389.472;  870.000;  126.000;  149.000
389.601; 1019.200;   91.000;    0.000
389.730;   42.100; -568.000; -687.000
389.859;  158.100;  226.000;   46.000
389.988;  355.500; -423.000; -408.000
390.117;  257.300; -168.000; -146.000
390.246;   11.000; -331.000; -320.000
390.375;  214.400; -673.000; -626.000
390.504;  -96.800; -703.000; -621.000
390.633; -167.800; -672.000; -726.000
390.761;  -99.900; -732.000; -645.000
390.890;  100.000;   -4.000; -130.000
391.019;  -51.800; -421.000; -441.000
391.148; -204.900; -826.000; -855.000
391.277; -105.000; -576.000; -493.000
391.406; -148.900; -821.000; -805.000
391.534;   88.400;  574.000; -301.000
391.663;  -84.200; -583.000; -645.000
391.792; -144.700; -673.000; -701.000
391.921;  219.000;   -3.000;   15.000
392.050;  287.100; -287.000; -228.000
392.178; -105.600;-1206.000;-1061.000
392.307;  218.400; -758.000; -712.000
392.436;  118.500; -427.000; -641.000
392.564;   91.600;  166.000;   -6.000
392.693; -159.600; -860.000; -682.000
392.822;  356.500; -529.000; -534.000
392.950;  115.900; -880.000; -714.000
393.079;  556.300; -188.000; -328.000
393.208;   15.600; -488.000; -511.000
393.336;   20.700; -170.000; -145.000
393.465;  -61.100; -317.000; -199.000
393.593;   68.500;   62.000;   79.000
393.722; -238.900;-1121.000; -916.000
393.850;   -6.200; -188.000;  -61.000
393.979; -291.700; -926.000; -805.000
394.107;  -95.600; -517.000; -537.000
394.236;  -15.600; -570.000; -507.000
394.364;  541.900;  383.000;  206.000
394.493;  842.900; -911.000; -767.000
394.621;    2.800; -955.000; -916.000
394.750; 1508.900; -873.000; -923.000
394.878; 6150.100; -247.000; -149.000
395.007; 7785.200; -721.000; -807.000
395.135;  611.400; -790.000; -721.000
395.263; -130.100;-1038.000;-1040.000
395.392;   62.800;  -25.000; -107.000
395.520; -126.700; -818.000; -679.000
395.648; -168.600; -865.000; -915.000
395.777;   -5.600; -366.000; -405.000
395.905;  -52.100; -449.000; -564.000
396.033;   83.000;  217.000;  172.000
396.162; 1335.800; -399.000; -453.000
396.290; 1141.100;  -17.000;   -2.000
396.418;  210.100; -555.000; -514.000
396.546; -127.300; -571.000; -466.000
396.674; -138.900; -850.000; -878.000
396.803;   79.900;  -72.000;  -23.000
396.931;  222.100; -179.000; -199.000
397.059;   62.300;-1026.000; -989.000
397.187; -218.400;-1026.000; -975.000
397.315; -219.200; -884.000; -649.000
397.443; -135.800; -592.000; -443.000
397.572; -143.900; -578.000; -424.000
397.700;  -29.800; -607.000; -614.000
397.828;   76.500;  120.000;  -90.000
397.956;  -50.100; -508.000; -478.000
398.084;  -81.300; -767.000; -626.000
398.212;  106.200;  137.000;  124.000
398.340;   73.400;  -56.000;  159.000
398.468;   69.100; -390.000; -169.000
398.596; -239.900; -993.000; -953.000
398.724; -199.000; -762.000; -767.000
398.852; -281.700;-1024.000; -976.000
398.980; -103.800; -560.000; -560.000
399.108;  -87.100; -982.000; -735.000
399.236;  132.900;   13.000;    8.000
399.363;   65.400;  222.000;  196.000
399.491;  -77.800; -404.000; -398.000
399.619; -202.500; -829.000; -800.000
399.747; -175.600; -859.000; -771.000
399.875;  216.300;  220.000;  234.000
400.003;  -42.900; -359.000; -284.000
400.130; -134.000; -421.000; -341.000
400.258;  -36.300;  -83.000;   38.000
400.386;  -86.200; -352.000; -168.000
400.514;  -73.200; -526.000; -587.000
400.641; -132.000; -928.000; -802.000
400.769; -227.200; -979.000; -888.000
400.897; -167.600; -838.000; -793.000
401.025;    8.300; -166.000; -152.000
401.152;   40.000;  220.000;   38.000
401.280; -115.200; -430.000; -429.000
401.408; -189.000; -712.000; -576.000
401.535; -161.600; -735.000; -758.000
401.663; -338.900;-1134.000;-1054.000
401.790; -126.300; -514.000; -525.000
401.918;  106.000;  436.000;  405.000
402.046;   -0.600;  134.000;  122.000
402.173;    5.500;  -18.000;    7.000
402.301;  -99.900; -519.000; -397.000
402.428;  127.900;  528.000;  383.000
402.556; -263.600;-1188.000; -913.000
402.683;    7.400;  -20.000;   -1.000
402.811;   -3.400;  -37.000; -206.000
402.938;    4.700;   20.000;   27.000
403.066;  357.600; -574.000; -558.000
403.193;  527.200;  299.000;  239.000
403.321;  465.000; -396.000; -574.000
403.448;  483.600;   83.000;   27.000
403.575;  269.600;  -90.000;  -46.000
403.703; -163.300; -732.000; -557.000
403.830;  -73.900; -531.000; -496.000
403.957; -226.100;-1117.000;-1023.000
404.085;   47.600;  -61.000; -172.000
404.212;  267.600;  -50.000;   63.000
404.339;  573.600; -566.000; -306.000
404.467;11843.200; -612.000; -524.000
404.594; 7142.300; -287.000; -227.000
404.721; 1519.900; -869.000; -764.000
404.848;  182.700; -113.000; -202.000
404.976; -150.900; -856.000; -783.000
405.103;   22.500;  -14.000;  -82.000
405.230;   84.400;  190.000;  226.000
405.357;  105.100;  117.000;   44.000
405.484;  599.000;  -49.000;    5.000
405.612;  138.700; -548.000; -563.000
405.739;  -57.000; -488.000; -243.000
405.866;  204.600;  669.000;  385.000
405.993;  -16.900; -398.000; -102.000
406.120; -220.500; -801.000; -887.000
406.247;  -70.300; -323.000; -342.000
406.374;  838.400;  540.000;  629.000
406.501;  162.200; -632.000; -702.000
406.628; -119.900; -621.000; -589.000
406.755; -140.800; -803.000; -620.000
406.882;  -33.900; -228.000; -277.000
407.009; -166.200; -719.000; -628.000
407.136;  121.300; -480.000; -401.000
407.263;  230.900; -939.000; -829.000
407.390; -134.700; -692.000; -614.000
407.517; -306.400;-1139.000;-1187.000
407.644;  -32.500; -332.000; -256.000
407.771;  -78.900; -249.000; -287.000
407.898;   68.400;  168.000;  328.000
408.025;  -92.000; -421.000; -313.000
408.151;   26.600;   82.000;  153.000
408.278;  -90.800; -267.000; -216.000
408.405; -186.700; -931.000; -899.000
408.532; -101.800; -549.000; -542.000
408.659; -202.400; -677.000; -648.000
408.785; -358.100;-1298.000;-1170.000
408.912;  -43.300; -412.000; -296.000
409.039; -170.400; -610.000; -686.000
409.166; -151.700; -591.000; -555.000
409.292; -185.800; -571.000; -534.000
409.419; -192.800; -665.000; -649.000
409.546; -157.100; -431.000; -192.000
409.672; -150.300; -713.000; -545.000
409.799;    5.800;  -36.000;   34.000
409.926;  -10.300; -180.000; -179.000
410.052; -296.900;-1127.000;-1091.000
410.179;  -61.500; -368.000; -392.000
410.305; -125.200; -375.000; -493.000
410.432;  -50.600; -220.000; -333.000
410.558; -122.300; -305.000; -380.000
410.685; -162.400; -688.000; -431.000
410.812; -109.800; -409.000; -588.000
410.938; -211.500; -964.000; -808.000
411.065; -125.700; -671.000; -645.000
411.191;   23.900; -189.000; -174.000
411.317; -183.900; -823.000; -742.000
411.444;  -71.400; -317.000; -246.000
411.570;  -83.100; -339.000; -294.000
411.697; -211.900; -758.000; -752.000
411.823; -309.300; -989.000; -999.000
411.949;    6.400;  -56.000;   17.000
412.076; -146.800; -539.000; -519.000
412.202; -165.800; -758.000; -757.000
412.329; -200.900; -798.000; -752.000
412.455; -187.300; -821.000; -657.000
412.581;    3.700;  -15.000;  172.000
412.707;  -76.800; -540.000; -457.000
412.834;   59.900;  156.000;  219.000
412.960; -132.700; -785.000; -784.000
413.086; -157.600; -743.000; -701.000
413.212;  351.300;  604.000;  578.000
413.339; -116.100; -685.000; -701.000
413.465;   30.200; -364.000; -310.000
413.591; -137.700; -757.000; -474.000
413.717;  -59.600; -358.000; -366.000
413.843; -219.400; -839.000; -861.000
413.969;  -64.300;  -47.000; -292.000
414.096; -157.500; -679.000; -679.000
414.222;   40.100;  -33.000;   85.000
414.348;  -27.500; -652.000; -385.000
414.474;  210.000;   38.000;  -52.000
414.600;   14.600; -126.000; -144.000
414.726;   -6.900;  -96.000;  -55.000
414.852;  -36.000; -365.000; -342.000
414.978;  133.500;  104.000;  -18.000
415.104;  116.000;   38.000;   80.000
415.230;   60.700; -329.000; -330.000
415.356;  142.400; -409.000; -514.000
415.482;  437.100;   13.000;  -35.000
415.608;  556.900; -247.000; -323.000
415.734; 2017.600;   67.000;   38.000
415.860;41346.900; -875.000; -767.000
415.986;27194.400; -685.000; -607.000
416.111; 2292.500; -798.000; -652.000
416.237;  502.200; -424.000; -571.000
416.363; 2484.900; -765.000; -733.000
416.489; 8276.100; -324.000; -251.000
416.615;  848.900; -707.000; -742.000
416.741;  -46.600; -677.000; -784.000
416.866; -127.400; -673.000; -736.000
416.992; -158.500; -801.000; -818.000
417.118;    6.900;  -41.000;  -80.000
417.244;  -78.900; -798.000; -531.000
417.369; -154.200; -801.000; -612.000
417.495;   13.600; -325.000; -254.000
417.621; -139.500;-1015.000; -803.000
417.746;   54.100; -579.000; -572.000
417.872;  144.200; -254.000; -144.000
417.998;  148.500; -515.000; -530.000
418.123; 2376.800;-1073.000; -845.000
418.249;10808.700; -512.000; -601.000
418.374; 1342.100; -916.000; -824.000
418.500;  243.200; -383.000; -482.000
418.626;  310.100;   70.000;  -59.000
418.751;  281.900; -549.000; -448.000
418.877;  430.000; -637.000; -643.000
419.002; 4064.500; -688.000; -560.000
419.128;25452.800; -930.000; -721.000
419.253; 5561.400; -967.000; -837.000
419.379;  781.400; -391.000; -338.000
419.504;  788.300;  325.000;  415.000
419.629; 1049.400; -393.000; -212.000
419.755; 7930.800; -317.000; -254.000
419.880;41955.800;  -98.000;   67.000
420.006;23521.900; -280.000; -221.000
420.131;56261.000; -662.000; -775.000
420.256; 7319.100; -315.000; -316.000
420.382; 1061.700; -665.000; -687.000
420.507;  142.100; -649.000; -778.000
420.632;  272.300; -337.000; -339.000
420.758;  388.200; -251.000; -425.000
420.883; -150.000; -876.000; -672.000
421.008; -143.900; -775.000; -619.000
421.133; -127.900; -509.000; -467.000
421.259;   -5.800; -325.000; -259.000
421.384; -190.500; -834.000; -693.000
421.509;  -64.800;-1052.000; -862.000
421.634; 1796.300; -936.000; -820.000
421.759;  725.800; -359.000; -327.000
421.885;  -67.400; -717.000; -656.000
422.010;  -92.200; -673.000; -542.000
422.135; -243.200; -695.000; -727.000
422.260;  141.300;  340.000;  280.000
422.385;  -23.300;   12.000;  -98.000
422.510;   89.400;  151.000;  -26.000
422.635;  130.000;  -87.000;  -43.000
422.760;  240.300; -766.000; -791.000
422.885;  159.500;  -57.000;  -80.000
423.010;   -2.500; -112.000; -169.000
423.135; -115.300; -481.000; -561.000
423.260;   29.100; -150.000; -245.000
423.385;  184.100;  476.000;  222.000
423.510;  143.900;   71.000;  -22.000
423.635;  205.200;  133.000;   45.000
423.760;  160.200;  383.000;  328.000
423.885;  165.200;  336.000;  391.000
424.010;   41.200;  -68.000;  -13.000
424.135;   42.500;    5.000;  -33.000
424.259; -118.700; -654.000; -457.000
424.384;  -69.400; -279.000; -272.000
424.509;   -4.300; -260.000; -186.000
424.634; -112.900; -761.000; -623.000
424.759;  -23.700; -688.000; -544.000
424.883;   29.100; -506.000; -527.000
425.008;  421.300; -502.000; -410.000
425.133; 4127.200; -679.000; -653.000
425.258; 1803.200; -517.000; -381.000
425.382; 1823.200; -867.000; -774.000
425.507; 4164.400; -487.000; -543.000
425.632;  757.800; -802.000; -663.000
425.756; 1006.300; -256.000; -146.000
425.881;14322.900; -831.000; -857.000
426.006;34816.600; -604.000; -355.000
426.130; 4860.900; -696.000; -508.000
426.255;  744.600; -611.000; -491.000
426.379;  339.600; -189.000; -577.000
426.504;  875.500;  660.000;  544.000
426.629; 8469.000; -519.000; -466.000
426.753; 5209.400;   64.000;  -46.000
426.878;  626.400; -252.000; -288.000
427.002;  401.900; -651.000; -668.000
427.127; 3482.700;  -35.000; -158.000
427.251;23132.800;  372.000;  401.000
427.375; 5829.300; -191.000; -173.000
427.500; 3881.700; -616.000; -610.000
427.624; 1174.700; -234.000; -400.000
427.749;  182.800; -216.000; -225.000
427.873;  -70.000; -499.000; -412.000
427.997;   -3.100; -222.000; -230.000
428.122;  233.200;  795.000;  703.000
428.246;  197.200;  433.000;  434.000
428.371; -207.100; -869.000; -773.000
428.495; -149.100; -624.000; -646.000
428.619;    9.000; -186.000; -117.000
428.743;   90.600;   65.000;  132.000
428.868;   33.100; -732.000; -643.000
428.992; 2318.100; -219.000; -326.000
429.116;  878.100; -329.000; -357.000
429.240;  538.400;  419.000;  426.000
429.365;    4.900; -454.000; -574.000
429.489;  -35.800; -638.000; -647.000
429.613;  113.200; -236.000; -177.000
429.737;  141.900; -563.000; -432.000
429.861;  586.400; -247.000; -133.000
429.985;11852.600; -425.000; -305.000
430.109;11571.500; -770.000; -908.000
430.234; 1281.200;   76.000;  -50.000
430.358;  185.400; -250.000; -160.000
430.482;  -63.100; -672.000; -564.000
430.606;  -74.200; -655.000; -375.000
430.730;   85.600; -437.000; -388.000
430.854;  186.500; -909.000; -835.000
430.978; -107.200; -795.000; -764.000
431.102; -122.100; -499.000; -422.000
431.226; -174.900; -874.000; -815.000
431.350;  148.500;  345.000;  422.000
431.474;  -98.100; -661.000; -373.000
431.597; -255.500;-1060.000; -848.000
431.721;  -94.700; -276.000; -267.000
431.845; -217.800; -704.000; -472.000
431.969; -102.300; -304.000; -349.000
432.093;  -77.300; -395.000; -317.000
432.217;   39.500;   32.000;   82.000
432.341; -144.700; -523.000; -518.000
432.464;   64.800;   96.000;   40.000
432.588;  412.300; -401.000; -329.000
432.712;  212.800;  -52.000;  -52.000
432.836;  162.900;  213.000;  263.000
432.959;   16.600; -372.000; -311.000
433.083;  261.900;   11.000;    2.000
433.207;  815.400;  285.000;  930.000
433.330;10847.300; -391.000; -200.000
433.454;12110.800; -654.000; -638.000
433.578; 7133.300;  583.000;  278.000
433.701; 1228.800; -623.000; -675.000
433.825;  266.000; -292.000; -299.000
433.949;  327.200;   28.000;  -72.000
434.072;  113.600; -410.000; -323.000
434.196;    1.200; -309.000; -117.000
434.319; 7902.100;25482.000;25124.000
434.443; 1583.200; -656.000; -603.000
434.566; 5282.600;  281.000;   62.000
434.690;  854.800; -637.000; -383.000
434.813;  161.900; -251.000; -173.000
434.937;  -80.300; -569.000; -696.000
435.060;  -55.500; -423.000; -332.000
435.184;  471.500; -492.000; -217.000
435.307;  275.300;  159.000;  102.000
435.431;   53.900;  -40.000;   24.000
435.554;  -87.200; -399.000; -240.000
435.677;  -90.900; -350.000; -258.000
435.801;   26.600;  -25.000;   49.000
435.924;   29.700;    1.000;  -67.000
436.048; -210.200;-1019.000; -732.000
436.171;  -90.500; -240.000;  -66.000
436.294;    5.800; -248.000; -229.000
436.417;  223.100; -963.000; -849.000
436.541; -141.900; -814.000; -840.000
436.664;  -41.700; -242.000; -316.000
436.787;   65.700;   13.000;  113.000
436.910; -168.800; -792.000; -422.000
437.034;   72.800;  142.000;  143.000
437.157;  137.800;  -11.000;    0.000
437.280;  -53.900; -392.000; -292.000
437.403; -149.300; -982.000; -869.000
437.526;  972.400; -903.000; -865.000
437.649; 3342.100; -505.000; -332.000
437.772;  394.400; -692.000; -540.000
437.896;  265.200;  700.000;  544.000
438.019; -136.700; -758.000; -503.000
438.142;  -98.800; -596.000; -506.000
438.265;  -19.400; -639.000; -670.000
438.388;  975.000; -520.000; -410.000
438.511;  147.200; -597.000; -394.000
438.634;  -55.100; -247.000; -125.000
438.757; -200.600; -693.000; -619.000
438.880;    6.900;  -34.000;  -57.000
439.003;  -83.400; -417.000; -437.000
439.126;  -95.500; -287.000; -167.000
439.248;  -38.500;  -98.000; -139.000
439.371;    2.900;    9.000;  -53.000
439.494;  146.300;  510.000;  439.000
439.617;  -12.300;   65.000;  -88.000
439.740; -292.800; -968.000; -816.000
439.863; -231.300; -755.000; -595.000
439.986; -186.200; -476.000; -431.000
440.108;   -4.500; -161.000; -112.000
440.231; -283.100; -950.000; -836.000
440.354;  -64.400;  -64.000; -150.000
440.477;   45.600; -566.000; -542.000
440.599;   36.600; -200.000; -225.000
440.722; -221.500; -709.000; -586.000
440.845;  226.200;  751.000;  928.000
440.968; -139.300; -415.000; -311.000
441.090;  -59.100; -199.000;  -33.000
441.213; -299.500;-1021.000; -825.000
441.336;  -67.900; -159.000;   -5.000
441.458; -121.300; -549.000; -396.000
441.581; -148.700; -628.000; -629.000
441.703;  -70.200; -152.000;   13.000
441.826; -156.900; -557.000; -400.000
441.948;  -20.700;   56.000;   51.000
442.071;  128.700;  555.000;  424.000
442.193; -191.300; -531.000; -485.000
442.316;   83.800;  152.000;   97.000
442.438;  146.200; -233.000;  -10.000
442.561;  201.600;  272.000;  262.000
442.683;  861.400; -809.000; -522.000
442.806; 1714.900;   -8.000;   74.000
442.928;  -27.500; -859.000; -604.000
443.051;  -97.800; -577.000; -373.000
443.173; -124.800; -341.000; -339.000
443.295; -115.700; -263.000; -371.000
443.418;  -68.000; -321.000;  -29.000
443.540;   30.200; -106.000;   -4.000
443.662; -151.400; -563.000; -465.000
443.785;   33.600;  335.000;  199.000
443.907; -164.600; -362.000; -208.000
444.029; -204.800; -767.000; -494.000
444.152; -226.900; -644.000; -554.000
444.274;  -24.600;  -18.000;  -24.000
444.396; -195.400; -461.000; -221.000
444.518; -192.600; -691.000; -454.000
444.640; -158.300; -268.000; -111.000
444.763;   32.300;  388.000;  249.000
444.885; -170.500; -432.000; -392.000
445.007;   13.700;   35.000;   86.000
445.129; -169.000; -610.000; -515.000
445.251; -153.300; -372.000; -439.000
445.373; -247.500; -537.000; -386.000
445.495;   42.300;  242.000;  350.000
445.617;  186.600;  853.000;  753.000
445.739;  -75.600; -215.000;  -97.000
445.861;   17.000; -245.000; -112.000
445.984;  -32.000; -267.000; -101.000
446.105;  376.500; -418.000; -251.000
446.227;  946.000; -176.000;  -19.000
446.349;  -48.000; -358.000; -249.000
446.471; -144.200; -615.000; -448.000
446.593; -118.700; -316.000;   19.000
446.715;   37.200;  -67.000;   41.000
446.837;  175.000;  697.000;  832.000
446.959; -137.800; -457.000; -478.000
447.081; -209.300; -628.000; -518.000
447.203;  169.100;  862.000;  834.000
447.325; -105.800; -270.000;   42.000
447.446;   59.300;  286.000;  530.000
447.568; -276.600; -921.000; -803.000
447.690; -124.200; -236.000; -245.000
447.812; -253.600; -798.000; -519.000
447.933;    3.400;  155.000;  127.000
448.055;  -89.100; -306.000; -261.000
448.177;  320.700;   31.000;   79.000
448.299;   90.600; -935.000; -727.000
448.420;   97.100;  -25.000;  159.000
448.542;  -27.400;   -3.000;   33.000
448.664;    9.400;  109.000;  322.000
448.785;  -30.200;  265.000;   83.000
448.907; -142.800; -614.000; -353.000
449.028;  -67.500; -771.000; -471.000
449.150;  171.100;  492.000;  589.000
449.272; -327.400;-1044.000; -913.000
449.393;  129.200;  612.000;  694.000
449.515; -236.300; -634.000; -581.000
449.636;  -51.500; -264.000; -155.000
449.758;  195.400;  763.000;  622.000
449.879; -133.900; -498.000; -396.000
450.001;  -96.100; -149.000;  -49.000
450.122;  -23.000;  -95.000;  162.000
450.244;   52.600;   37.000;  364.000
450.365; -124.200; -495.000; -301.000
450.486;   38.600;   80.000;  268.000
450.608;  119.800;  393.000;  326.000
450.729;  213.400;  578.000;  645.000
450.850;   95.700; -574.000; -466.000
450.972; 1708.500; -552.000; -389.000
451.093;10264.600;  190.000;  588.000
451.214; 3928.400; -516.000; -337.000
451.336;  777.800;  773.000;  579.000
451.457;  163.400;  264.000;  393.000
451.578;   -8.400; -118.000;  -74.000
451.699; -191.000; -546.000; -540.000
451.821;  -64.900; -284.000;  -50.000
451.942;   51.900;  278.000;  285.000
452.063;  158.300;  228.000;  419.000
452.184; 1265.900;  -54.000;  -49.000
452.305; 2202.100;  103.000;  170.000
452.427;  242.900; -549.000; -301.000
452.548;   22.200;   23.000;   79.000
452.669;  -37.100; -257.000;  -89.000
452.790;  -33.200;    3.000;  -18.000
452.911;   72.400;  195.000;  259.000
453.032;  -63.100; -289.000;  -60.000
453.153;   -5.500;  -29.000;   81.000
453.274;  214.000;  737.000;  868.000
453.395;   -6.900;  -51.000;  175.000
453.516;  330.100; 1317.000; 1388.000
453.637;  -65.800; -205.000; -150.000
453.758;    4.400;   15.000;   69.000
453.879; -159.200; -462.000; -250.000
454.000;  185.700; 1086.000;  948.000
454.121; -187.300; -554.000; -326.000
454.242; -184.000; -599.000; -383.000
454.362;  -33.700;  -99.000;  114.000
454.483;   -6.900; -309.000; -229.000
454.604;  200.000;  512.000;  580.000
454.725; -190.100; -627.000; -555.000
454.846; -183.900; -474.000; -406.000
454.967;   27.600;  230.000;  539.000
455.087;  -10.300;  179.000;  153.000
455.208;  107.500;  554.000;  856.000
455.329;  -52.700;  -22.000;   82.000
455.450;  139.700;  473.000;  633.000
455.570;  -91.900; -234.000; -211.000
455.691;    4.800;  201.000;  407.000
455.812; -147.600; -270.000;  -92.000
455.932;  -61.000;  107.000;  -97.000
456.053; -107.900;   36.000;   24.000
456.173; -150.400; -433.000; -355.000
456.294; -219.300; -476.000; -303.000
456.415;  -72.500;  -73.000;   70.000
456.535;   15.200;  297.000;  273.000
456.656;   -6.700;  132.000;  240.000
456.776;  -76.400;    3.000;  298.000
456.897;   49.800;  308.000;  513.000
457.017;  -94.900; -153.000;   -3.000
457.138; -178.000; -402.000; -249.000
457.258;   33.700;  263.000;  224.000
457.379;   34.000;  509.000;  521.000
457.499;   32.300;  443.000;  432.000
457.620; -160.800; -407.000; -231.000
457.740; -137.700; -132.000;  -11.000
457.860;  -19.200;   87.000;   44.000
457.981;  -12.600;  132.000;  124.000
458.101; -105.800;  -89.000;   40.000
458.221;   27.500;  336.000;  402.000
458.342;  -53.500;   -4.000;  -37.000
458.462;  134.000;  617.000;  352.000
458.582;   -0.100; -302.000; -294.000
458.703;   83.800;  303.000;  154.000
458.823;   -1.200;   22.000;  163.000
458.943;  108.800;  341.000;  467.000
459.063;   70.200; 1124.000;  192.000
459.183;   36.900;  328.000;  313.000
459.304;  101.200;  315.000;  517.000
459.424;  -50.800; -246.000;  -89.000
459.544;  766.400;  388.000;  764.000
459.664; 1719.500;  499.000;  506.000
459.784;  637.400; 1004.000; 1175.000
459.904;  201.200;  867.000;  744.000
460.024;  183.700;  867.000;  684.000
460.144;   43.000;  449.000;  554.000
460.264;   37.700;  515.000;  327.000
460.385; -145.600; -145.000; -119.000
460.505;  181.700;  905.000;  858.000
460.625; -113.900;  -17.000;  -68.000
460.745;   35.100;  396.000;  541.000
460.864;  -28.800;  153.000;  469.000
460.984;  100.300;  499.000;  573.000
461.104;  346.100; 1656.000; 1775.000
461.224;  107.000;  657.000;  650.000
461.344;   28.000;  431.000;  360.000
461.464;    1.200;  258.000;  513.000
461.584;   48.000;  283.000;  466.000
461.704;  -37.000;   58.000;  108.000
461.824;  -14.800;  238.000;  259.000
461.943;  -26.800;  191.000;  130.000
462.063; -112.500;    2.000;  324.000
462.183;  117.100;  639.000;  717.000
462.303;  295.600; 1678.000; 1230.000
462.422;  109.000;  781.000;  840.000
462.542;  -17.700;  271.000;  391.000
462.662;  147.800;  353.000;  380.000
462.782;  576.300;  833.000;  572.000
462.901; 1093.900;  545.000;  717.000
463.021;  606.400; 1702.000; 1638.000
463.141;   39.700;  337.000;  770.000
463.260;   16.100;  614.000;  474.000
463.380;  102.300;  902.000;  884.000
463.499;   10.600;  342.000;  332.000
463.619;    0.400;  581.000;  559.000
463.738;  274.100; 1644.000;  903.000
463.858;   84.800;  657.000;  811.000
463.978;  -10.400;  542.000;  396.000
464.097;  165.700;  921.000; 1114.000
464.217;  330.500; 1196.000; 1143.000
464.336;  296.800; 1068.000; 1130.000
464.455;    6.500;  328.000;  659.000
464.575;  118.400;  597.000;  602.000
464.694;  367.000; 1204.000; 1179.000
464.814;  280.700; 1190.000; 1138.000
464.933;  256.700; 1095.000; 1027.000
465.052;  280.700; 1412.000; 1054.000
465.172;  202.900;  922.000;  799.000
465.291;  347.800; 1376.000; 1320.000
465.410;  101.600;  462.000;  735.000
465.530;  243.200; 1355.000; 1310.000
465.649;  191.900; 1209.000; 1273.000
465.768;  368.200; 1673.000; 1508.000
465.888;  170.900;  941.000; 1174.000
466.007;  276.700; 1335.000; 1440.000
466.126;   58.000;  721.000;  641.000
466.245;  159.300; 1176.000; 1187.000
466.364;  135.100;  950.000; 1060.000
466.484;  204.000; 1024.000; 1213.000
466.603;  103.500; 1101.000; 1222.000
466.722;  287.200; 1490.000; 1769.000
466.841;  225.600; 1151.000; 1401.000
466.960;  155.200; 1069.000;  972.000
467.079;  367.900; 1971.000; 1786.000
467.198;  159.100; 1238.000; 1181.000
467.317;  249.700; 1768.000; 1162.000
467.436;  205.400; 1709.000; 1261.000
467.555;  345.800; 1796.000; 1746.000
467.674;  165.700; 1227.000; 1329.000
467.793;  155.100; 1376.000; 1374.000
467.912;  252.900; 1658.000; 1539.000
468.031;  346.600; 2038.000; 1930.000
468.150;  369.700; 1842.000; 1837.000
468.269;  469.000; 2313.000; 2090.000
468.388;  431.600; 2168.000; 2339.000
468.507;  620.600; 2884.000; 2903.000
468.626;  652.400; 2555.000; 2541.000
468.744;  369.900; 2018.000; 2174.000
468.863;  491.600; 2312.000; 2523.000
468.982;  256.300; 1503.000; 1555.000
469.101;  498.600; 2788.000; 2692.000
469.220;  351.900; 2333.000; 2176.000
469.338;  591.500; 2935.000; 3051.000
469.457;  447.700; 2719.000; 2545.000
469.576;  783.900; 3953.000; 3784.000
469.695;  544.600; 2877.000; 3066.000
469.813;  922.900; 4148.000; 4192.000
469.932;  922.400; 4255.000; 4485.000
470.051;  896.300; 4075.000; 4161.000
470.169; 1885.200; 4470.000; 4338.000
470.288; 3113.200; 4700.000; 4809.000
470.406; 1734.800; 5059.000; 5194.000
470.525; 1407.700; 6101.000; 5787.000
470.644; 1401.800; 6847.000; 6794.000
470.762; 1744.000; 8397.000; 7873.000
470.881; 1900.600; 8651.000; 8464.000
470.999; 2185.200; 9685.000; 9151.000
471.118; 2394.800;11174.000;10711.000

