
Integration time [ms]: 100.000
Averaging Nr. [scans]: 40
Smoothing Nr. [pixels]: 0
Data measured with spectrometer [name]: 2101012U2
Wave   ;Sample   ;Dark     ;Reference
[nm]   ;[counts] ;[counts] ;[counts] 

197.733;   58.875;  516.000;  404.000
197.879;  -92.925; -610.000; -634.000
198.025;  -49.900; -475.000; -420.000
198.171;  -69.875; -602.000; -612.000
198.317;  -20.275; -401.000; -316.000
198.463;  -57.675; -655.000; -404.000
198.609;   23.350;  181.000; -137.000
198.755;  -75.750; -644.000; -410.000
198.901;  -71.725; -505.000; -424.000
199.047;  -67.925; -615.000; -488.000
199.193;  -32.425; -230.000; -468.000
199.339;  -44.800; -222.000; -369.000
199.485;   48.275;  330.000;  271.000
199.631;    2.550;  227.000;  310.000
199.777;  -41.825; -466.000; -398.000
199.923;  -63.150; -610.000; -424.000
200.069;    1.575; -141.000;  -58.000
200.215;   52.275;  128.000;  453.000
200.361;   44.300;  243.000;  477.000
200.507;  -66.175; -600.000; -373.000
200.653;  -19.850; -371.000; -194.000
200.798;  -32.150; -215.000; -125.000
200.944;   -5.275; -146.000;  -41.000
201.090;   25.300;   61.000;  222.000
201.236;    9.625; -116.000; -158.000
201.382;  116.325;  874.000;  903.000
201.528;    5.700;  -58.000;  -48.000
201.674;  -29.450; -386.000; -293.000
201.819;  -55.775; -540.000; -439.000
201.965;  -84.300; -699.000; -447.000
202.111;  -20.750; -273.000; -226.000
202.257;  -32.050; -250.000; -238.000
202.402;    8.575;   13.000;  -36.000
202.548;  -19.400; -169.000; -116.000
202.694;   86.400;  410.000; -183.000
202.840;  -62.100; -603.000; -531.000
202.985;  -62.125; -681.000; -639.000
203.131; -115.850; -832.000; -666.000
203.277;  -14.375; -199.000; -262.000
203.423;  -49.275; -434.000; -520.000
203.568;  -33.050; -462.000; -237.000
203.714;  -57.775; -535.000; -542.000
203.860;  -87.125; -682.000; -641.000
204.005;   10.975;  112.000;  167.000
204.151;   86.750;  561.000;  556.000
204.296;  -45.225; -354.000; -221.000
204.442;  -62.775; -600.000; -547.000
204.588;  -78.325; -592.000; -579.000
204.733;   32.700;  178.000;  168.000
204.879; -122.650;-1018.000; -822.000
205.025;   14.500;  -99.000;  126.000
205.170;   -3.525;  -17.000;   94.000
205.316;   76.000;  438.000;  661.000
205.461;  -81.150; -698.000; -554.000
205.607;   74.825;  609.000;  665.000
205.752;  -81.075; -626.000; -551.000
205.898;  -47.200; -501.000; -391.000
206.043;  -63.700; -578.000; -506.000
206.189;  -47.075; -243.000; -285.000
206.334;   69.375;  554.000;  606.000
206.480;   76.675;  409.000;  239.000
206.625;  -91.775; -529.000; -552.000
206.771;  -39.300; -451.000; -373.000
206.916;  -38.875; -210.000; -537.000
207.062;  -61.150; -545.000; -591.000
207.207;  -56.900; -546.000; -443.000
207.353;   45.275;  185.000;  460.000
207.498;   17.075;  196.000;   85.000
207.643;  -43.300; -501.000; -370.000
207.789; -127.950;-1069.000; -910.000
207.934;  -90.575; -665.000; -713.000
208.080;  -33.500; -154.000;   66.000
208.225;  -10.025;  -22.000;  -57.000
208.370;  -71.500; -727.000; -619.000
208.516;  -77.400; -741.000; -487.000
208.661;  -36.975; -127.000;  -69.000
208.806;  -20.000; -165.000; -171.000
208.952; -128.850;-1044.000; -731.000
209.097;   74.450;  378.000;  349.000
209.242;  -43.500; -307.000; -382.000
209.387;   79.000;  392.000;  350.000
209.533;  -47.300; -321.000; -350.000
209.678;   74.925;  472.000;  543.000
209.823;  -46.575; -408.000; -310.000
209.969;  -86.875; -860.000; -757.000
210.114; -108.125; -907.000; -719.000
210.259; -107.525; -939.000; -889.000
210.404;  -11.175; -171.000;  103.000
210.549;    9.300;  108.000;    3.000
210.695;  -19.800;   -3.000;  -95.000
210.840;   33.950;   94.000;   67.000
210.985;  -77.050; -484.000; -303.000
211.130;   78.950;  268.000;  406.000
211.275;   14.875;  207.000;  199.000
211.420;  -53.175; -300.000; -289.000
211.566;  -62.950; -536.000; -489.000
211.711;   25.100;  218.000;  157.000
211.856;  -69.525; -545.000; -519.000
212.001;    2.800;  151.000;   44.000
212.146;   19.225;  153.000;   49.000
212.291;  -19.825; -210.000; -186.000
212.436;  -30.275; -280.000;   -6.000
212.581;  -71.100; -685.000; -653.000
212.726;  -67.775; -487.000; -538.000
212.871;  -46.775; -552.000; -217.000
213.016; -144.800;-1172.000;-1029.000
213.161;   66.425;  406.000;  291.000
213.306;  -81.875; -435.000; -577.000
213.451;  -86.000; -778.000; -689.000
213.596;  -57.325; -455.000; -347.000
213.741;  -49.325; -448.000; -538.000
213.886;  -84.900; -498.000; -517.000
214.031;   -9.725; -294.000; -124.000
214.176;  -51.475; -408.000; -341.000
214.321;  -13.250; -296.000; -157.000
214.466;  -30.900; -163.000;  -43.000
214.611;    3.325;  -61.000;  -10.000
214.756; -125.575; -948.000; -858.000
214.901;  -16.875; -388.000; -226.000
215.046; -117.025; -797.000; -825.000
215.191;   12.050;  128.000;   35.000
215.336;   -9.800; -157.000;  -19.000
215.480;  -65.750; -684.000; -505.000
215.625;  -23.100; -175.000;  -19.000
215.770;  -74.325; -757.000; -662.000
215.915;    0.925;   -5.000;  -97.000
216.060;  -18.650; -113.000;  -21.000
216.205; -107.725; -731.000; -779.000
216.349;  -65.050; -470.000; -533.000
216.494; -122.875; -939.000; -867.000
216.639; -104.400; -823.000; -888.000
216.784;  -85.875; -577.000; -525.000
216.929;   50.300;  392.000;  281.000
217.073;  -21.325; -244.000;  -31.000
217.218;    6.700;   78.000;  -47.000
217.363;  -79.775; -656.000; -618.000
217.507;  -74.650; -623.000; -588.000
217.652; -126.350; -845.000; -874.000
217.797;  -83.450; -708.000; -659.000
217.942; -108.800; -856.000; -720.000
218.086;   72.975;  608.000;  539.000
218.231;  -19.375; -174.000;  -26.000
218.376;  -36.025; -337.000; -229.000
218.520;    4.900;  -41.000;   96.000
218.665;  -22.025; -338.000; -204.000
218.810;  -42.025; -275.000; -233.000
218.954;   14.075;  201.000;   35.000
219.099; -110.850; -713.000; -963.000
219.243;  -66.500; -589.000; -554.000
219.388;  -34.725; -264.000; -136.000
219.532;   -8.025; -116.000; -116.000
219.677;  -82.050; -564.000; -521.000
219.822;    2.725;   33.000;   89.000
219.966;    7.400;   17.000;  -99.000
220.111;  -31.775; -328.000;  -40.000
220.255;  -94.550; -797.000; -750.000
220.400;  -18.475; -180.000; -146.000
220.544;  -72.600; -516.000; -450.000
220.689;  -47.025; -422.000; -451.000
220.833;  -18.825; -123.000;  -58.000
220.978;  -42.175; -393.000; -563.000
221.122;   24.275;  319.000;  307.000
221.267; -108.375; -906.000; -837.000
221.411;  -72.300; -478.000; -394.000
221.555;   -5.075; -104.000;  -23.000
221.700;  -59.300; -329.000; -222.000
221.844;   32.350;  255.000;  272.000
221.989;  -40.625; -328.000; -311.000
222.133;  -35.025; -289.000; -307.000
222.277;  -12.250;    5.000;   78.000
222.422;   16.975;  227.000;  113.000
222.566;  -42.425; -381.000; -214.000
222.711;  -51.475; -414.000; -479.000
222.855;  -81.125; -643.000; -586.000
222.999;  -67.700; -642.000; -717.000
223.144;  -32.700; -195.000; -194.000
223.288;   64.375;  423.000;  251.000
223.432;   34.750;  184.000;  230.000
223.576;   28.725;  152.000;  -21.000
223.721;   40.800;  364.000;  273.000
223.865;  -55.625; -472.000; -475.000
224.009;  217.675; 1673.000; 1631.000
224.153;  -87.925; -660.000; -671.000
224.298;  -72.375; -531.000; -489.000
224.442;  -23.600;  -74.000;  -33.000
224.586;  -12.350; -169.000; -106.000
224.730;  -95.100; -858.000; -670.000
224.875; -121.300; -739.000; -688.000
225.019;   11.400;  102.000;  188.000
225.163;   49.875;  208.000;  341.000
225.307;   15.875;   97.000;  -91.000
225.451;   45.325;  360.000;  481.000
225.595;   27.650;  264.000;  176.000
225.739;  -15.975; -170.000;  -94.000
225.884;    6.925;   86.000;    5.000
226.028;  -95.725; -760.000; -626.000
226.172;  -33.675; -260.000; -273.000
226.316; -119.200; -941.000; -902.000
226.460;  -71.000; -645.000; -493.000
226.604;  -55.825; -406.000; -400.000
226.748; -104.575; -836.000; -733.000
226.892;  -32.250; -227.000; -181.000
227.036;  -46.475; -537.000; -447.000
227.180;  -74.075; -551.000; -375.000
227.324;  -66.425; -561.000; -580.000
227.468; -110.475; -819.000; -717.000
227.612;   12.875;  242.000;  -28.000
227.756; -100.900; -845.000; -698.000
227.900;   54.725;  342.000;  441.000
228.044;  -64.275; -509.000; -290.000
228.188;   58.550;  448.000;  568.000
228.332; -100.550; -546.000; -472.000
228.476;  -36.125; -223.000; -149.000
228.620;  -46.700; -210.000; -150.000
228.764;   56.375;  431.000;  349.000
228.908;  -18.875; -155.000;   30.000
229.052;  -62.600; -615.000; -528.000
229.195;  -13.700; -172.000;   13.000
229.339;  -33.150; -235.000; -305.000
229.483;  -34.450;    5.000; -162.000
229.627;    6.575; -156.000;  139.000
229.771;  -35.975; -218.000; -294.000
229.915;   18.425;  230.000;   79.000
230.059;  -97.075; -648.000; -663.000
230.202;  -26.650; -370.000; -317.000
230.346;  -23.375; -107.000;  107.000
230.490;  -49.975; -489.000; -521.000
230.634;  -87.175; -736.000; -553.000
230.777;   68.200;  478.000;  509.000
230.921;  -61.250; -450.000; -359.000
231.065;  -39.250; -246.000; -286.000
231.209;   29.525;  261.000;  265.000
231.352;   12.950;   54.000;   40.000
231.496;   14.700;  568.000;  188.000
231.640;  -76.950; -693.000; -621.000
231.783;   52.325;  546.000;  525.000
231.927;  -35.525; -294.000; -365.000
232.071; -114.225; -962.000; -736.000
232.214; -108.450; -980.000; -764.000
232.358; -101.800; -683.000; -599.000
232.502;    6.025;  -19.000;    7.000
232.645; -130.175;-1090.000; -927.000
232.789;  -24.625; -257.000; -218.000
232.933;  -49.650; -407.000; -224.000
233.076; -125.975;-1038.000; -897.000
233.220; -109.275; -752.000; -777.000
233.363;  -68.025; -669.000; -477.000
233.507;   56.325;  371.000;  129.000
233.650;  -99.650; -764.000; -834.000
233.794;   39.250;  438.000;  461.000
233.938;  -58.675; -530.000; -362.000
234.081;  -11.650;  -93.000;   31.000
234.225;  -68.775; -631.000; -539.000
234.368; -109.500; -773.000; -723.000
234.512;  -42.550; -385.000; -299.000
234.655;  -92.725; -582.000; -555.000
234.798;  -69.325; -493.000; -466.000
234.942; -129.700; -884.000;-1002.000
235.085;  -65.675; -651.000; -443.000
235.229;  -72.550; -405.000; -410.000
235.372;  -50.525; -247.000; -191.000
235.516;  -70.250; -397.000; -321.000
235.659;   28.300;   92.000;  121.000
235.802;  -20.350;  -38.000;  -22.000
235.946;   37.175;  335.000;  215.000
236.089;   19.750;  126.000;  250.000
236.233;   57.450;  275.000;  298.000
236.376;  -54.175; -235.000; -378.000
236.519;  -44.075; -297.000; -319.000
236.663;  -43.225; -215.000; -117.000
236.806; -128.875;-1029.000; -999.000
236.949;   50.950;  543.000;  431.000
237.092;   66.050;  412.000;  391.000
237.236;  -81.275; -589.000; -502.000
237.379;   63.275;  352.000;  428.000
237.522; -121.750; -879.000; -768.000
237.666;   -7.300; -271.000;   18.000
237.809; -127.625; -851.000; -823.000
237.952;   41.075;  469.000;  271.000
238.095;  -65.025; -447.000; -442.000
238.238;   79.200;  688.000;  700.000
238.382;  -13.500;  166.000;  103.000
238.525;  -60.025; -598.000; -511.000
238.668; -139.750;-1060.000; -985.000
238.811;  -85.700; -638.000; -643.000
238.954;  -64.850; -483.000; -334.000
239.097;   98.025;  617.000;  664.000
239.241;    5.775;  394.000;  326.000
239.384;  -31.200; -254.000; -214.000
239.527;  -63.075; -424.000; -224.000
239.670; -129.125; -994.000;-1091.000
239.813; -122.600; -696.000; -658.000
239.956;   81.350;  579.000;  473.000
240.099; -115.500; -778.000; -725.000
240.242;   51.575;  428.000;  432.000
240.385;   51.425;  466.000;  450.000
240.528;  -56.575; -706.000; -473.000
240.671;   13.725;  189.000;  134.000
240.814;  -43.275; -441.000; -158.000
240.957; -108.875; -767.000; -578.000
241.100;  -93.825; -779.000; -755.000
241.243; -145.900;-1234.000; -893.000
241.386;  -66.025; -508.000; -379.000
241.529;  -79.100; -735.000; -547.000
241.672;  -58.600; -566.000; -495.000
241.815; -122.025; -832.000; -808.000
241.958;  -23.950; -125.000; -182.000
242.101;  -83.250; -545.000; -390.000
242.244;  -32.325; -270.000; -325.000
242.387;  -45.100; -304.000; -246.000
242.530;   62.650;  470.000;  134.000
242.673;  -42.075; -381.000; -309.000
242.815; -101.850; -925.000; -899.000
242.958;  -76.125; -482.000; -381.000
243.101;   23.475;  132.000;  187.000
243.244;  -77.300; -564.000; -521.000
243.387;  -45.225; -313.000; -316.000
243.530; -102.200; -657.000; -674.000
243.672;    6.125;   43.000;  -92.000
243.815;  -44.925; -355.000; -283.000
243.958;   -1.100;   98.000;  -26.000
244.101;   -1.625;   59.000;  -16.000
244.243;  -12.500;  -47.000;  101.000
244.386; -107.200; -761.000; -630.000
244.529;  -29.200; -132.000; -139.000
244.672; -160.200;-1154.000; -951.000
244.814;  -91.550; -621.000; -794.000
244.957;  -59.875; -380.000; -304.000
245.100;  -66.150; -489.000; -489.000
245.242;  -59.875; -387.000; -374.000
245.385;   -0.700;  -59.000;  -39.000
245.528; -120.725; -871.000; -705.000
245.670;  100.550;  612.000;  634.000
245.813;  -83.375; -599.000; -547.000
245.956;  -35.250; -324.000; -275.000
246.098;  -83.250; -508.000; -650.000
246.241;   10.850;  194.000;   48.000
246.383;  -31.925; -119.000;  -73.000
246.526;  -66.300; -454.000; -525.000
246.669; -125.450; -889.000; -780.000
246.811;   19.825;  172.000;   -1.000
246.954;  -66.875; -512.000; -426.000
247.096;   -8.750;  -84.000;   -6.000
247.239;  -82.675; -482.000; -445.000
247.381;  -61.275; -647.000; -488.000
247.524;   77.275;  645.000;  679.000
247.666;   -6.725;   58.000;   11.000
247.809; -113.375; -887.000; -691.000
247.951;  -17.600;  -75.000;  138.000
248.094;   24.050;  432.000;  308.000
248.236; -143.050;-1262.000;-1238.000
248.378;    7.450; -356.000;  -81.000
248.521;  -16.525; -334.000; -337.000
248.663;  -42.350; -236.000; -267.000
248.806;  -18.375; -300.000; -266.000
248.948;  -95.350; -886.000; -763.000
249.090;  -30.425; -428.000; -398.000
249.233;  -49.925; -344.000; -381.000
249.375;  -65.175; -474.000; -451.000
249.518;  -17.150;  -83.000; -133.000
249.660;  -10.500; -103.000;    3.000
249.802; -173.225;-1303.000;-1189.000
249.945;  -68.150; -612.000; -540.000
250.087; -118.000; -834.000; -768.000
250.229;  -42.300; -362.000; -480.000
250.371;  -85.475; -494.000; -439.000
250.514;  -47.900; -310.000; -244.000
250.656;  -71.950;   69.000;  102.000
250.798; -120.700; -849.000; -800.000
250.940;  -74.275; -322.000; -322.000
251.083;  -27.125; -335.000; -111.000
251.225;   34.800;  338.000;  310.000
251.367;  -45.575; -274.000; -373.000
251.509;  -37.825; -265.000; -210.000
251.651;  -99.475; -731.000; -671.000
251.794;   56.775;  538.000;  632.000
251.936; -101.425; -821.000; -747.000
252.078;  -65.150; -540.000; -461.000
252.220;  -72.775; -645.000; -477.000
252.362;   75.025;  344.000;  462.000
252.504;  -77.575; -677.000; -584.000
252.646; -113.450; -875.000; -722.000
252.788;    4.925;   14.000; -128.000
252.931;  -34.975; -257.000; -253.000
253.073;  -50.800; -376.000; -317.000
253.215;  -17.225;  141.000;  122.000
253.357;  -15.525;   82.000; -153.000
253.499;  -53.350; -374.000; -234.000
253.641;  -78.850; -749.000; -594.000
253.783;  -85.675; -609.000; -527.000
253.925;  -87.975; -586.000; -591.000
254.067; -104.850; -744.000; -667.000
254.209;  -28.725; -391.000; -259.000
254.351; -142.525; -865.000; -883.000
254.493;  -60.500; -441.000; -417.000
254.635; -125.225; -936.000; -818.000
254.777;  -86.325; -752.000; -687.000
254.918;  -61.925; -512.000; -430.000
255.060;  -47.800; -551.000; -395.000
255.202;  -61.000; -473.000; -261.000
255.344;  -73.600; -658.000; -455.000
255.486;  -80.975; -471.000; -406.000
255.628; -101.575; -780.000; -781.000
255.770;  -93.650; -676.000; -536.000
255.912;  -56.250; -559.000; -468.000
256.053; -101.875; -730.000; -508.000
256.195;  164.100; 1008.000;  903.000
256.337; -108.325; -861.000; -595.000
256.479;   67.550;  532.000;  416.000
256.621;  -40.325; -394.000; -212.000
256.762;  -87.825; -789.000; -742.000
256.904;   43.625;  485.000;  487.000
257.046;  -40.025; -381.000; -271.000
257.188;  -43.575; -351.000; -264.000
257.329;  -73.700; -525.000; -464.000
257.471; -122.225; -939.000; -807.000
257.613;  -45.450; -584.000; -498.000
257.755; -142.575;-1073.000; -982.000
257.896;   24.200;  286.000;  392.000
258.038;  -75.600; -403.000; -352.000
258.180;  -24.675; -354.000; -279.000
258.321;  -88.250; -581.000; -457.000
258.463;    0.375;  -71.000;  133.000
258.605;  -84.650; -562.000; -570.000
258.746; -102.775; -886.000; -772.000
258.888; -148.225;-1026.000;-1020.000
259.029;   32.375;  121.000;   -8.000
259.171;  -85.125; -614.000; -550.000
259.313;    0.100;  -49.000;  -47.000
259.454;  -80.900; -536.000; -414.000
259.596;  -55.275; -483.000; -390.000
259.737;  -73.650; -590.000; -474.000
259.879;   28.650;  217.000;  311.000
260.020;   79.050;  901.000;  636.000
260.162;  -19.250; -146.000; -253.000
260.303; -122.075; -768.000; -687.000
260.445;  -82.225; -609.000; -613.000
260.586;   23.875;  392.000;  157.000
260.728;  -46.775; -360.000; -248.000
260.869; -119.150; -350.000; -343.000
261.011;   72.275;  706.000;  537.000
261.152;  -77.675; -479.000; -319.000
261.293;  -80.250; -576.000; -595.000
261.435;  -33.475; -219.000; -184.000
261.576;  -46.375; -455.000; -325.000
261.718;   41.100;  420.000;  470.000
261.859; -128.975; -940.000; -949.000
262.000; -134.225; -951.000;-1016.000
262.142;  -36.175;  -52.000;  -60.000
262.283; -111.575; -808.000; -691.000
262.424;  -91.975; -666.000; -625.000
262.566; -156.000;-1161.000; -983.000
262.707; -112.700; -840.000; -830.000
262.848; -127.075; -769.000; -726.000
262.990;  -54.950; -362.000; -345.000
263.131;   69.300;  650.000;  681.000
263.272;  -14.500;  -61.000;  -41.000
263.413;  -84.100; -589.000; -561.000
263.555;  -62.475; -669.000; -143.000
263.696;  -91.400; -550.000; -641.000
263.837;  -57.850; -449.000; -551.000
263.978;  -14.550;   -5.000;  -77.000
264.119;  -43.000; -283.000; -264.000
264.261; -114.725; -847.000; -630.000
264.402;   -0.800;   33.000;   40.000
264.543;  -82.575; -509.000; -524.000
264.684;   -7.650;   61.000;  -50.000
264.825;  -67.275; -816.000; -538.000
264.966;  -10.150;  -84.000;  -67.000
265.107; -114.425; -646.000; -670.000
265.248; -107.925; -825.000; -812.000
265.390;  -23.425;  152.000;   -9.000
265.531;   -3.750; -238.000; -107.000
265.672;  -88.500; -557.000; -630.000
265.813;   53.575;  563.000;  439.000
265.954; -149.575; -959.000; -940.000
266.095;  -15.900; -372.000; -322.000
266.236;  -97.925; -686.000; -548.000
266.377;  -40.675; -243.000; -297.000
266.518;  -75.475; -619.000; -547.000
266.659;   39.525;  170.000;  268.000
266.800;    1.225;   83.000;   85.000
266.941;  -67.650; -487.000; -478.000
267.082;    3.750;  354.000;   99.000
267.223;  -40.850; -344.000; -273.000
267.364; -126.600; -892.000; -686.000
267.504;  -19.700;    3.000;  135.000
267.645;   -7.800;  160.000;   67.000
267.786;  -23.325; -147.000;  -86.000
267.927;  -71.850; -473.000; -379.000
268.068;  -25.875; -186.000;  -61.000
268.209;  -45.750; -175.000; -413.000
268.350;  -70.900; -388.000; -532.000
268.490;  -99.350; -648.000; -521.000
268.631;   26.925;  127.000;  225.000
268.772; -113.100; -874.000; -647.000
268.913;  -47.150; -328.000; -476.000
269.054;  -23.500; -117.000;   12.000
269.194;  -43.600; -418.000; -402.000
269.335; -172.825;-1137.000;-1074.000
269.476;  -16.550;   33.000;  -35.000
269.617;  -49.400; -347.000; -392.000
269.757;  -91.000; -713.000; -646.000
269.898; -104.275; -856.000; -613.000
270.039;  -57.475; -415.000; -405.000
270.180; -138.000; -952.000; -816.000
270.320;  -29.925; -190.000; -250.000
270.461;  -42.675; -277.000; -249.000
270.602;  -33.350; -186.000; -156.000
270.742; -121.475; -868.000; -943.000
270.883;  -59.325; -442.000; -390.000
271.023;  -63.425; -358.000; -357.000
271.164;  -83.975; -607.000; -528.000
271.305;  -98.900; -666.000; -654.000
271.445;  -92.800; -722.000; -683.000
271.586;  -80.650; -462.000; -283.000
271.726;  -55.925; -397.000; -322.000
271.867;  -62.425; -594.000; -534.000
272.008;  169.350; -473.000; -285.000
272.148;  115.650;  462.000;  468.000
272.289;   24.750; -113.000; -181.000
272.429;   10.900;   19.000;  185.000
272.570;  -94.600; -633.000; -737.000
272.710; -109.175; -825.000; -775.000
272.851;  -25.025;  113.000; -130.000
272.991; -161.200;-1173.000;-1077.000
273.131;  -58.725; -419.000; -459.000
273.272;  -91.825; -683.000; -723.000
273.412;   11.600; -143.000;  -31.000
273.553;  -65.175; -488.000; -507.000
273.693;  117.400;  913.000;  858.000
273.834; -100.975; -894.000; -692.000
273.974;  -80.100; -664.000; -615.000
274.114; -102.300; -772.000; -560.000
274.255;   75.650;  414.000;  373.000
274.395;    3.450; -180.000; -125.000
274.535;   22.375;  199.000;  350.000
274.676;   23.500;  225.000;   94.000
274.816;   -2.825;  110.000;   34.000
274.956;  -76.200; -624.000; -690.000
275.097;  -62.600;-1014.000; -922.000
275.237; -101.100; -913.000; -803.000
275.377;  -96.675; -778.000; -689.000
275.517; -143.725; -878.000; -937.000
275.658;  -56.850; -590.000; -555.000
275.798;  -80.800; -606.000; -413.000
275.938;   18.875;  215.000;  323.000
276.078; -102.775; -626.000; -395.000
276.218;    3.400;   99.000;  104.000
276.359; -133.025;-1026.000;-1024.000
276.499;  -60.100; -605.000; -446.000
276.639;  -55.375; -305.000; -151.000
276.779;  -45.025; -475.000; -357.000
276.919; -113.700; -783.000; -624.000
277.059;  -23.825; -261.000; -212.000
277.199;  -56.925; -357.000; -259.000
277.340;   34.425;  287.000;  175.000
277.480; -105.775; -840.000; -693.000
277.620;   19.525;  192.000;   16.000
277.760; -196.075;-1533.000;-1294.000
277.900;   10.375;  113.000;   33.000
278.040;    8.650;  137.000;  159.000
278.180;   35.750;  270.000;  170.000
278.320;  -14.450;   21.000;   56.000
278.460;  -54.275; -443.000; -469.000
278.600;  -93.950; -708.000; -598.000
278.740;   47.300;  448.000;  224.000
278.880;  -74.500; -768.000; -791.000
279.020;  -15.800; -194.000; -144.000
279.160;  -88.250; -672.000; -595.000
279.300; -118.650; -926.000; -873.000
279.440;  -92.725; -709.000; -622.000
279.579;  -11.725;-1014.000; -929.000
279.719;  -60.900; -410.000; -394.000
279.859;   54.950;   -4.000;   41.000
279.999;   28.625; -208.000;  101.000
280.139;  -16.600; -435.000; -387.000
280.279;  -81.975; -708.000; -745.000
280.419;  -15.725; -229.000; -147.000
280.559;  -30.675; -259.000; -180.000
280.698;  -96.850; -790.000; -639.000
280.838; -114.675; -778.000; -800.000
280.978; -103.900; -846.000; -790.000
281.118; -121.150; -811.000; -704.000
281.257;    4.775;   24.000;    6.000
281.397; -132.450;-1094.000; -960.000
281.537;  -77.475; -599.000; -712.000
281.677;  -28.275; -150.000; -101.000
281.816;  -92.400; -700.000; -630.000
281.956;  -30.100; -193.000; -257.000
282.096;  -76.100; -539.000; -396.000
282.235;  -98.575; -672.000; -638.000
282.375;  -16.550; -243.000;  -98.000
282.515; -110.650; -715.000; -707.000
282.654;   19.125;   29.000;  106.000
282.794;   13.775;  388.000;  244.000
282.934;  -46.225; -530.000; -491.000
283.073; -141.975;-1030.000; -857.000
283.213;  -49.300; -460.000; -467.000
283.353;  -37.300; -408.000; -349.000
283.492;  -31.850; -264.000; -296.000
283.632;  -46.600; -254.000; -168.000
283.771;  -96.775; -859.000; -730.000
283.911;  -62.475; -369.000; -260.000
284.050;  -94.775; -794.000; -748.000
284.190; -152.825;-1229.000;-1096.000
284.329; -146.950;-1055.000; -964.000
284.469;  -82.675; -516.000; -591.000
284.608;  -59.925; -559.000; -598.000
284.748;  -83.525; -614.000; -570.000
284.887;    0.050;  -87.000;  -20.000
285.027; -126.300; -844.000; -892.000
285.166;  -23.825; -192.000; -249.000
285.306;   -4.700; -116.000;  -33.000
285.445;  -42.150; -229.000; -343.000
285.584;  -99.425; -630.000; -494.000
285.724;  -43.050; -282.000; -322.000
285.863; -122.500; -857.000; -507.000
286.002;  -59.975; -366.000; -276.000
286.142; -106.625; -715.000; -622.000
286.281;  -60.725; -525.000; -493.000
286.420;  -83.700; -554.000; -417.000
286.560;   89.325;  653.000;  623.000
286.699; -136.525; -958.000; -912.000
286.838;  -71.225; -590.000; -591.000
286.978; -101.700; -533.000; -537.000
287.117; -136.825;-1085.000; -950.000
287.256;  -24.375; -228.000; -211.000
287.395;  -59.325; -197.000; -378.000
287.535;  -65.525; -370.000; -298.000
287.674;  -79.350; -509.000; -484.000
287.813;   52.150;  661.000;  533.000
287.952; -122.325;-1010.000; -871.000
288.091; -143.300;-1049.000; -915.000
288.231;    3.600;   13.000;   15.000
288.370; -172.925;-1217.000;-1200.000
288.509;  -89.500; -728.000; -645.000
288.648;  -98.875; -770.000; -548.000
288.787;  -22.900; -243.000;  -87.000
288.926;  -69.425; -454.000; -475.000
289.065;  112.650;  859.000;  672.000
289.204;  -57.400; -377.000; -217.000
289.344;  -92.225; -791.000; -690.000
289.483;   10.300;  416.000;  304.000
289.622;  -20.550; -291.000; -149.000
289.761;  -29.625; -309.000; -166.000
289.900; -104.175; -785.000; -626.000
290.039;  -22.150;  -12.000;  -95.000
290.178;  -41.700; -274.000; -180.000
290.317;  -90.725; -618.000; -479.000
290.456;  -60.625; -463.000; -451.000
290.595; -129.675; -961.000; -833.000
290.734; -127.225; -904.000; -891.000
290.873;  -73.750; -456.000; -420.000
291.011; -101.000; -833.000; -843.000
291.150; -104.475; -770.000; -682.000
291.289;  -33.900; -343.000; -110.000
291.428;  -88.675; -599.000; -480.000
291.567;  -74.150; -370.000; -442.000
291.706;  -12.250;  109.000;  154.000
291.845;  -87.525; -597.000; -505.000
291.984; -163.300;-1234.000;-1061.000
292.122;   58.475;  602.000;  582.000
292.261;   30.725;  620.000;  463.000
292.400;   11.950; -144.000;  211.000
292.539; -131.775; -959.000; -813.000
292.678;  -28.750; -325.000; -300.000
292.816; -156.325;-1136.000; -965.000
292.955;  -80.525; -844.000; -684.000
293.094;  -41.925; -173.000; -337.000
293.233;  -70.575; -556.000; -400.000
293.371;  -40.075; -225.000;  -84.000
293.510; -119.075; -866.000; -780.000
293.649; -122.050; -959.000; -924.000
293.787;  -73.900;-1083.000;-1012.000
293.926;    3.100; -113.000;  -32.000
294.065;  -41.075; -379.000; -290.000
294.203;   35.375;  298.000;  406.000
294.342;   15.500;   74.000;  156.000
294.481; 6107.200;51180.000; -836.000
294.619;  -25.875; -425.000; -582.000
294.758; -151.125;-1230.000;-1137.000
294.896;   55.650; -125.000;    5.000
295.035; -126.025;-1040.000;-1006.000
295.174; -115.575;-1082.000; -954.000
295.312;  -46.575; -323.000; -203.000
295.451;  -18.050; -307.000; -428.000
295.589;  -71.775; -389.000; -518.000
295.728;   20.175; -292.000; -165.000
295.866;   -8.200;  -36.000;  -51.000
296.005;  -71.750; -584.000; -341.000
296.143;  -70.350; -558.000; -596.000
296.282;  -99.550; -957.000; -881.000
296.420; -102.225; -657.000; -557.000
296.559;  -89.250; -892.000; -633.000
296.697;    1.450; -847.000; -665.000
296.835;   24.575;-1141.000;-1002.000
296.974;   41.000;  -23.000;   39.000
297.112;  -13.025; -443.000; -504.000
297.251;  -76.700; -815.000; -755.000
297.389;   63.450; -576.000; -438.000
297.527;   14.200; -145.000;  -83.000
297.666;  -49.500; -486.000; -438.000
297.804;  -67.100; -404.000; -264.000
297.942;  -19.300; -136.000; -161.000
298.081;   -2.075; -183.000;   63.000
298.219;   61.900;  -17.000;  -19.000
298.357;   31.350; -144.000;  -71.000
298.495;   12.075; -810.000; -812.000
298.634;   52.275;  245.000;  219.000
298.772;   33.200; -220.000; -338.000
298.910;  -48.125; -309.000; -182.000
299.048;  -28.775; -130.000; -153.000
299.187;  -44.400; -350.000; -250.000
299.325;   11.700;   52.000;  122.000
299.463;   33.150; -389.000; -299.000
299.601;   92.450; -327.000; -271.000
299.739; -120.775; -908.000; -883.000
299.877;  -99.700; -791.000; -703.000
300.016;  -46.275;-1095.000; -935.000
300.154;  141.675;  -19.000; -161.000
300.292;   22.000; -428.000; -348.000
300.430;   15.850; -408.000; -291.000
300.568; -125.000; -940.000; -874.000
300.706;  -51.700; -366.000; -469.000
300.844;  -89.325;-1108.000; -979.000
300.982;  115.500;  246.000;  282.000
301.120; -123.650; -965.000; -866.000
301.258;  -76.250; -812.000; -705.000
301.396;    2.975;  104.000;  -41.000
301.534;   45.500; -218.000; -293.000
301.672;  -32.000; -664.000; -521.000
301.810;   12.450; -613.000; -545.000
301.948;   79.875;   53.000;  149.000
302.086;  561.700; -250.000;  -32.000
302.224;  822.575; -610.000; -585.000
302.362;   11.475; -558.000; -622.000
302.500;  -45.150; -923.000; -893.000
302.638;   88.200;  128.000;  245.000
302.776;  -14.300; -352.000; -408.000
302.913;   47.550;  447.000;  236.000
303.051;   -3.350;  -86.000;  -23.000
303.189;   43.050;   90.000;  118.000
303.327;  -48.925; -341.000; -256.000
303.465;  -71.325; -832.000; -588.000
303.603; -100.150; -805.000; -604.000
303.740;   87.600;  417.000;  241.000
303.878;   -8.000; -800.000; -759.000
304.016;  -94.250; -915.000; -790.000
304.154; -117.225;-1123.000;-1152.000
304.291;  -26.525; -505.000; -554.000
304.429;   -5.900;  102.000;   74.000
304.567; -132.750; -908.000; -893.000
304.705;  -53.975; -408.000; -515.000
304.842;   84.975; -616.000; -540.000
304.980;   44.150;  215.000;   35.000
305.118;   34.000; -367.000; -365.000
305.255;  -84.300; -945.000; -927.000
305.393;   63.500;  178.000;  239.000
305.531; -110.825;-1173.000; -956.000
305.668;  -71.375; -663.000; -582.000
305.806;   78.450; -358.000; -439.000
305.943;   89.150; -629.000; -637.000
306.081;   46.075; -378.000; -267.000
306.219;  -87.150; -863.000; -748.000
306.356;   -2.250;  158.000;   27.000
306.494;  114.275;  981.000;  761.000
306.631;  -12.275;  -11.000;  -55.000
306.769;   -3.575; -613.000; -485.000
306.906;  -28.900; -284.000; -258.000
307.044;  -58.600; -473.000; -488.000
307.181;  -71.750; -410.000; -332.000
307.319;    0.025;  112.000;   87.000
307.456; -179.125;-1191.000;-1153.000
307.594; -101.375; -980.000; -727.000
307.731;  -20.925; -371.000; -164.000
307.868;    1.475;  -15.000;   20.000
308.006; -136.875; -961.000; -847.000
308.143;  -68.825; -618.000; -330.000
308.281;  144.450;  -37.000; -254.000
308.418;  -17.000; -748.000; -640.000
308.555;  -84.500; -400.000; -250.000
308.693;  -73.425; -577.000; -573.000
308.830; -114.125; -712.000; -657.000
308.967;  -17.825; -215.000;  -95.000
309.105;  -45.225; -507.000; -396.000
309.242;   38.700; -468.000; -367.000
309.379;  280.925; -577.000; -655.000
309.517;  -66.850; -936.000; -948.000
309.654; -129.500; -910.000; -734.000
309.791;  -82.375; -662.000; -580.000
309.928; -125.650; -977.000; -914.000
310.065;  171.025;  819.000;  697.000
310.203;  -28.500; -825.000; -850.000
310.340;  -13.175; -465.000; -321.000
310.477;  -86.100; -412.000; -516.000
310.614;  -72.825; -383.000; -473.000
310.751;  -90.475; -427.000; -518.000
310.889;  -15.500;    1.000;   11.000
311.026; -161.625;-1161.000; -939.000
311.163;  -46.200; -386.000; -380.000
311.300;  -82.100; -512.000; -479.000
311.437;  -85.875; -658.000; -619.000
311.574; -161.350;-1226.000; -985.000
311.711;  -55.275; -595.000; -433.000
311.848;  -44.850; -380.000; -388.000
311.985;   -1.025;  270.000;   93.000
312.122; -127.875; -932.000; -762.000
312.259; -128.375; -941.000; -994.000
312.396;  -83.875; -508.000; -551.000
312.533;  -81.025; -812.000; -790.000
312.670; -135.525;-1070.000; -898.000
312.807;  -36.900; -352.000; -367.000
312.944;  -92.875; -513.000; -611.000
313.081;  -28.525; -150.000; -415.000
313.218; -106.950;-1111.000; -867.000
313.355;    6.225; -531.000; -449.000
313.492;   -8.150; -455.000; -292.000
313.629;  108.725;  815.000;  735.000
313.766; -157.725;-1176.000;-1008.000
313.902;  -17.950; -186.000;   21.000
314.039;  -50.275; -372.000; -289.000
314.176;   27.275;  286.000;  192.000
314.313;  -73.225; -569.000; -473.000
314.450;  -68.100; -788.000; -684.000
314.587;  -60.175; -468.000; -480.000
314.723;  -13.625;  -78.000;  130.000
314.860;   15.750;  318.000;  332.000
314.997;   12.375;  223.000;  142.000
315.134;  -41.925; -385.000; -368.000
315.270;  -32.425; -480.000; -496.000
315.407; -137.225;-1094.000; -967.000
315.544;  -57.450; -657.000; -538.000
315.681;  -69.225; -681.000; -565.000
315.817;   33.975; -133.000; -176.000
315.954;    6.525; -613.000; -392.000
316.091; -129.550;-1045.000;-1023.000
316.227;  -40.775;  -71.000; -179.000
316.364;   -6.200;   23.000;    6.000
316.500;  -43.550; -113.000; -300.000
316.637;  -34.125; -181.000; -302.000
316.774;  -95.825; -625.000; -358.000
316.910;  -97.200; -598.000; -629.000
317.047;  -65.325; -487.000; -351.000
317.183;  -52.400; -435.000; -566.000
317.320;  -15.700; -367.000; -321.000
317.456;  -66.375; -733.000; -805.000
317.593; -100.025; -598.000; -641.000
317.729;    4.400;  168.000;  -67.000
317.866; -211.125;-1434.000;-1285.000
318.002;  -96.950; -708.000; -948.000
318.139; -116.275; -883.000; -867.000
318.275; -105.525;-1003.000; -738.000
318.412;  -68.725; -517.000; -336.000
318.548;  -47.775; -751.000; -720.000
318.685; -104.175; -985.000; -888.000
318.821; -100.000; -762.000; -735.000
318.957;  -38.600;   34.000;  -23.000
319.094;   39.025;  297.000;  154.000
319.230;  -67.875; -756.000; -742.000
319.367;  109.625; -471.000; -520.000
319.503;   19.275; -538.000; -436.000
319.639;  -94.450; -877.000; -793.000
319.775;  -76.700; -750.000; -685.000
319.912;  -55.500; -424.000; -519.000
320.048; -102.175;-1184.000;-1184.000
320.184;   68.225;   59.000;   70.000
320.321;  -67.175; -497.000; -467.000
320.457;   71.900;  475.000;  662.000
320.593;  -74.600; -375.000; -382.000
320.729;  -92.400; -732.000; -734.000
320.866;  -80.675; -577.000; -635.000
321.002;  -81.775; -759.000; -809.000
321.138;  -28.000; -135.000; -211.000
321.274;   71.850; -148.000; -115.000
321.410;  -22.450; -585.000; -353.000
321.546;  -45.100;-1011.000; -911.000
321.683;   50.375;  400.000;  185.000
321.819;    4.275;  -48.000; -117.000
321.955; -106.500; -743.000; -722.000
322.091;  -41.650; -585.000; -540.000
322.227;  -18.400; -382.000; -202.000
322.363;  -22.375; -320.000; -215.000
322.499;  -50.525; -343.000; -331.000
322.635;  154.775;  636.000;  443.000
322.771;   22.000; -139.000;   12.000
322.907;   81.275;  129.000;  327.000
323.043;  -24.750; -115.000; -206.000
323.179;  -39.875; -394.000; -363.000
323.315;  -10.500; -401.000; -371.000
323.451;   69.125; -328.000; -236.000
323.587;   65.300;  -60.000;  -77.000
323.723;   -0.325; -682.000; -601.000
323.859;  -24.100; -258.000;  -76.000
323.995;  -42.625; -467.000; -409.000
324.131; -122.075; -967.000; -892.000
324.267;  -40.275; -254.000; -276.000
324.402; -126.700; -960.000; -983.000
324.538;  -14.150; -279.000; -104.000
324.674;    7.700;  164.000;   77.000
324.810;  104.125;  226.000;  308.000
324.946;  -18.875; -810.000; -658.000
325.082;  -88.425; -568.000; -475.000
325.217;  -12.250;  -62.000;   16.000
325.353; -100.825; -764.000; -659.000
325.489;  -95.100; -540.000; -506.000
325.625;  -79.025; -579.000; -525.000
325.760;   58.750;  517.000;  376.000
325.896;  -24.100; -515.000; -702.000
326.032;  -58.450; -403.000; -352.000
326.168;  -63.375; -462.000; -369.000
326.303;  -65.150; -352.000; -461.000
326.439;  -23.925; -336.000; -276.000
326.575;  -12.050; -190.000;  -29.000
326.710;   -7.875; -156.000;  -30.000
326.846;  -24.800;  146.000;  103.000
326.982;  -78.025; -530.000; -548.000
327.117;  -79.525; -481.000; -442.000
327.253;  -74.425; -745.000; -742.000
327.388; -171.500;-1137.000;-1153.000
327.524;  -58.675; -811.000; -578.000
327.659;  -28.350;  -58.000;  -22.000
327.795;  -12.425;   69.000;   45.000
327.931;  -77.400; -723.000; -499.000
328.066;  -40.225; -417.000; -276.000
328.202;  -24.850;   12.000; -129.000
328.337;   93.450;  957.000;  713.000
328.473;   29.550;  -12.000;  -74.000
328.608;  -26.275; -256.000; -267.000
328.743; -101.050; -799.000; -664.000
328.879;   26.300;  214.000;  114.000
329.014;  -38.250; -102.000; -122.000
329.150;  -86.825; -358.000; -483.000
329.285;  -89.475; -465.000; -466.000
329.421;  -39.325; -548.000; -246.000
329.556;  -29.850;  -36.000;   85.000
329.691;  -99.425; -633.000; -615.000
329.827;  -96.350; -626.000; -480.000
329.962;  -47.225;  131.000; -301.000
330.097;  -96.725; -673.000; -585.000
330.233;  -52.725; -410.000; -223.000
330.368; -130.100; -839.000; -628.000
330.503;  -18.950;    3.000;   98.000
330.638;    8.950;  -93.000; -125.000
330.774;  -58.375; -609.000; -530.000
330.909;  -70.100; -434.000; -244.000
331.044; -101.575; -714.000; -708.000
331.179; -173.250;-1217.000;-1109.000
331.315;    4.750;   77.000;   20.000
331.450;   -0.850;  157.000;  285.000
331.585;  -87.175; -805.000; -706.000
331.720; -102.575; -510.000; -460.000
331.855;  -18.350;  -35.000; -102.000
331.990;  260.050;   62.000;  138.000
332.126;  129.475; -110.000;   71.000
332.261;  -31.450; -379.000; -265.000
332.396;   -9.325; -135.000; -242.000
332.531;  -90.250;-1074.000;-1031.000
332.666;   39.750; -519.000; -363.000
332.801; -115.500; -726.000; -807.000
332.936;  -23.675; -192.000; -122.000
333.071; -167.125; -870.000; -817.000
333.206;   22.125;  307.000;  379.000
333.341;   20.050;  344.000;  418.000
333.476;  -81.875; -627.000; -623.000
333.611;  -48.600; -251.000; -173.000
333.746;  -53.275; -381.000; -464.000
333.881; -122.025; -973.000; -935.000
334.016; -127.675; -936.000; -917.000
334.151; -134.800; -746.000; -702.000
334.286;   29.850;  152.000;  186.000
334.421;  -29.650; -125.000; -178.000
334.556;  -81.675; -611.000; -567.000
334.690;  -87.900; -631.000; -577.000
334.825;   40.950;  381.000;   83.000
334.960;  -67.400; -285.000; -413.000
335.095;    6.400;  135.000;  -91.000
335.230; -108.125; -722.000; -738.000
335.365; -128.325;-1084.000; -990.000
335.499; -136.500;-1108.000;-1037.000
335.634;   10.800;    9.000;  534.000
335.769; -112.100; -755.000; -720.000
335.904;  -74.525; -603.000; -561.000
336.038;  -64.350; -735.000; -657.000
336.173; -128.025;-1206.000;-1194.000
336.308;   -8.600; -116.000; -189.000
336.443;   20.200; -544.000; -634.000
336.577;  -77.550; -936.000; -787.000
336.712;   50.225;   -4.000;  -12.000
336.847;  -58.075; -724.000; -607.000
336.981;   55.325; -272.000; -208.000
337.116;  236.950;  615.000;  501.000
337.250;  119.425; -434.000; -421.000
337.385;  273.650; -297.000; -208.000
337.520;  107.825; -632.000; -603.000
337.654;  -57.825; -215.000; -126.000
337.789; -137.650; -989.000; -933.000
337.923;  -40.550; -104.000; -205.000
338.058;  -95.850; -673.000; -738.000
338.192;  -43.350; -611.000; -488.000
338.327;   -9.725;  -18.000; -155.000
338.461;  -76.225; -299.000; -469.000
338.596;  -90.975; -780.000; -638.000
338.730; -110.650; -767.000; -803.000
338.865;  109.175;  -46.000; -140.000
338.999;  -38.025; -846.000; -702.000
339.134;  -20.425; -634.000; -536.000
339.268;   10.350; -741.000; -603.000
339.403;  377.800; -740.000; -775.000
339.537;  133.200; -894.000; -820.000
339.671; -115.675; -829.000; -813.000
339.806;  -57.000; -556.000; -512.000
339.940;   17.175; -261.000; -235.000
340.074;  -94.400; -685.000; -510.000
340.209;  -42.650; -351.000; -230.000
340.343; -100.950; -517.000; -573.000
340.477;  140.375;  998.000; 1036.000
340.612;  -46.375;-1033.000; -900.000
340.746;  143.500; -199.000; -243.000
340.880;  -73.400; -924.000; -785.000
341.014;  -24.925;  -45.000; -154.000
341.149; -115.775; -756.000; -718.000
341.283; -114.575; -839.000; -754.000
341.417; -106.850;-1124.000; -938.000
341.551;  102.575; -768.000; -708.000
341.685;  -36.450; -633.000; -611.000
341.820;  -52.700; -562.000; -493.000
341.954;  -55.725; -218.000; -349.000
342.088; -145.875;-1102.000;-1019.000
342.222;   38.300;  565.000;  618.000
342.356;  -51.075; -395.000; -335.000
342.490; -113.250; -880.000; -841.000
342.624;  -44.725; -339.000; -242.000
342.758;  -28.025; -364.000; -312.000
342.892;  -67.325; -710.000; -585.000
343.026;  -49.650;  -58.000; -116.000
343.160;  -66.550; -426.000; -376.000
343.294;  -91.950; -474.000; -337.000
343.428;  -41.075; -488.000; -448.000
343.562;  -20.850; -172.000;  -23.000
343.696;  -35.500; -385.000; -314.000
343.830;  -27.700; -362.000; -356.000
343.964;   -6.250; -231.000; -168.000
344.098;  790.700;  199.000;   70.000
344.232;  639.125; -266.000; -127.000
344.366;   71.050; -567.000; -453.000
344.500;   43.000; -665.000; -744.000
344.634;   -2.250; -324.000; -164.000
344.768;  -16.800; -531.000; -341.000
344.902;   20.075;  278.000;  256.000
345.035;  -62.975; -556.000; -496.000
345.169; -133.275; -933.000; -656.000
345.303;  -45.400; -308.000; -482.000
345.437;  -92.550; -826.000; -717.000
345.571;  -75.475; -675.000; -594.000
345.704;  -78.475; -309.000; -532.000
345.838;   -7.575; -331.000; -284.000
345.972;  -56.200; -543.000; -495.000
346.106;  186.175; -179.000; -190.000
346.239;  402.000; -312.000; -243.000
346.373;   -9.175; -343.000; -302.000
346.507; -145.275; -950.000; -962.000
346.640;  114.200;  -30.000;   13.000
346.774;  -59.250; -650.000; -797.000
346.908;  -20.750; -138.000;  -11.000
347.041; -104.325; -646.000; -593.000
347.175;   -6.725;  259.000;   27.000
347.309;  -79.975; -698.000; -628.000
347.442;  -96.900; -883.000; -732.000
347.576;  243.000;  670.000;  668.000
347.709;  157.800; -123.000;  -52.000
347.843; -101.150; -933.000; -825.000
347.976;   48.725;  235.000;  294.000
348.110; -194.400;-1268.000;-1186.000
348.243; -106.325; -679.000; -772.000
348.377;  -10.250;  -26.000;   60.000
348.510;   36.500;  403.000;  540.000
348.644;  -38.150;  -37.000; -159.000
348.777;    0.575;  180.000;  191.000
348.911;  -61.550; -142.000; -112.000
349.044;  150.650;  471.000;  448.000
349.178;  100.950;-1069.000;-1006.000
349.311;  119.825;  141.000;  255.000
349.444;   -7.325; -927.000; -813.000
349.578;  -28.650; -347.000; -200.000
349.711; -107.050; -959.000; -862.000
349.845;   -7.775; -661.000; -591.000
349.978; -150.550;-1224.000;-1137.000
350.111;  -82.725; -546.000; -612.000
350.244;  -92.350; -596.000; -700.000
350.378;   -9.925; -392.000; -393.000
350.511;  -75.750; -393.000; -426.000
350.644; -103.675; -808.000; -806.000
350.778;    1.275;  168.000;  104.000
350.911;   -2.525;  134.000;  140.000
351.044; -104.625; -685.000; -615.000
351.177;  -41.575; -321.000; -281.000
351.310;  -35.050;    3.000; -131.000
351.444;  -80.950; -888.000; -788.000
351.577;   92.700;  140.000;   90.000
351.710;  103.425;  593.000;  417.000
351.843;  -28.425; -165.000;  -77.000
351.976;  -18.350;  149.000;  -79.000
352.109;  -97.550; -621.000; -612.000
352.242;  -35.375; -464.000; -419.000
352.376;  -71.350; -580.000; -636.000
352.509;  137.200; -437.000; -356.000
352.642;  -13.800; -654.000; -604.000
352.775;   44.700; -141.000;  -98.000
352.908; -129.225; -933.000; -904.000
353.041; -115.925; -814.000; -824.000
353.174;  -73.700; -551.000; -424.000
353.307;  -87.925; -753.000; -764.000
353.440;   61.750;  541.000;  453.000
353.573; -115.375; -957.000;-1008.000
353.706;  -50.325; -384.000; -558.000
353.839;  -30.625; -264.000; -220.000
353.971; -102.275; -657.000; -512.000
354.104;  -81.800; -896.000; -835.000
354.237;  -48.350; -627.000; -662.000
354.370;  -93.775; -846.000; -879.000
354.503; -180.100;-1231.000;-1308.000
354.636;  -38.675; -529.000; -348.000
354.769; -130.550; -937.000; -860.000
354.902;  -19.400; -230.000; -139.000
355.034;  -29.500; -164.000; -220.000
355.167;  -25.750; -262.000; -162.000
355.300;  -97.525;-1061.000; -880.000
355.433; 1016.600;  -71.000;  -14.000
355.565; 1624.450; -402.000; -384.000
355.698;  413.200; -356.000; -296.000
355.831;   -6.050; -882.000; -801.000
355.964;   50.525; -285.000; -170.000
356.096;  -97.125; -856.000; -843.000
356.229;    0.850; -523.000; -530.000
356.362;  331.300; -373.000; -266.000
356.494;  617.275; -229.000; -162.000
356.627;  432.325;  269.000;  377.000
356.760;  673.075;  120.000;   53.000
356.892; 1038.575; -286.000; -601.000
357.025;  583.125;  403.000;  389.000
357.157;  518.850; -167.000; -179.000
357.290;  745.950; -856.000; -713.000
357.423;  214.575; -667.000; -556.000
357.555;  110.925; -217.000; -228.000
357.688;   96.150; -483.000; -364.000
357.820;  414.150; -870.000; -877.000
357.953; 3395.350; -563.000; -589.000
358.085;  702.050; -632.000; -612.000
358.218;  887.550;-1131.000; -932.000
358.350;  161.300;  -58.000;  312.000
358.483; -139.275;-1300.000;-1187.000
358.615;  -40.675;-1182.000;-1078.000
358.747;  -79.275;-1187.000;-1058.000
358.880;    0.275; -810.000; -744.000
359.012;  -19.550; -376.000; -202.000
359.145;  -52.350; -480.000; -511.000
359.277;   36.850; -962.000; -913.000
359.409; 2757.750;  536.000;  231.000
359.542;  731.350; -738.000; -688.000
359.674;   73.975;   46.000;   13.000
359.806;  -59.175; -565.000; -438.000
359.939;  -51.050; -617.000; -516.000
360.071;  -15.700; -583.000; -579.000
360.203;  -30.425; -411.000; -364.000
360.335;   31.675;  164.000;  -16.000
360.468;  195.475; -249.000; -307.000
360.600; 2280.175; -547.000; -454.000
360.732; 3041.925; -546.000; -423.000
360.864;  422.250;-1216.000;-1044.000
360.996;  204.300; -516.000; -554.000
361.129;   16.675; -389.000; -598.000
361.261;   20.200;  110.000; -113.000
361.393;  -48.850; -252.000; -214.000
361.525;   11.375;   94.000;  244.000
361.657;  -59.250; -821.000; -703.000
361.789;   -2.000; -139.000; -155.000
361.921;  161.200; -642.000; -593.000
362.053;  221.825;  524.000;  541.000
362.185;   26.800;  288.000;   72.000
362.318;  -89.100; -709.000; -705.000
362.450;   79.375;  294.000;  444.000
362.582;   28.175; -913.000; -870.000
362.714;  -48.700; -353.000; -332.000
362.846;  -81.900; -606.000; -490.000
362.978; -149.050; -941.000; -811.000
363.109;   33.400; -161.000; -260.000
363.241;  346.300; -739.000; -749.000
363.373;  455.975; -649.000; -564.000
363.505;  697.825; -186.000;  -91.000
363.637;  178.700; -787.000; -601.000
363.769; -133.700;-1067.000;-1080.000
363.901;  -76.925; -596.000; -654.000
364.033; -132.275;-1103.000;-1062.000
364.165;   -8.400; -283.000; -283.000
364.296;   74.475; -316.000; -177.000
364.428;   90.300;-1344.000;-1220.000
364.560;  -77.675; -679.000; -661.000
364.692;  -57.650; -738.000; -835.000
364.824;  183.250; -588.000; -456.000
364.955;  451.925; -402.000; -564.000
365.087; 1038.075;-1097.000; -852.000
365.219;   25.500; -686.000; -816.000
365.351;  -68.325; -526.000; -572.000
365.482;   51.225;  300.000;  240.000
365.614;  -67.675; -402.000; -314.000
365.746; -100.025; -729.000; -752.000
365.877;  -99.150; -706.000; -672.000
366.009;  290.350;  -35.000;  -62.000
366.141;  -92.075;-1249.000;-1134.000
366.272; -108.475; -803.000; -719.000
366.404; -124.150;-1005.000; -874.000
366.535;   -2.850; -139.000;  -12.000
366.667; -113.850; -644.000; -649.000
366.799;   34.600;  353.000;  203.000
366.930; -128.950; -862.000; -996.000
367.062;  117.700; -639.000; -613.000
367.193;  179.275; -872.000; -842.000
367.325;  -35.325; -580.000; -684.000
367.456;   10.000; -246.000;   31.000
367.588;  168.375; -371.000; -318.000
367.719;   18.375;  -44.000;  -45.000
367.851;  -15.650; -222.000; -241.000
367.982;  -78.650; -875.000; -732.000
368.113;   69.300; -475.000; -358.000
368.245; -132.225; -960.000; -841.000
368.376;  -34.500; -254.000; -302.000
368.508;  -47.450; -188.000; -263.000
368.639; -141.500;-1166.000;-1034.000
368.770;  -44.400; -670.000; -589.000
368.902;  -74.825; -836.000; -926.000
369.033; -109.425; -906.000; -855.000
369.164;  -56.125; -720.000; -653.000
369.296; -114.325; -452.000; -601.000
369.427;   -7.125; -209.000; -144.000
369.558;  -74.200; -593.000; -377.000
369.689;  -89.550; -721.000; -569.000
369.821; -140.475; -951.000; -845.000
369.952;  -14.300;   42.000; -108.000
370.083;  -43.800; -229.000; -108.000
370.214; -104.875; -735.000; -650.000
370.345;  -23.525;   65.000;   81.000
370.477;  -94.300; -810.000; -790.000
370.608;  181.775; -328.000; -264.000
370.739;  -67.500;-1233.000;-1292.000
370.870;  -74.050;-1102.000; -923.000
371.001;   68.375; -378.000; -467.000
371.132;  -98.000; -754.000; -735.000
371.263;  -35.800;  -42.000; -148.000
371.394; -149.675; -841.000; -748.000
371.525;   17.725;  345.000;  225.000
371.657;  -97.225; -808.000; -670.000
371.788;   68.975;  103.000;  199.000
371.919;  130.050; -384.000; -304.000
372.050; 3218.125;  -91.000; -156.000
372.181;  975.075; -188.000; -294.000
372.311;  317.750;   42.000; -127.000
372.442;   22.950; -457.000; -451.000
372.573;  -34.325; -444.000; -340.000
372.704; -136.425;-1008.000; -980.000
372.835;   60.700; -228.000; -289.000
372.966;  -64.325; -646.000; -554.000
373.097;  -70.800; -575.000; -711.000
373.228;  -57.900; -717.000; -542.000
373.359;   90.950; -824.000; -536.000
373.490;  777.975; -881.000; -727.000
373.620; 1026.025;-1001.000; -803.000
373.751; 1508.025; -332.000; -396.000
373.882;  704.400; -663.000; -733.000
374.013;   37.125; -449.000; -262.000
374.143;  -55.300; -581.000; -659.000
374.274; -124.575; -987.000; -908.000
374.405;  160.675; -388.000; -276.000
374.536;  364.450; -526.000; -387.000
374.666;  926.150; -759.000; -807.000
374.797;  159.950; -817.000; -868.000
374.928;  699.550; -710.000; -560.000
375.058;  748.975; -535.000; -500.000
375.189;   55.100;  -59.000;  -93.000
375.320; -116.700; -928.000;-1034.000
375.450;  -46.800; -625.000; -616.000
375.581;  -55.350; -526.000; -436.000
375.712;  -37.800; -574.000; -250.000
375.842;  226.475; -438.000; -415.000
375.973;  162.875; -554.000; -513.000
376.103;  -87.175; -665.000; -648.000
376.234;  -81.475; -531.000; -552.000
376.364;  -70.400; -944.000; -867.000
376.495;  274.975;  925.000;  529.000
376.625;  -31.700; -472.000; -485.000
376.756;   36.775; -709.000; -678.000
376.886; -100.775;-1178.000;-1026.000
377.017;   56.975;-1048.000;-1061.000
377.147;  387.150; -786.000; -782.000
377.278;   56.300;  174.000;  228.000
377.408; -127.075; -801.000; -815.000
377.538; -111.775; -707.000; -693.000
377.669;  -81.800; -537.000; -613.000
377.799;  -88.600; -645.000; -635.000
377.929;  -78.950; -610.000; -428.000
378.060; -133.100; -781.000; -847.000
378.190;  -73.775; -726.000; -531.000
378.320;  -40.875; -401.000; -406.000
378.451;  -30.675; -131.000;  -22.000
378.581;  -29.150;  -67.000; -110.000
378.711;  126.100; 1035.000;  866.000
378.841;  -33.075; -533.000; -675.000
378.972;  -93.600; -871.000; -751.000
379.102;  -32.850; -652.000; -579.000
379.232;  -37.200; -126.000;  -73.000
379.362; -117.300;-1001.000; -885.000
379.492;  -11.900; -373.000; -424.000
379.623;   76.825;    0.000;  111.000
379.753; -127.125;-1107.000; -974.000
379.883;  163.225;   59.000;  156.000
380.013;  -28.950;-1081.000;-1017.000
380.143; -106.075;-1097.000;-1056.000
380.273; -117.175; -985.000; -861.000
380.403;  -12.025; -344.000; -257.000
380.533;  -45.175; -651.000; -664.000
380.663;   48.075;  173.000;  128.000
380.793; -116.100;-1027.000;-1074.000
380.923;  -27.500; -103.000;  -34.000
381.053;  -96.050; -613.000; -623.000
381.183;  -22.825; -106.000; -248.000
381.313;    8.650; -656.000; -470.000
381.443;   25.525; -692.000; -473.000
381.573;  141.950; -402.000; -409.000
381.703;  200.400;-1249.000;-1095.000
381.833; -150.875;-1454.000;-1336.000
381.963;   89.050; -134.000;  -87.000
382.093; 1270.500; -925.000; -909.000
382.223;  398.150; -713.000; -602.000
382.353;  -18.825; -801.000; -608.000
382.482;  285.075;-1091.000; -964.000
382.612;  638.800; -872.000; -644.000
382.742;  383.025; -695.000; -622.000
382.872;  208.450; -565.000; -551.000
383.002;   67.850;  347.000; -132.000
383.131;  -40.075; -226.000; -160.000
383.261;  -52.525; -706.000; -768.000
383.391;  272.075; -552.000; -377.000
383.521; 3454.500;  451.000;  263.000
383.650;  910.450; -947.000; -904.000
383.780;   -7.025; -783.000; -656.000
383.910;   92.350;  880.000;  802.000
384.039;   -9.125; -794.000; -656.000
384.169;  144.525;-1205.000;-1017.000
384.299;  -26.275; -650.000; -662.000
384.428; -102.000; -764.000; -680.000
384.558;  -42.650; -308.000; -275.000
384.687;  -54.275; -414.000; -334.000
384.817;   -0.100;   75.000;   -2.000
384.947;   -9.525; -234.000; -141.000
385.076;  252.025;  982.000;  912.000
385.206;   69.800;  369.000;  480.000
385.335;  -33.575; -549.000; -417.000
385.465;  -97.225; -655.000; -663.000
385.594;   88.650;  -53.000;  -44.000
385.724;  324.350; -868.000; -838.000
385.853;   96.800; -296.000; -270.000
385.982; 1153.475; -743.000; -787.000
386.112; 1868.575;-1052.000; -871.000
386.241;  130.900; -307.000; -312.000
386.371;   14.375; -174.000;  -87.000
386.500;  -19.650; -825.000; -789.000
386.629;   18.500; -874.000; -817.000
386.759;   58.925;  -43.000;   68.000
386.888;  -19.325; -170.000; -250.000
387.017;  -95.925; -648.000; -620.000
387.147; -108.475; -771.000; -798.000
387.276;  -26.100; -410.000; -397.000
387.405;    5.275; -398.000; -342.000
387.535;  -54.825; -452.000; -361.000
387.664;  -55.650; -692.000; -620.000
387.793;   46.050; -198.000; -113.000
387.922;  419.450;  255.000;  200.000
388.052;  -21.725; -576.000; -423.000
388.181;  -19.450; -342.000; -472.000
388.310;  -43.525; -889.000; -710.000
388.439;  -71.250; -749.000; -742.000
388.568;  135.300;  365.000;  244.000
388.697;  877.825; -756.000; -653.000
388.826;  139.800; -768.000; -666.000
388.956;   27.975; -285.000; -307.000
389.085;  -45.825; -347.000; -287.000
389.214; -115.100; -842.000; -872.000
389.343;  -73.950; -645.000; -413.000
389.472;  420.150;  126.000;  149.000
389.601;  514.975;   91.000;    0.000
389.730;    6.225; -568.000; -687.000
389.859;   39.650;  226.000;   46.000
389.988;  149.100; -423.000; -408.000
390.117;  112.200; -168.000; -146.000
390.246;  -11.700; -331.000; -320.000
390.375;   66.525; -673.000; -626.000
390.504;  -66.200; -703.000; -621.000
390.633; -103.100; -672.000; -726.000
390.761;  -66.075; -732.000; -645.000
390.890;   -0.250;   -4.000; -130.000
391.019;  -48.800; -421.000; -441.000
391.148; -132.700; -826.000; -855.000
391.277;  -68.575; -576.000; -493.000
391.406; -101.425; -821.000; -805.000
391.534;   10.200;  574.000; -301.000
391.663;  -87.875; -583.000; -645.000
391.792;  -84.125; -673.000; -701.000
391.921;   57.425;   -3.000;   15.000
392.050;  137.850; -287.000; -228.000
392.178;  -76.350;-1206.000;-1061.000
392.307;  105.575; -758.000; -712.000
392.436;   53.050; -427.000; -641.000
392.564;    7.725;  166.000;   -6.000
392.693; -101.425; -860.000; -682.000
392.822;  143.725; -529.000; -534.000
392.950;   44.150; -880.000; -714.000
393.079;  263.700; -188.000; -328.000
393.208;    3.250; -488.000; -511.000
393.336;  -13.000; -170.000; -145.000
393.465;  -49.075; -317.000; -199.000
393.593;   -9.850;   62.000;   79.000
393.722; -155.875;-1121.000; -916.000
393.850;  -29.550; -188.000;  -61.000
393.979; -164.450; -926.000; -805.000
394.107;  -70.425; -517.000; -537.000
394.236;  -51.300; -570.000; -507.000
394.364;  179.700;  383.000;  206.000
394.493;  310.825; -911.000; -767.000
394.621;  -17.150; -955.000; -916.000
394.750;  752.200; -873.000; -923.000
394.878; 3055.025; -247.000; -149.000
395.007; 4333.950; -721.000; -807.000
395.135;  328.500; -790.000; -721.000
395.263; -104.525;-1038.000;-1040.000
395.392;   -1.125;  -25.000; -107.000
395.520; -137.675; -818.000; -679.000
395.648;  -88.925; -865.000; -915.000
395.777;  -26.700; -366.000; -405.000
395.905;  -60.625; -449.000; -564.000
396.033;    2.250;  217.000;  172.000
396.162;  491.650; -399.000; -453.000
396.290;  444.100;  -17.000;   -2.000
396.418;   77.300; -555.000; -514.000
396.546;  -86.850; -571.000; -466.000
396.674; -103.825; -850.000; -878.000
396.803;  -18.925;  -72.000;  -23.000
396.931;   52.350; -179.000; -199.000
397.059;   -0.725;-1026.000; -989.000
397.187; -120.550;-1026.000; -975.000
397.315; -136.725; -884.000; -649.000
397.443;  -99.650; -592.000; -443.000
397.572; -101.525; -578.000; -424.000
397.700;  -32.400; -607.000; -614.000
397.828;  -19.375;  120.000;  -90.000
397.956;  -55.150; -508.000; -478.000
398.084;  -52.225; -767.000; -626.000
398.212;   10.625;  137.000;  124.000
398.340;  -24.800;  -56.000;  159.000
398.468;   14.600; -390.000; -169.000
398.596; -152.950; -993.000; -953.000
398.724; -121.650; -762.000; -767.000
398.852; -170.150;-1024.000; -976.000
398.980;  -71.150; -560.000; -560.000
399.108;  -77.200; -982.000; -735.000
399.236;   15.600;   13.000;    8.000
399.363;   -2.125;  222.000;  196.000
399.491;  -70.325; -404.000; -398.000
399.619; -124.050; -829.000; -800.000
399.747; -101.850; -859.000; -771.000
399.875;   52.225;  220.000;  234.000
400.003;  -48.525; -359.000; -284.000
400.130;  -98.150; -421.000; -341.000
400.258;  -39.625;  -83.000;   38.000
400.386;  -59.800; -352.000; -168.000
400.514;  -59.175; -526.000; -587.000
400.641; -109.450; -928.000; -802.000
400.769; -147.225; -979.000; -888.000
400.897; -123.550; -838.000; -793.000
401.025;  -34.300; -166.000; -152.000
401.152;  -13.075;  220.000;   38.000
401.280;  -98.925; -430.000; -429.000
401.408; -126.050; -712.000; -576.000
401.535; -113.800; -735.000; -758.000
401.663; -190.775;-1134.000;-1054.000
401.790; -100.300; -514.000; -525.000
401.918;   42.725;  436.000;  405.000
402.046;  -24.300;  134.000;  122.000
402.173;  -49.350;  -18.000;    7.000
402.301;  -84.225; -519.000; -397.000
402.428;   25.625;  528.000;  383.000
402.556; -142.375;-1188.000; -913.000
402.683;  -33.775;  -20.000;   -1.000
402.811;  -27.125;  -37.000; -206.000
402.938;  -22.225;   20.000;   27.000
403.066;  144.400; -574.000; -558.000
403.193;  271.900;  299.000;  239.000
403.321;  201.125; -396.000; -574.000
403.448;  266.300;   83.000;   27.000
403.575;  128.475;  -90.000;  -46.000
403.703;  -99.750; -732.000; -557.000
403.830;  -62.100; -531.000; -496.000
403.957; -157.425;-1117.000;-1023.000
404.085;    5.925;  -61.000; -172.000
404.212;   93.675;  -50.000;   63.000
404.339;  250.825; -566.000; -306.000
404.467; 6060.675; -612.000; -524.000
404.594; 3987.100; -287.000; -227.000
404.721;  883.550; -869.000; -764.000
404.848;   78.925; -113.000; -202.000
404.976; -106.975; -856.000; -783.000
405.103;  -19.500;  -14.000;  -82.000
405.230;  -17.100;  190.000;  226.000
405.357;   19.725;  117.000;   44.000
405.484;  283.975;  -49.000;    5.000
405.612;   47.650; -548.000; -563.000
405.739;  -72.925; -488.000; -243.000
405.866;   78.125;  669.000;  385.000
405.993;  -52.850; -398.000; -102.000
406.120; -132.550; -801.000; -887.000
406.247;  -78.775; -323.000; -342.000
406.374;  349.975;  540.000;  629.000
406.501;   57.150; -632.000; -702.000
406.628;  -84.000; -621.000; -589.000
406.755; -116.775; -803.000; -620.000
406.882;  -44.625; -228.000; -277.000
407.009; -106.550; -719.000; -628.000
407.136;   15.500; -480.000; -401.000
407.263;   74.425; -939.000; -829.000
407.390;  -94.675; -692.000; -614.000
407.517; -188.000;-1139.000;-1187.000
407.644;  -65.150; -332.000; -256.000
407.771;  -65.050; -249.000; -287.000
407.898;   -4.550;  168.000;  328.000
408.025;  -75.750; -421.000; -313.000
408.151;  -13.850;   82.000;  153.000
408.278;  -76.900; -267.000; -216.000
408.405; -135.050; -931.000; -899.000
408.532;  -83.925; -549.000; -542.000
408.659; -125.500; -677.000; -648.000
408.785; -221.525;-1298.000;-1170.000
408.912;  -80.425; -412.000; -296.000
409.039; -134.075; -610.000; -686.000
409.166; -106.875; -591.000; -555.000
409.292; -111.125; -571.000; -534.000
409.419; -121.925; -665.000; -649.000
409.546;  -89.875; -431.000; -192.000
409.672; -108.625; -713.000; -545.000
409.799;  -23.025;  -36.000;   34.000
409.926;  -49.225; -180.000; -179.000
410.052; -187.675;-1127.000;-1091.000
410.179;  -59.475; -368.000; -392.000
410.305; -107.175; -375.000; -493.000
410.432;  -63.875; -220.000; -333.000
410.558;  -94.350; -305.000; -380.000
410.685; -126.850; -688.000; -431.000
410.812; -105.075; -409.000; -588.000
410.938; -139.250; -964.000; -808.000
411.065; -115.825; -671.000; -645.000
411.191;  -25.600; -189.000; -174.000
411.317; -135.900; -823.000; -742.000
411.444;  -58.750; -317.000; -246.000
411.570;  -72.050; -339.000; -294.000
411.697; -124.900; -758.000; -752.000
411.823; -173.950; -989.000; -999.000
411.949;  -33.750;  -56.000;   17.000
412.076; -124.275; -539.000; -519.000
412.202; -124.000; -758.000; -757.000
412.329; -131.875; -798.000; -752.000
412.455; -129.850; -821.000; -657.000
412.581;  -27.275;  -15.000;  172.000
412.707;  -76.450; -540.000; -457.000
412.834;   14.225;  156.000;  219.000
412.960;  -97.500; -785.000; -784.000
413.086; -106.425; -743.000; -701.000
413.212;  132.800;  604.000;  578.000
413.339;  -92.200; -685.000; -701.000
413.465;  -15.225; -364.000; -310.000
413.591;  -95.175; -757.000; -474.000
413.717;  -66.600; -358.000; -366.000
413.843; -147.700; -839.000; -861.000
413.969;  -70.775;  -47.000; -292.000
414.096;  -97.875; -679.000; -679.000
414.222;    2.575;  -33.000;   85.000
414.348;  -51.325; -652.000; -385.000
414.474;   61.350;   38.000;  -52.000
414.600;  -23.975; -126.000; -144.000
414.726;  -13.000;  -96.000;  -55.000
414.852;  -70.550; -365.000; -342.000
414.978;   30.750;  104.000;  -18.000
415.104;   38.800;   38.000;   80.000
415.230;   25.275; -329.000; -330.000
415.356;   19.600; -409.000; -514.000
415.482;  201.275;   13.000;  -35.000
415.608;  277.050; -247.000; -323.000
415.734;  988.925;   67.000;   38.000
415.860;20429.850; -875.000; -767.000
415.986;15839.675; -685.000; -607.000
416.111; 1397.475; -798.000; -652.000
416.237;  279.350; -424.000; -571.000
416.363; 1155.600; -765.000; -733.000
416.489; 4550.050; -324.000; -251.000
416.615;  522.600; -707.000; -742.000
416.741;   -7.050; -677.000; -784.000
416.866;  -99.050; -673.000; -736.000
416.992; -115.325; -801.000; -818.000
417.118;  -30.575;  -41.000;  -80.000
417.244;  -68.825; -798.000; -531.000
417.369; -106.425; -801.000; -612.000
417.495;  -31.225; -325.000; -254.000
417.621;  -94.875;-1015.000; -803.000
417.746;   -7.475; -579.000; -572.000
417.872;   46.025; -254.000; -144.000
417.998;   56.175; -515.000; -530.000
418.123; 1077.875;-1073.000; -845.000
418.249; 5850.925; -512.000; -601.000
418.374;  894.950; -916.000; -824.000
418.500;  115.225; -383.000; -482.000
418.626;  114.700;   70.000;  -59.000
418.751;  120.075; -549.000; -448.000
418.877;  190.775; -637.000; -643.000
419.002; 1821.450; -688.000; -560.000
419.128;13420.350; -930.000; -721.000
419.253; 3561.375; -967.000; -837.000
419.379;  456.225; -391.000; -338.000
419.504;  421.550;  325.000;  415.000
419.629;  541.675; -393.000; -212.000
419.755; 3703.725; -317.000; -254.000
419.880;23112.850;  -98.000;   67.000
420.006;12237.625; -280.000; -221.000
420.131;31627.475; -662.000; -775.000
420.256; 4845.700; -315.000; -316.000
420.382;  617.475; -665.000; -687.000
420.507;   81.150; -649.000; -778.000
420.632;  102.325; -337.000; -339.000
420.758;  175.500; -251.000; -425.000
420.883;  -94.125; -876.000; -672.000
421.008; -117.000; -775.000; -619.000
421.133;  -86.650; -509.000; -467.000
421.259;  -48.200; -325.000; -259.000
421.384; -126.450; -834.000; -693.000
421.509;  -73.375;-1052.000; -862.000
421.634;  847.125; -936.000; -820.000
421.759;  403.900; -359.000; -327.000
421.885;  -75.600; -717.000; -656.000
422.010;  -97.450; -673.000; -542.000
422.135; -149.100; -695.000; -727.000
422.260;   30.800;  340.000;  280.000
422.385;  -43.525;   12.000;  -98.000
422.510;    0.600;  151.000;  -26.000
422.635;   -6.275;  -87.000;  -43.000
422.760;   69.950; -766.000; -791.000
422.885;   42.575;  -57.000;  -80.000
423.010;  -39.700; -112.000; -169.000
423.135;  -98.575; -481.000; -561.000
423.260;  -21.075; -150.000; -245.000
423.385;   29.350;  476.000;  222.000
423.510;   13.125;   71.000;  -22.000
423.635;   55.600;  133.000;   45.000
423.760;   40.675;  383.000;  328.000
423.885;   35.625;  336.000;  391.000
424.010;   15.175;  -68.000;  -13.000
424.135;  -20.325;    5.000;  -33.000
424.259;  -79.325; -654.000; -457.000
424.384;  -63.750; -279.000; -272.000
424.509;  -22.750; -260.000; -186.000
424.634; -111.350; -761.000; -623.000
424.759;  -32.825; -688.000; -544.000
424.883;  -11.725; -506.000; -527.000
425.008;  150.400; -502.000; -410.000
425.133; 2080.400; -679.000; -653.000
425.258; 1030.100; -517.000; -381.000
425.382;  897.400; -867.000; -774.000
425.507; 2360.875; -487.000; -543.000
425.632;  444.150; -802.000; -663.000
425.756;  495.025; -256.000; -146.000
425.881; 6981.550; -831.000; -857.000
426.006;20062.650; -604.000; -355.000
426.130; 3206.225; -696.000; -508.000
426.255;  407.700; -611.000; -491.000
426.379;  167.400; -189.000; -577.000
426.504;  387.475;  660.000;  544.000
426.629; 4110.825; -519.000; -466.000
426.753; 3069.075;   64.000;  -46.000
426.878;  349.075; -252.000; -288.000
427.002;  199.600; -651.000; -668.000
427.127; 1566.450;  -35.000; -158.000
427.251;12113.025;  372.000;  401.000
427.375; 3685.000; -191.000; -173.000
427.500; 2082.975; -616.000; -610.000
427.624;  732.050; -234.000; -400.000
427.749;   93.700; -216.000; -225.000
427.873;  -50.200; -499.000; -412.000
427.997;  -34.075; -222.000; -230.000
428.122;   58.675;  795.000;  703.000
428.246;   55.875;  433.000;  434.000
428.371; -138.075; -869.000; -773.000
428.495; -108.025; -624.000; -646.000
428.619;  -50.750; -186.000; -117.000
428.743;   10.300;   65.000;  132.000
428.868;  -21.425; -732.000; -643.000
428.992; 1196.900; -219.000; -326.000
429.116;  492.975; -329.000; -357.000
429.240;  228.250;  419.000;  426.000
429.365;  -40.200; -454.000; -574.000
429.489;  -59.525; -638.000; -647.000
429.613;   13.425; -236.000; -177.000
429.737;   31.225; -563.000; -432.000
429.861;  263.900; -247.000; -133.000
429.985; 5681.550; -425.000; -305.000
430.109; 6722.575; -770.000; -908.000
430.234;  797.975;   76.000;  -50.000
430.358;   66.600; -250.000; -160.000
430.482;  -68.900; -672.000; -564.000
430.606;  -69.500; -655.000; -375.000
430.730;    3.125; -437.000; -388.000
430.854;   62.100; -909.000; -835.000
430.978;  -82.025; -795.000; -764.000
431.102; -114.075; -499.000; -422.000
431.226; -120.400; -874.000; -815.000
431.350;   15.450;  345.000;  422.000
431.474;  -85.825; -661.000; -373.000
431.597; -158.375;-1060.000; -848.000
431.721;  -68.800; -276.000; -267.000
431.845; -143.500; -704.000; -472.000
431.969;  -99.725; -304.000; -349.000
432.093;  -95.575; -395.000; -317.000
432.217;  -23.750;   32.000;   82.000
432.341;  -96.650; -523.000; -518.000
432.464;    4.625;   96.000;   40.000
432.588;  135.450; -401.000; -329.000
432.712;   81.225;  -52.000;  -52.000
432.836;   26.175;  213.000;  263.000
432.959;  -28.725; -372.000; -311.000
433.083;   74.025;   11.000;    2.000
433.207;  382.925;  285.000;  930.000
433.330; 5287.650; -391.000; -200.000
433.454; 6919.575; -654.000; -638.000
433.578; 3910.175;  583.000;  278.000
433.701;  773.375; -623.000; -675.000
433.825;  119.675; -292.000; -299.000
433.949;  117.050;   28.000;  -72.000
434.072;   29.950; -410.000; -323.000
434.196;  -20.200; -309.000; -117.000
434.319; 3619.500;25482.000;25124.000
434.443;  680.700; -656.000; -603.000
434.566; 2849.400;  281.000;   62.000
434.690;  519.350; -637.000; -383.000
434.813;   65.400; -251.000; -173.000
434.937;  -85.000; -569.000; -696.000
435.060;  -62.250; -423.000; -332.000
435.184;  194.550; -492.000; -217.000
435.307;  126.325;  159.000;  102.000
435.431;  -23.375;  -40.000;   24.000
435.554;  -94.175; -399.000; -240.000
435.677;  -89.925; -350.000; -258.000
435.801;  -42.775;  -25.000;   49.000
435.924;  -18.100;    1.000;  -67.000
436.048; -140.800;-1019.000; -732.000
436.171;  -86.700; -240.000;  -66.000
436.294;  -33.375; -248.000; -229.000
436.417;   90.375; -963.000; -849.000
436.541;  -82.425; -814.000; -840.000
436.664;  -57.625; -242.000; -316.000
436.787;  -36.700;   13.000;  113.000
436.910; -120.525; -792.000; -422.000
437.034;  -12.975;  142.000;  143.000
437.157;   25.850;  -11.000;    0.000
437.280;  -68.225; -392.000; -292.000
437.403; -110.700; -982.000; -869.000
437.526;  409.725; -903.000; -865.000
437.649; 1709.500; -505.000; -332.000
437.772;  237.375; -692.000; -540.000
437.896;   95.650;  700.000;  544.000
438.019; -112.600; -758.000; -503.000
438.142;  -98.725; -596.000; -506.000
438.265;  -53.800; -639.000; -670.000
438.388;  426.050; -520.000; -410.000
438.511;   42.925; -597.000; -394.000
438.634;  -47.725; -247.000; -125.000
438.757; -138.500; -693.000; -619.000
438.880;  -36.675;  -34.000;  -57.000
439.003;  -98.150; -417.000; -437.000
439.126;  -74.025; -287.000; -167.000
439.248;  -75.450;  -98.000; -139.000
439.371;  -35.900;    9.000;  -53.000
439.494;   10.550;  510.000;  439.000
439.617;  -56.200;   65.000;  -88.000
439.740; -187.875; -968.000; -816.000
439.863; -148.500; -755.000; -595.000
439.986; -129.225; -476.000; -431.000
440.108;  -44.325; -161.000; -112.000
440.231; -167.650; -950.000; -836.000
440.354;  -46.725;  -64.000; -150.000
440.477;  -18.950; -566.000; -542.000
440.599;  -13.575; -200.000; -225.000
440.722; -126.875; -709.000; -586.000
440.845;   49.500;  751.000;  928.000
440.968; -112.625; -415.000; -311.000
441.090;  -78.500; -199.000;  -33.000
441.213; -159.825;-1021.000; -825.000
441.336;  -55.875; -159.000;   -5.000
441.458;  -82.425; -549.000; -396.000
441.581; -100.700; -628.000; -629.000
441.703;  -77.950; -152.000;   13.000
441.826; -118.075; -557.000; -400.000
441.948;  -64.850;   56.000;   51.000
442.071;   28.000;  555.000;  424.000
442.193; -121.450; -531.000; -485.000
442.316;   12.850;  152.000;   97.000
442.438;   44.300; -233.000;  -10.000
442.561;   52.950;  272.000;  262.000
442.683;  351.900; -809.000; -522.000
442.806;  898.950;   -8.000;   74.000
442.928;  -29.675; -859.000; -604.000
443.051;  -74.800; -577.000; -373.000
443.173; -102.750; -341.000; -339.000
443.295;  -85.475; -263.000; -371.000
443.418;  -83.275; -321.000;  -29.000
443.540;  -19.800; -106.000;   -4.000
443.662; -125.725; -563.000; -465.000
443.785;  -17.075;  335.000;  199.000
443.907; -101.500; -362.000; -208.000
444.029; -144.850; -767.000; -494.000
444.152; -148.750; -644.000; -554.000
444.274;  -32.025;  -18.000;  -24.000
444.396; -126.350; -461.000; -221.000
444.518; -136.250; -691.000; -454.000
444.640; -111.775; -268.000; -111.000
444.763;  -15.000;  388.000;  249.000
444.885; -125.150; -432.000; -392.000
445.007;  -46.900;   35.000;   86.000
445.129; -109.075; -610.000; -515.000
445.251; -105.500; -372.000; -439.000
445.373; -143.375; -537.000; -386.000
445.495;   -8.750;  242.000;  350.000
445.617;   45.750;  853.000;  753.000
445.739;  -78.650; -215.000;  -97.000
445.861;  -42.925; -245.000; -112.000
445.984;  -41.200; -267.000; -101.000
446.105;  122.550; -418.000; -251.000
446.227;  471.900; -176.000;  -19.000
446.349;  -19.825; -358.000; -249.000
446.471; -117.000; -615.000; -448.000
446.593;  -73.575; -316.000;   19.000
446.715;  -17.125;  -67.000;   41.000
446.837;   44.500;  697.000;  832.000
446.959;  -98.975; -457.000; -478.000
447.081; -145.975; -628.000; -518.000
447.203;   46.100;  862.000;  834.000
447.325;  -82.675; -270.000;   42.000
447.446;   -4.050;  286.000;  530.000
447.568; -173.125; -921.000; -803.000
447.690;  -78.075; -236.000; -245.000
447.812; -153.000; -798.000; -519.000
447.933;  -32.700;  155.000;  127.000
448.055;  -77.150; -306.000; -261.000
448.177;   98.525;   31.000;   79.000
448.299;   31.225; -935.000; -727.000
448.420;   11.775;  -25.000;  159.000
448.542;  -57.250;   -3.000;   33.000
448.664;  -40.350;  109.000;  322.000
448.785;  -36.375;  265.000;   83.000
448.907;  -91.075; -614.000; -353.000
449.028;  -43.050; -771.000; -471.000
449.150;   58.800;  492.000;  589.000
449.272; -183.550;-1044.000; -913.000
449.393;   20.300;  612.000;  694.000
449.515; -138.275; -634.000; -581.000
449.636;  -65.200; -264.000; -155.000
449.758;   66.475;  763.000;  622.000
449.879;  -93.850; -498.000; -396.000
450.001;  -89.025; -149.000;  -49.000
450.122;  -40.925;  -95.000;  162.000
450.244;  -38.050;   37.000;  364.000
450.365;  -87.450; -495.000; -301.000
450.486;  -49.925;   80.000;  268.000
450.608;   11.675;  393.000;  326.000
450.729;   67.300;  578.000;  645.000
450.850;   20.025; -574.000; -466.000
450.972;  766.100; -552.000; -389.000
451.093; 5335.125;  190.000;  588.000
451.214; 2484.250; -516.000; -337.000
451.336;  452.225;  773.000;  579.000
451.457;   69.475;  264.000;  393.000
451.578;  -34.025; -118.000;  -74.000
451.699; -120.425; -546.000; -540.000
451.821;  -71.325; -284.000;  -50.000
451.942;  -10.500;  278.000;  285.000
452.063;   21.200;  228.000;  419.000
452.184;  561.050;  -54.000;  -49.000
452.305; 1184.450;  103.000;  170.000
452.427;  180.400; -549.000; -301.000
452.548;   -8.875;   23.000;   79.000
452.669;  -73.550; -257.000;  -89.000
452.790;  -37.250;    3.000;  -18.000
452.911;  -12.275;  195.000;  259.000
453.032;  -82.425; -289.000;  -60.000
453.153;  -62.875;  -29.000;   81.000
453.274;   48.475;  737.000;  868.000
453.395;  -60.675;  -51.000;  175.000
453.516;  112.750; 1317.000; 1388.000
453.637;  -90.900; -205.000; -150.000
453.758;  -69.025;   15.000;   69.000
453.879; -114.950; -462.000; -250.000
454.000;   77.225; 1086.000;  948.000
454.121; -144.025; -554.000; -326.000
454.242; -118.275; -599.000; -383.000
454.362;  -59.625;  -99.000;  114.000
454.483;  -41.550; -309.000; -229.000
454.604;   29.700;  512.000;  580.000
454.725; -122.925; -627.000; -555.000
454.846; -117.750; -474.000; -406.000
454.967;  -33.250;  230.000;  539.000
455.087;  -51.575;  179.000;  153.000
455.208;   19.825;  554.000;  856.000
455.329;  -62.725;  -22.000;   82.000
455.450;   34.750;  473.000;  633.000
455.570;  -90.675; -234.000; -211.000
455.691;  -51.075;  201.000;  407.000
455.812; -129.400; -270.000;  -92.000
455.932;  -67.850;  107.000;  -97.000
456.053;  -85.775;   36.000;   24.000
456.173; -114.975; -433.000; -355.000
456.294; -144.100; -476.000; -303.000
456.415;  -59.350;  -73.000;   70.000
456.535;  -51.075;  297.000;  273.000
456.656;  -48.425;  132.000;  240.000
456.776;  -84.275;    3.000;  298.000
456.897;  -17.925;  308.000;  513.000
457.017;  -83.825; -153.000;   -3.000
457.138; -119.625; -402.000; -249.000
457.258;  -33.350;  263.000;  224.000
457.379;   -7.950;  509.000;  521.000
457.499;  -40.975;  443.000;  432.000
457.620; -124.350; -407.000; -231.000
457.740;  -95.275; -132.000;  -11.000
457.860;  -57.075;   87.000;   44.000
457.981;  -53.850;  132.000;  124.000
458.101;  -75.825;  -89.000;   40.000
458.221;  -26.175;  336.000;  402.000
458.342;  -56.800;   -4.000;  -37.000
458.462;   27.175;  617.000;  352.000
458.582;  -30.675; -302.000; -294.000
458.703;   15.275;  303.000;  154.000
458.823;  -15.625;   22.000;  163.000
458.943;   15.075;  341.000;  467.000
459.063;  -22.925; 1124.000;  192.000
459.183;   -6.225;  328.000;  313.000
459.304;    7.625;  315.000;  517.000
459.424;  -75.600; -246.000;  -89.000
459.544;  320.350;  388.000;  764.000
459.664;  881.075;  499.000;  506.000
459.784;  352.200; 1004.000; 1175.000
459.904;   41.300;  867.000;  744.000
460.024;   61.425;  867.000;  684.000
460.144;    1.125;  449.000;  554.000
460.264;   -5.050;  515.000;  327.000
460.385;  -95.000; -145.000; -119.000
460.505;   48.500;  905.000;  858.000
460.625;  -92.775;  -17.000;  -68.000
460.745;  -18.650;  396.000;  541.000
460.864;  -57.225;  153.000;  469.000
460.984;    3.350;  499.000;  573.000
461.104;  123.175; 1656.000; 1775.000
461.224;    6.600;  657.000;  650.000
461.344;  -28.900;  431.000;  360.000
461.464;  -31.050;  258.000;  513.000
461.584;  -31.625;  283.000;  466.000
461.704;  -48.500;   58.000;  108.000
461.824;  -66.125;  238.000;  259.000
461.943;  -48.000;  191.000;  130.000
462.063;  -78.450;    2.000;  324.000
462.183;   29.275;  639.000;  717.000
462.303;   81.775; 1678.000; 1230.000
462.422;   18.750;  781.000;  840.000
462.542;  -39.475;  271.000;  391.000
462.662;   25.050;  353.000;  380.000
462.782;  247.000;  833.000;  572.000
462.901;  511.900;  545.000;  717.000
463.021;  285.500; 1702.000; 1638.000
463.141;   -5.075;  337.000;  770.000
463.260;  -22.400;  614.000;  474.000
463.380;   18.200;  902.000;  884.000
463.499;  -38.850;  342.000;  332.000
463.619;  -29.275;  581.000;  559.000
463.738;  108.150; 1644.000;  903.000
463.858;    5.025;  657.000;  811.000
463.978;  -36.125;  542.000;  396.000
464.097;   55.175;  921.000; 1114.000
464.217;  115.100; 1196.000; 1143.000
464.336;  115.400; 1068.000; 1130.000
464.455;  -45.250;  328.000;  659.000
464.575;   44.625;  597.000;  602.000
464.694;  149.225; 1204.000; 1179.000
464.814;  123.950; 1190.000; 1138.000
464.933;   70.350; 1095.000; 1027.000
465.052;   91.350; 1412.000; 1054.000
465.172;   72.675;  922.000;  799.000
465.291;  123.725; 1376.000; 1320.000
465.410;   14.075;  462.000;  735.000
465.530;   89.775; 1355.000; 1310.000
465.649;   53.075; 1209.000; 1273.000
465.768;  123.025; 1673.000; 1508.000
465.888;   60.125;  941.000; 1174.000
466.007;   95.450; 1335.000; 1440.000
466.126;   -7.800;  721.000;  641.000
466.245;   56.125; 1176.000; 1187.000
466.364;   31.125;  950.000; 1060.000
466.484;   48.725; 1024.000; 1213.000
466.603;   21.825; 1101.000; 1222.000
466.722;  100.025; 1490.000; 1769.000
466.841;   78.000; 1151.000; 1401.000
466.960;   42.625; 1069.000;  972.000
467.079;  140.350; 1971.000; 1786.000
467.198;   54.125; 1238.000; 1181.000
467.317;   86.100; 1768.000; 1162.000
467.436;   75.700; 1709.000; 1261.000
467.555;  112.300; 1796.000; 1746.000
467.674;   60.325; 1227.000; 1329.000
467.793;   30.750; 1376.000; 1374.000
467.912;   82.875; 1658.000; 1539.000
468.031;  131.400; 2038.000; 1930.000
468.150;  139.300; 1842.000; 1837.000
468.269;  191.625; 2313.000; 2090.000
468.388;  180.700; 2168.000; 2339.000
468.507;  242.925; 2884.000; 2903.000
468.626;  279.675; 2555.000; 2541.000
468.744;  127.800; 2018.000; 2174.000
468.863;  188.150; 2312.000; 2523.000
468.982;   89.500; 1503.000; 1555.000
469.101;  234.975; 2788.000; 2692.000
469.220;  141.525; 2333.000; 2176.000
469.338;  254.550; 2935.000; 3051.000
469.457;  206.150; 2719.000; 2545.000
469.576;  345.650; 3953.000; 3784.000
469.695;  232.850; 2877.000; 3066.000
469.813;  427.375; 4148.000; 4192.000
469.932;  402.200; 4255.000; 4485.000
470.051;  413.950; 4075.000; 4161.000
470.169;  862.050; 4470.000; 4338.000
470.288; 1561.775; 4700.000; 4809.000
470.406;  938.375; 5059.000; 5194.000
470.525;  623.125; 6101.000; 5787.000
470.644;  631.550; 6847.000; 6794.000
470.762;  819.950; 8397.000; 7873.000
470.881;  906.975; 8651.000; 8464.000
470.999; 1048.400; 9685.000; 9151.000
471.118; 1103.300;11174.000;10711.000

