
Integration time [ms]: 200.000
Averaging Nr. [scans]: 10
Smoothing Nr. [pixels]: 0
Data measured with spectrometer [name]: 2101012U2
Wave   ;Sample   ;Dark     ;Reference
[nm]   ;[counts] ;[counts] ;[counts] 

197.733;  124.200;  516.000;  404.000
197.879; -173.600; -610.000; -634.000
198.025;  -89.300; -475.000; -420.000
198.171; -162.500; -602.000; -612.000
198.317; -101.000; -401.000; -316.000
198.463; -120.500; -655.000; -404.000
198.609;   48.900;  181.000; -137.000
198.755; -171.500; -644.000; -410.000
198.901; -166.700; -505.000; -424.000
199.047; -128.800; -615.000; -488.000
199.193;  -73.900; -230.000; -468.000
199.339;  -93.600; -222.000; -369.000
199.485;  120.500;  330.000;  271.000
199.631;   21.500;  227.000;  310.000
199.777; -107.600; -466.000; -398.000
199.923; -101.800; -610.000; -424.000
200.069;   -4.900; -141.000;  -58.000
200.215;  116.100;  128.000;  453.000
200.361;   98.400;  243.000;  477.000
200.507; -135.500; -600.000; -373.000
200.653;  -58.700; -371.000; -194.000
200.798;  -68.500; -215.000; -125.000
200.944;   -1.300; -146.000;  -41.000
201.090;  106.100;   61.000;  222.000
201.236;    6.500; -116.000; -158.000
201.382;  272.800;  874.000;  903.000
201.528;   10.200;  -58.000;  -48.000
201.674; -109.700; -386.000; -293.000
201.819; -162.400; -540.000; -439.000
201.965; -172.200; -699.000; -447.000
202.111;  -48.800; -273.000; -226.000
202.257;  -42.600; -250.000; -238.000
202.402;    0.800;   13.000;  -36.000
202.548;  -82.200; -169.000; -116.000
202.694;  146.900;  410.000; -183.000
202.840; -129.300; -603.000; -531.000
202.985; -172.600; -681.000; -639.000
203.131; -228.800; -832.000; -666.000
203.277;  -50.000; -199.000; -262.000
203.423; -137.000; -434.000; -520.000
203.568;  -89.600; -462.000; -237.000
203.714; -128.300; -535.000; -542.000
203.860; -208.400; -682.000; -641.000
204.005;   64.800;  112.000;  167.000
204.151;  157.000;  561.000;  556.000
204.296; -107.100; -354.000; -221.000
204.442; -176.400; -600.000; -547.000
204.588; -172.800; -592.000; -579.000
204.733;   40.900;  178.000;  168.000
204.879; -281.100;-1018.000; -822.000
205.025;   -3.400;  -99.000;  126.000
205.170;    4.100;  -17.000;   94.000
205.316;  173.300;  438.000;  661.000
205.461; -169.500; -698.000; -554.000
205.607;  157.800;  609.000;  665.000
205.752; -169.700; -626.000; -551.000
205.898; -129.300; -501.000; -391.000
206.043; -125.000; -578.000; -506.000
206.189;  -69.000; -243.000; -285.000
206.334;  208.200;  554.000;  606.000
206.480;  195.500;  409.000;  239.000
206.625; -165.100; -529.000; -552.000
206.771; -101.800; -451.000; -373.000
206.916;  -36.800; -210.000; -537.000
207.062; -167.800; -545.000; -591.000
207.207; -114.500; -546.000; -443.000
207.353;  126.100;  185.000;  460.000
207.498;   43.800;  196.000;   85.000
207.643; -112.200; -501.000; -370.000
207.789; -257.100;-1069.000; -910.000
207.934; -208.800; -665.000; -713.000
208.080;  -20.000; -154.000;   66.000
208.225;   -0.600;  -22.000;  -57.000
208.370; -180.900; -727.000; -619.000
208.516; -171.000; -741.000; -487.000
208.661;  -50.600; -127.000;  -69.000
208.806;  -56.100; -165.000; -171.000
208.952; -267.100;-1044.000; -731.000
209.097;  162.200;  378.000;  349.000
209.242;  -86.100; -307.000; -382.000
209.387;   91.100;  392.000;  350.000
209.533; -115.200; -321.000; -350.000
209.678;  171.900;  472.000;  543.000
209.823; -121.400; -408.000; -310.000
209.969; -232.400; -860.000; -757.000
210.114; -240.200; -907.000; -719.000
210.259; -246.700; -939.000; -889.000
210.404;    8.800; -171.000;  103.000
210.549;   39.700;  108.000;    3.000
210.695;  -33.300;   -3.000;  -95.000
210.840;   67.700;   94.000;   67.000
210.985;  -96.100; -484.000; -303.000
211.130;  155.800;  268.000;  406.000
211.275;   72.700;  207.000;  199.000
211.420;  -84.900; -300.000; -289.000
211.566; -158.800; -536.000; -489.000
211.711;   25.600;  218.000;  157.000
211.856; -128.500; -545.000; -519.000
212.001;   27.400;  151.000;   44.000
212.146;   22.800;  153.000;   49.000
212.291;  -68.600; -210.000; -186.000
212.436;  -23.700; -280.000;   -6.000
212.581; -180.200; -685.000; -653.000
212.726; -158.300; -487.000; -538.000
212.871;  -93.200; -552.000; -217.000
213.016; -316.200;-1172.000;-1029.000
213.161;  119.200;  406.000;  291.000
213.306; -117.600; -435.000; -577.000
213.451; -203.500; -778.000; -689.000
213.596; -100.100; -455.000; -347.000
213.741; -103.700; -448.000; -538.000
213.886; -144.700; -498.000; -517.000
214.031;  -30.500; -294.000; -124.000
214.176; -127.900; -408.000; -341.000
214.321;  -36.100; -296.000; -157.000
214.466;  -35.100; -163.000;  -43.000
214.611;   -7.000;  -61.000;  -10.000
214.756; -261.700; -948.000; -858.000
214.901;  -42.900; -388.000; -226.000
215.046; -232.900; -797.000; -825.000
215.191;   29.000;  128.000;   35.000
215.336;  -25.900; -157.000;  -19.000
215.480; -128.100; -684.000; -505.000
215.625;  -20.000; -175.000;  -19.000
215.770; -174.600; -757.000; -662.000
215.915;  -10.400;   -5.000;  -97.000
216.060;   -0.900; -113.000;  -21.000
216.205; -237.700; -731.000; -779.000
216.349; -152.500; -470.000; -533.000
216.494; -295.100; -939.000; -867.000
216.639; -239.900; -823.000; -888.000
216.784; -167.200; -577.000; -525.000
216.929;  130.500;  392.000;  281.000
217.073;  -19.900; -244.000;  -31.000
217.218;   19.800;   78.000;  -47.000
217.363; -176.500; -656.000; -618.000
217.507; -172.800; -623.000; -588.000
217.652; -256.700; -845.000; -874.000
217.797; -176.700; -708.000; -659.000
217.942; -243.100; -856.000; -720.000
218.086;  161.400;  608.000;  539.000
218.231;  -39.400; -174.000;  -26.000
218.376; -101.300; -337.000; -229.000
218.520;   10.100;  -41.000;   96.000
218.665;  -72.600; -338.000; -204.000
218.810;  -66.100; -275.000; -233.000
218.954;   77.300;  201.000;   35.000
219.099; -233.600; -713.000; -963.000
219.243; -123.300; -589.000; -554.000
219.388;  -50.400; -264.000; -136.000
219.532;   -6.100; -116.000; -116.000
219.677; -133.900; -564.000; -521.000
219.822;   20.600;   33.000;   89.000
219.966;   48.200;   17.000;  -99.000
220.111;  -98.400; -328.000;  -40.000
220.255; -177.700; -797.000; -750.000
220.400;  -29.000; -180.000; -146.000
220.544; -128.500; -516.000; -450.000
220.689; -132.300; -422.000; -451.000
220.833;  -19.000; -123.000;  -58.000
220.978; -106.000; -393.000; -563.000
221.122;   65.200;  319.000;  307.000
221.267; -250.300; -906.000; -837.000
221.411;  -95.600; -478.000; -394.000
221.555;  -23.400; -104.000;  -23.000
221.700;  -71.800; -329.000; -222.000
221.844;   82.400;  255.000;  272.000
221.989; -103.500; -328.000; -311.000
222.133;  -85.000; -289.000; -307.000
222.277;  -18.300;    5.000;   78.000
222.422;   50.800;  227.000;  113.000
222.566;  -52.200; -381.000; -214.000
222.711; -127.300; -414.000; -479.000
222.855; -175.500; -643.000; -586.000
222.999; -180.400; -642.000; -717.000
223.144;  -62.400; -195.000; -194.000
223.288;  126.900;  423.000;  251.000
223.432;   14.600;  184.000;  230.000
223.576;   41.400;  152.000;  -21.000
223.721;  118.200;  364.000;  273.000
223.865; -124.800; -472.000; -475.000
224.009;  531.100; 1673.000; 1631.000
224.153; -181.700; -660.000; -671.000
224.298; -146.800; -531.000; -489.000
224.442;  -38.300;  -74.000;  -33.000
224.586;  -19.100; -169.000; -106.000
224.730; -219.600; -858.000; -670.000
224.875; -221.400; -739.000; -688.000
225.019;   59.000;  102.000;  188.000
225.163;  156.000;  208.000;  341.000
225.307;   21.000;   97.000;  -91.000
225.451;  113.200;  360.000;  481.000
225.595;   54.700;  264.000;  176.000
225.739;   -4.300; -170.000;  -94.000
225.884;   28.200;   86.000;    5.000
226.028; -217.000; -760.000; -626.000
226.172;  -76.600; -260.000; -273.000
226.316; -256.800; -941.000; -902.000
226.460; -192.000; -645.000; -493.000
226.604; -100.300; -406.000; -400.000
226.748; -219.800; -836.000; -733.000
226.892;  -42.200; -227.000; -181.000
227.036; -116.000; -537.000; -447.000
227.180; -127.000; -551.000; -375.000
227.324; -159.100; -561.000; -580.000
227.468; -213.700; -819.000; -717.000
227.612;   -5.200;  242.000;  -28.000
227.756; -197.700; -845.000; -698.000
227.900;  104.800;  342.000;  441.000
228.044; -112.200; -509.000; -290.000
228.188;  136.700;  448.000;  568.000
228.332; -170.100; -546.000; -472.000
228.476;  -63.800; -223.000; -149.000
228.620;  -79.900; -210.000; -150.000
228.764;  142.700;  431.000;  349.000
228.908;  -33.200; -155.000;   30.000
229.052; -132.800; -615.000; -528.000
229.195;   -1.400; -172.000;   13.000
229.339;  -53.100; -235.000; -305.000
229.483;  -24.300;    5.000; -162.000
229.627;  -22.400; -156.000;  139.000
229.771;  -79.600; -218.000; -294.000
229.915;   22.000;  230.000;   79.000
230.059; -196.900; -648.000; -663.000
230.202;  -82.900; -370.000; -317.000
230.346;   -5.700; -107.000;  107.000
230.490; -144.900; -489.000; -521.000
230.634; -223.200; -736.000; -553.000
230.777;  178.800;  478.000;  509.000
230.921;  -93.700; -450.000; -359.000
231.065;  -78.100; -246.000; -286.000
231.209;   67.700;  261.000;  265.000
231.352;   37.200;   54.000;   40.000
231.496;   51.200;  568.000;  188.000
231.640; -200.200; -693.000; -621.000
231.783;  138.900;  546.000;  525.000
231.927;  -86.400; -294.000; -365.000
232.071; -228.900; -962.000; -736.000
232.214; -226.100; -980.000; -764.000
232.358; -197.200; -683.000; -599.000
232.502;   17.700;  -19.000;    7.000
232.645; -257.600;-1090.000; -927.000
232.789;  -22.200; -257.000; -218.000
232.933;  -53.400; -407.000; -224.000
233.076; -254.900;-1038.000; -897.000
233.220; -213.600; -752.000; -777.000
233.363; -148.500; -669.000; -477.000
233.507;  151.000;  371.000;  129.000
233.650; -187.000; -764.000; -834.000
233.794;  172.600;  438.000;  461.000
233.938; -139.900; -530.000; -362.000
234.081;  -36.100;  -93.000;   31.000
234.225; -118.900; -631.000; -539.000
234.368; -242.600; -773.000; -723.000
234.512;  -62.700; -385.000; -299.000
234.655; -174.000; -582.000; -555.000
234.798; -119.500; -493.000; -466.000
234.942; -254.200; -884.000;-1002.000
235.085; -192.200; -651.000; -443.000
235.229; -129.200; -405.000; -410.000
235.372;  -92.600; -247.000; -191.000
235.516; -102.300; -397.000; -321.000
235.659;   34.400;   92.000;  121.000
235.802;   -7.600;  -38.000;  -22.000
235.946;   63.200;  335.000;  215.000
236.089;   81.400;  126.000;  250.000
236.233;   87.900;  275.000;  298.000
236.376;  -70.100; -235.000; -378.000
236.519;  -74.300; -297.000; -319.000
236.663;  -29.200; -215.000; -117.000
236.806; -284.800;-1029.000; -999.000
236.949;  101.000;  543.000;  431.000
237.092;  103.300;  412.000;  391.000
237.236; -152.000; -589.000; -502.000
237.379;  132.500;  352.000;  428.000
237.522; -225.400; -879.000; -768.000
237.666;  -26.600; -271.000;   18.000
237.809; -248.200; -851.000; -823.000
237.952;   60.700;  469.000;  271.000
238.095; -163.400; -447.000; -442.000
238.238;  196.800;  688.000;  700.000
238.382;   -4.000;  166.000;  103.000
238.525; -146.400; -598.000; -511.000
238.668; -293.400;-1060.000; -985.000
238.811; -177.800; -638.000; -643.000
238.954; -117.700; -483.000; -334.000
239.097;  189.100;  617.000;  664.000
239.241;   69.100;  394.000;  326.000
239.384;  -71.500; -254.000; -214.000
239.527; -117.800; -424.000; -224.000
239.670; -305.100; -994.000;-1091.000
239.813; -211.000; -696.000; -658.000
239.956;  196.700;  579.000;  473.000
240.099; -230.200; -778.000; -725.000
240.242;  125.900;  428.000;  432.000
240.385;  122.100;  466.000;  450.000
240.528; -138.500; -706.000; -473.000
240.671;   64.000;  189.000;  134.000
240.814;  -95.200; -441.000; -158.000
240.957; -192.800; -767.000; -578.000
241.100; -189.300; -779.000; -755.000
241.243; -296.900;-1234.000; -893.000
241.386; -158.600; -508.000; -379.000
241.529; -197.800; -735.000; -547.000
241.672; -157.000; -566.000; -495.000
241.815; -219.700; -832.000; -808.000
241.958;  -77.200; -125.000; -182.000
242.101; -176.800; -545.000; -390.000
242.244;  -85.700; -270.000; -325.000
242.387;  -54.200; -304.000; -246.000
242.530;  118.200;  470.000;  134.000
242.673;  -79.400; -381.000; -309.000
242.815; -235.800; -925.000; -899.000
242.958; -149.000; -482.000; -381.000
243.101;   24.700;  132.000;  187.000
243.244; -139.200; -564.000; -521.000
243.387;  -76.700; -313.000; -316.000
243.530; -205.100; -657.000; -674.000
243.672;   12.900;   43.000;  -92.000
243.815;  -96.200; -355.000; -283.000
243.958;    4.900;   98.000;  -26.000
244.101;   31.600;   59.000;  -16.000
244.243;  -22.500;  -47.000;  101.000
244.386; -220.600; -761.000; -630.000
244.529;  -18.400; -132.000; -139.000
244.672; -319.200;-1154.000; -951.000
244.814; -242.100; -621.000; -794.000
244.957; -103.200; -380.000; -304.000
245.100; -164.600; -489.000; -489.000
245.242;  -87.500; -387.000; -374.000
245.385;  -21.400;  -59.000;  -39.000
245.528; -217.300; -871.000; -705.000
245.670;  148.600;  612.000;  634.000
245.813; -170.600; -599.000; -547.000
245.956;  -66.000; -324.000; -275.000
246.098; -144.300; -508.000; -650.000
246.241;    8.100;  194.000;   48.000
246.383;  -41.500; -119.000;  -73.000
246.526; -164.700; -454.000; -525.000
246.669; -245.300; -889.000; -780.000
246.811;   25.300;  172.000;   -1.000
246.954; -119.400; -512.000; -426.000
247.096;  -31.600;  -84.000;   -6.000
247.239; -113.400; -482.000; -445.000
247.381; -144.300; -647.000; -488.000
247.524;  197.400;  645.000;  679.000
247.666;  -11.400;   58.000;   11.000
247.809; -217.000; -887.000; -691.000
247.951;   -8.500;  -75.000;  138.000
248.094;   67.500;  432.000;  308.000
248.236; -331.800;-1262.000;-1238.000
248.378;  -67.700; -356.000;  -81.000
248.521; -100.600; -334.000; -337.000
248.663;  -66.400; -236.000; -267.000
248.806;  -56.100; -300.000; -266.000
248.948; -232.100; -886.000; -763.000
249.090; -119.900; -428.000; -398.000
249.233; -149.400; -344.000; -381.000
249.375; -116.100; -474.000; -451.000
249.518;  -39.600;  -83.000; -133.000
249.660;  -15.000; -103.000;    3.000
249.802; -364.100;-1303.000;-1189.000
249.945; -152.800; -612.000; -540.000
250.087; -228.800; -834.000; -768.000
250.229; -129.500; -362.000; -480.000
250.371; -160.000; -494.000; -439.000
250.514; -119.100; -310.000; -244.000
250.656;    4.100;   69.000;  102.000
250.798; -234.400; -849.000; -800.000
250.940; -138.200; -322.000; -322.000
251.083;  -59.300; -335.000; -111.000
251.225;  130.600;  338.000;  310.000
251.367;  -69.600; -274.000; -373.000
251.509;  -52.300; -265.000; -210.000
251.651; -207.500; -731.000; -671.000
251.794;  137.100;  538.000;  632.000
251.936; -248.000; -821.000; -747.000
252.078; -148.400; -540.000; -461.000
252.220; -158.900; -645.000; -477.000
252.362;   74.600;  344.000;  462.000
252.504; -179.000; -677.000; -584.000
252.646; -239.800; -875.000; -722.000
252.788;  -47.200;   14.000; -128.000
252.931;  -86.900; -257.000; -253.000
253.073;  -88.400; -376.000; -317.000
253.215;   -7.300;  141.000;  122.000
253.357;  -59.400;   82.000; -153.000
253.499;  -82.100; -374.000; -234.000
253.641; -182.700; -749.000; -594.000
253.783; -196.500; -609.000; -527.000
253.925; -184.400; -586.000; -591.000
254.067; -271.600; -744.000; -667.000
254.209; -114.000; -391.000; -259.000
254.351; -261.500; -865.000; -883.000
254.493; -114.000; -441.000; -417.000
254.635; -237.500; -936.000; -818.000
254.777; -226.300; -752.000; -687.000
254.918; -165.000; -512.000; -430.000
255.060; -153.700; -551.000; -395.000
255.202;  -93.800; -473.000; -261.000
255.344; -171.000; -658.000; -455.000
255.486; -140.700; -471.000; -406.000
255.628; -240.600; -780.000; -781.000
255.770; -190.600; -676.000; -536.000
255.912; -133.800; -559.000; -468.000
256.053; -172.000; -730.000; -508.000
256.195;  325.400; 1008.000;  903.000
256.337; -220.600; -861.000; -595.000
256.479;  149.300;  532.000;  416.000
256.621;  -85.000; -394.000; -212.000
256.762; -175.600; -789.000; -742.000
256.904;  100.200;  485.000;  487.000
257.046;  -86.100; -381.000; -271.000
257.188;  -83.400; -351.000; -264.000
257.329; -151.300; -525.000; -464.000
257.471; -210.400; -939.000; -807.000
257.613; -130.400; -584.000; -498.000
257.755; -309.000;-1073.000; -982.000
257.896;  114.000;  286.000;  392.000
258.038; -130.500; -403.000; -352.000
258.180;  -89.600; -354.000; -279.000
258.321; -170.600; -581.000; -457.000
258.463;  -16.000;  -71.000;  133.000
258.605; -210.300; -562.000; -570.000
258.746; -205.000; -886.000; -772.000
258.888; -313.500;-1026.000;-1020.000
259.029;   42.300;  121.000;   -8.000
259.171; -178.100; -614.000; -550.000
259.313;  -34.200;  -49.000;  -47.000
259.454; -133.900; -536.000; -414.000
259.596; -116.700; -483.000; -390.000
259.737; -146.300; -590.000; -474.000
259.879;   96.800;  217.000;  311.000
260.020;  192.200;  901.000;  636.000
260.162;  -81.900; -146.000; -253.000
260.303; -222.500; -768.000; -687.000
260.445; -156.900; -609.000; -613.000
260.586;   75.200;  392.000;  157.000
260.728; -108.200; -360.000; -248.000
260.869; -140.400; -350.000; -343.000
261.011;  155.400;  706.000;  537.000
261.152; -105.400; -479.000; -319.000
261.293; -167.400; -576.000; -595.000
261.435;  -60.900; -219.000; -184.000
261.576; -113.900; -455.000; -325.000
261.718;  117.000;  420.000;  470.000
261.859; -281.600; -940.000; -949.000
262.000; -263.800; -951.000;-1016.000
262.142;  -43.400;  -52.000;  -60.000
262.283; -236.600; -808.000; -691.000
262.424; -194.300; -666.000; -625.000
262.566; -325.500;-1161.000; -983.000
262.707; -251.200; -840.000; -830.000
262.848; -223.200; -769.000; -726.000
262.990;  -90.900; -362.000; -345.000
263.131;  196.400;  650.000;  681.000
263.272;   -8.800;  -61.000;  -41.000
263.413; -156.600; -589.000; -561.000
263.555; -129.100; -669.000; -143.000
263.696; -174.400; -550.000; -641.000
263.837; -127.300; -449.000; -551.000
263.978;    2.400;   -5.000;  -77.000
264.119;  -97.400; -283.000; -264.000
264.261; -218.900; -847.000; -630.000
264.402;    6.600;   33.000;   40.000
264.543; -159.400; -509.000; -524.000
264.684;  -29.900;   61.000;  -50.000
264.825; -157.700; -816.000; -538.000
264.966;    9.100;  -84.000;  -67.000
265.107; -241.000; -646.000; -670.000
265.248; -265.000; -825.000; -812.000
265.390;    1.100;  152.000;   -9.000
265.531;  -47.900; -238.000; -107.000
265.672; -167.800; -557.000; -630.000
265.813;  125.800;  563.000;  439.000
265.954; -294.800; -959.000; -940.000
266.095;  -23.000; -372.000; -322.000
266.236; -194.500; -686.000; -548.000
266.377; -103.000; -243.000; -297.000
266.518; -142.400; -619.000; -547.000
266.659;   59.100;  170.000;  268.000
266.800;   19.500;   83.000;   85.000
266.941; -156.100; -487.000; -478.000
267.082;   56.600;  354.000;   99.000
267.223;  -86.200; -344.000; -273.000
267.364; -235.500; -892.000; -686.000
267.504;  -28.200;    3.000;  135.000
267.645;    7.100;  160.000;   67.000
267.786;  -73.600; -147.000;  -86.000
267.927; -137.200; -473.000; -379.000
268.068;  -41.700; -186.000;  -61.000
268.209; -135.800; -175.000; -413.000
268.350; -145.300; -388.000; -532.000
268.490; -184.300; -648.000; -521.000
268.631;   35.700;  127.000;  225.000
268.772; -211.700; -874.000; -647.000
268.913; -138.500; -328.000; -476.000
269.054;   -1.200; -117.000;   12.000
269.194; -107.600; -418.000; -402.000
269.335; -330.000;-1137.000;-1074.000
269.476;   13.000;   33.000;  -35.000
269.617;  -94.300; -347.000; -392.000
269.757; -207.600; -713.000; -646.000
269.898; -202.200; -856.000; -613.000
270.039; -122.700; -415.000; -405.000
270.180; -282.400; -952.000; -816.000
270.320;  -38.900; -190.000; -250.000
270.461;  -73.700; -277.000; -249.000
270.602;  -19.800; -186.000; -156.000
270.742; -244.000; -868.000; -943.000
270.883; -100.500; -442.000; -390.000
271.023; -105.100; -358.000; -357.000
271.164; -192.400; -607.000; -528.000
271.305; -181.700; -666.000; -654.000
271.445; -192.700; -722.000; -683.000
271.586; -119.300; -462.000; -283.000
271.726; -118.900; -397.000; -322.000
271.867; -155.700; -594.000; -534.000
272.008;  -91.000; -473.000; -285.000
272.148;  107.600;  462.000;  468.000
272.289;  -23.500; -113.000; -181.000
272.429;   -0.800;   19.000;  185.000
272.570; -222.600; -633.000; -737.000
272.710; -216.000; -825.000; -775.000
272.851;  -74.000;  113.000; -130.000
272.991; -345.300;-1173.000;-1077.000
273.131; -126.200; -419.000; -459.000
273.272; -221.700; -683.000; -723.000
273.412;  -15.500; -143.000;  -31.000
273.553; -136.100; -488.000; -507.000
273.693;  224.200;  913.000;  858.000
273.834; -237.400; -894.000; -692.000
273.974; -197.200; -664.000; -615.000
274.114; -218.800; -772.000; -560.000
274.255;   81.000;  414.000;  373.000
274.395;  -83.300; -180.000; -125.000
274.535;   30.600;  199.000;  350.000
274.676;   43.200;  225.000;   94.000
274.816;  -24.600;  110.000;   34.000
274.956; -191.700; -624.000; -690.000
275.097; -297.700;-1014.000; -922.000
275.237; -237.000; -913.000; -803.000
275.377; -216.800; -778.000; -689.000
275.517; -319.300; -878.000; -937.000
275.658; -149.200; -590.000; -555.000
275.798; -165.400; -606.000; -413.000
275.938;   19.600;  215.000;  323.000
276.078; -165.600; -626.000; -395.000
276.218;   17.200;   99.000;  104.000
276.359; -298.000;-1026.000;-1024.000
276.499; -166.800; -605.000; -446.000
276.639;  -57.600; -305.000; -151.000
276.779; -130.700; -475.000; -357.000
276.919; -205.000; -783.000; -624.000
277.059;  -41.500; -261.000; -212.000
277.199;  -87.100; -357.000; -259.000
277.340;   68.400;  287.000;  175.000
277.480; -242.600; -840.000; -693.000
277.620;   59.000;  192.000;   16.000
277.760; -416.500;-1533.000;-1294.000
277.900;    2.900;  113.000;   33.000
278.040;   50.800;  137.000;  159.000
278.180;   55.500;  270.000;  170.000
278.320;    3.500;   21.000;   56.000
278.460; -139.300; -443.000; -469.000
278.600; -179.500; -708.000; -598.000
278.740;  119.000;  448.000;  224.000
278.880; -239.300; -768.000; -791.000
279.020;  -19.700; -194.000; -144.000
279.160; -194.900; -672.000; -595.000
279.300; -277.200; -926.000; -873.000
279.440; -199.100; -709.000; -622.000
279.579; -285.800;-1014.000; -929.000
279.719; -130.500; -410.000; -394.000
279.859;   13.500;   -4.000;   41.000
279.999;  -36.900; -208.000;  101.000
280.139; -120.300; -435.000; -387.000
280.279; -219.100; -708.000; -745.000
280.419;  -44.200; -229.000; -147.000
280.559;  -76.000; -259.000; -180.000
280.698; -241.100; -790.000; -639.000
280.838; -214.800; -778.000; -800.000
280.978; -211.300; -846.000; -790.000
281.118; -222.700; -811.000; -704.000
281.257;   24.000;   24.000;    6.000
281.397; -338.500;-1094.000; -960.000
281.537; -242.100; -599.000; -712.000
281.677;  -76.700; -150.000; -101.000
281.816; -205.100; -700.000; -630.000
281.956;  -63.900; -193.000; -257.000
282.096; -132.000; -539.000; -396.000
282.235; -196.000; -672.000; -638.000
282.375;  -54.900; -243.000;  -98.000
282.515; -230.500; -715.000; -707.000
282.654;   12.900;   29.000;  106.000
282.794;   60.600;  388.000;  244.000
282.934; -128.200; -530.000; -491.000
283.073; -287.200;-1030.000; -857.000
283.213; -129.600; -460.000; -467.000
283.353; -120.300; -408.000; -349.000
283.492;  -81.700; -264.000; -296.000
283.632;  -71.800; -254.000; -168.000
283.771; -200.200; -859.000; -730.000
283.911;  -91.500; -369.000; -260.000
284.050; -246.900; -794.000; -748.000
284.190; -333.700;-1229.000;-1096.000
284.329; -304.000;-1055.000; -964.000
284.469; -222.100; -516.000; -591.000
284.608; -136.000; -559.000; -598.000
284.748; -177.000; -614.000; -570.000
284.887;  -11.600;  -87.000;  -20.000
285.027; -238.300; -844.000; -892.000
285.166;  -75.700; -192.000; -249.000
285.306;  -12.400; -116.000;  -33.000
285.445; -112.200; -229.000; -343.000
285.584; -197.200; -630.000; -494.000
285.724;  -67.300; -282.000; -322.000
285.863; -226.200; -857.000; -507.000
286.002; -104.300; -366.000; -276.000
286.142; -214.200; -715.000; -622.000
286.281; -131.400; -525.000; -493.000
286.420; -160.000; -554.000; -417.000
286.560;  193.300;  653.000;  623.000
286.699; -274.700; -958.000; -912.000
286.838; -193.300; -590.000; -591.000
286.978; -193.100; -533.000; -537.000
287.117; -284.300;-1085.000; -950.000
287.256;  -66.200; -228.000; -211.000
287.395; -116.100; -197.000; -378.000
287.535; -115.700; -370.000; -298.000
287.674; -159.100; -509.000; -484.000
287.813;  123.100;  661.000;  533.000
287.952; -278.100;-1010.000; -871.000
288.091; -322.400;-1049.000; -915.000
288.231;    8.900;   13.000;   15.000
288.370; -351.700;-1217.000;-1200.000
288.509; -194.500; -728.000; -645.000
288.648; -176.600; -770.000; -548.000
288.787;  -66.900; -243.000;  -87.000
288.926; -116.300; -454.000; -475.000
289.065;  217.100;  859.000;  672.000
289.204;  -86.000; -377.000; -217.000
289.344; -224.400; -791.000; -690.000
289.483;   33.000;  416.000;  304.000
289.622;  -94.900; -291.000; -149.000
289.761;  -57.400; -309.000; -166.000
289.900; -254.100; -785.000; -626.000
290.039;  -20.300;  -12.000;  -95.000
290.178;  -67.000; -274.000; -180.000
290.317; -183.800; -618.000; -479.000
290.456; -141.600; -463.000; -451.000
290.595; -302.700; -961.000; -833.000
290.734; -293.700; -904.000; -891.000
290.873; -154.900; -456.000; -420.000
291.011; -240.000; -833.000; -843.000
291.150; -209.800; -770.000; -682.000
291.289;  -76.000; -343.000; -110.000
291.428; -193.300; -599.000; -480.000
291.567; -139.700; -370.000; -442.000
291.706;   14.000;  109.000;  154.000
291.845; -191.200; -597.000; -505.000
291.984; -334.300;-1234.000;-1061.000
292.122;  119.100;  602.000;  582.000
292.261;   86.200;  620.000;  463.000
292.400;   15.300; -144.000;  211.000
292.539; -279.200; -959.000; -813.000
292.678;  -84.100; -325.000; -300.000
292.816; -324.300;-1136.000; -965.000
292.955; -228.100; -844.000; -684.000
293.094;  -41.700; -173.000; -337.000
293.233; -102.800; -556.000; -400.000
293.371;  -23.600; -225.000;  -84.000
293.510; -200.100; -866.000; -780.000
293.649; -265.000; -959.000; -924.000
293.787; -298.300;-1083.000;-1012.000
293.926;  -61.800; -113.000;  -32.000
294.065;  -82.100; -379.000; -290.000
294.203;   76.800;  298.000;  406.000
294.342;    7.300;   74.000;  156.000
294.481;12764.800;51180.000; -836.000
294.619;  -84.900; -425.000; -582.000
294.758; -336.500;-1230.000;-1137.000
294.896;  -20.100; -125.000;    5.000
295.035; -319.500;-1040.000;-1006.000
295.174; -311.100;-1082.000; -954.000
295.312;  -77.100; -323.000; -203.000
295.451; -118.800; -307.000; -428.000
295.589; -164.000; -389.000; -518.000
295.728;  -18.300; -292.000; -165.000
295.866;  -27.100;  -36.000;  -51.000
296.005; -153.500; -584.000; -341.000
296.143; -177.700; -558.000; -596.000
296.282; -261.100; -957.000; -881.000
296.420; -168.400; -657.000; -557.000
296.559; -246.000; -892.000; -633.000
296.697; -215.900; -847.000; -665.000
296.835; -356.900;-1141.000;-1002.000
296.974;   29.200;  -23.000;   39.000
297.112; -145.900; -443.000; -504.000
297.251; -236.200; -815.000; -755.000
297.389; -183.500; -576.000; -438.000
297.527;  -23.800; -145.000;  -83.000
297.666; -175.500; -486.000; -438.000
297.804; -136.700; -404.000; -264.000
297.942;  -38.100; -136.000; -161.000
298.081;  -15.700; -183.000;   63.000
298.219;   14.400;  -17.000;  -19.000
298.357;  -97.900; -144.000;  -71.000
298.495; -264.700; -810.000; -812.000
298.634;   30.200;  245.000;  219.000
298.772; -126.800; -220.000; -338.000
298.910; -113.000; -309.000; -182.000
299.048;  -28.300; -130.000; -153.000
299.187; -111.500; -350.000; -250.000
299.325;    3.000;   52.000;  122.000
299.463;  -97.400; -389.000; -299.000
299.601;  -90.100; -327.000; -271.000
299.739; -296.500; -908.000; -883.000
299.877; -211.300; -791.000; -703.000
300.016; -322.100;-1095.000; -935.000
300.154;  -23.200;  -19.000; -161.000
300.292; -131.200; -428.000; -348.000
300.430; -116.500; -408.000; -291.000
300.568; -277.800; -940.000; -874.000
300.706; -153.100; -366.000; -469.000
300.844; -324.900;-1108.000; -979.000
300.982;   91.100;  246.000;  282.000
301.120; -302.300; -965.000; -866.000
301.258; -226.700; -812.000; -705.000
301.396;    3.500;  104.000;  -41.000
301.534;  -88.200; -218.000; -293.000
301.672; -183.500; -664.000; -521.000
301.810; -196.500; -613.000; -545.000
301.948;   27.000;   53.000;  149.000
302.086;  -56.300; -250.000;  -32.000
302.224; -179.800; -610.000; -585.000
302.362; -178.400; -558.000; -622.000
302.500; -244.200; -923.000; -893.000
302.638;   11.200;  128.000;  245.000
302.776;  -80.400; -352.000; -408.000
302.913;   54.100;  447.000;  236.000
303.051;  -89.500;  -86.000;  -23.000
303.189;    4.100;   90.000;  118.000
303.327;  -88.400; -341.000; -256.000
303.465; -205.200; -832.000; -588.000
303.603; -203.300; -805.000; -604.000
303.740;   85.300;  417.000;  241.000
303.878; -229.700; -800.000; -759.000
304.016; -225.300; -915.000; -790.000
304.154; -342.300;-1123.000;-1152.000
304.291; -192.000; -505.000; -554.000
304.429;   -3.700;  102.000;   74.000
304.567; -301.700; -908.000; -893.000
304.705; -116.500; -408.000; -515.000
304.842; -234.800; -616.000; -540.000
304.980;   29.700;  215.000;   35.000
305.118; -129.200; -367.000; -365.000
305.255; -285.000; -945.000; -927.000
305.393;   33.800;  178.000;  239.000
305.531; -298.800;-1173.000; -956.000
305.668; -201.800; -663.000; -582.000
305.806; -154.300; -358.000; -439.000
305.943; -184.700; -629.000; -637.000
306.081;  -83.800; -378.000; -267.000
306.219; -258.500; -863.000; -748.000
306.356;  -20.600;  158.000;   27.000
306.494;  214.700;  981.000;  761.000
306.631;   12.100;  -11.000;  -55.000
306.769;  -94.900; -613.000; -485.000
306.906; -132.800; -284.000; -258.000
307.044; -152.200; -473.000; -488.000
307.181; -132.300; -410.000; -332.000
307.319;   81.100;  112.000;   87.000
307.456; -349.900;-1191.000;-1153.000
307.594; -290.200; -980.000; -727.000
307.731;  -80.200; -371.000; -164.000
307.868;   -6.300;  -15.000;   20.000
308.006; -302.900; -961.000; -847.000
308.143; -201.100; -618.000; -330.000
308.281;  -27.700;  -37.000; -254.000
308.418; -217.500; -748.000; -640.000
308.555; -175.100; -400.000; -250.000
308.693; -184.000; -577.000; -573.000
308.830; -247.000; -712.000; -657.000
308.967;  -33.700; -215.000;  -95.000
309.105; -149.700; -507.000; -396.000
309.242; -147.400; -468.000; -367.000
309.379; -215.000; -577.000; -655.000
309.517; -273.900; -936.000; -948.000
309.654; -250.900; -910.000; -734.000
309.791; -181.500; -662.000; -580.000
309.928; -274.200; -977.000; -914.000
310.065;  179.700;  819.000;  697.000
310.203; -279.500; -825.000; -850.000
310.340; -193.900; -465.000; -321.000
310.477; -179.600; -412.000; -516.000
310.614; -169.900; -383.000; -473.000
310.751; -180.800; -427.000; -518.000
310.889;  -59.800;    1.000;   11.000
311.026; -325.000;-1161.000; -939.000
311.163; -115.300; -386.000; -380.000
311.300; -185.700; -512.000; -479.000
311.437; -208.200; -658.000; -619.000
311.574; -369.700;-1226.000; -985.000
311.711; -169.700; -595.000; -433.000
311.848; -135.800; -380.000; -388.000
311.985;    4.400;  270.000;   93.000
312.122; -243.600; -932.000; -762.000
312.259; -289.800; -941.000; -994.000
312.396; -176.200; -508.000; -551.000
312.533; -213.200; -812.000; -790.000
312.670; -308.000;-1070.000; -898.000
312.807; -112.100; -352.000; -367.000
312.944; -190.400; -513.000; -611.000
313.081; -110.800; -150.000; -415.000
313.218; -281.500;-1111.000; -867.000
313.355; -138.900; -531.000; -449.000
313.492; -109.000; -455.000; -292.000
313.629;  180.000;  815.000;  735.000
313.766; -355.200;-1176.000;-1008.000
313.902;  -18.400; -186.000;   21.000
314.039;  -99.800; -372.000; -289.000
314.176;   51.900;  286.000;  192.000
314.313; -159.400; -569.000; -473.000
314.450; -216.600; -788.000; -684.000
314.587; -168.900; -468.000; -480.000
314.723;  -43.000;  -78.000;  130.000
314.860;   63.500;  318.000;  332.000
314.997;   19.700;  223.000;  142.000
315.134; -166.400; -385.000; -368.000
315.270; -133.000; -480.000; -496.000
315.407; -345.100;-1094.000; -967.000
315.544; -171.800; -657.000; -538.000
315.681; -213.900; -681.000; -565.000
315.817;  -39.700; -133.000; -176.000
315.954; -139.700; -613.000; -392.000
316.091; -344.800;-1045.000;-1023.000
316.227;  -61.300;  -71.000; -179.000
316.364;    3.700;   23.000;    6.000
316.500;  -98.500; -113.000; -300.000
316.637; -108.700; -181.000; -302.000
316.774; -178.800; -625.000; -358.000
316.910; -193.800; -598.000; -629.000
317.047; -199.500; -487.000; -351.000
317.183; -191.900; -435.000; -566.000
317.320; -143.700; -367.000; -321.000
317.456; -254.800; -733.000; -805.000
317.593; -183.100; -598.000; -641.000
317.729;   -9.000;  168.000;  -67.000
317.866; -426.600;-1434.000;-1285.000
318.002; -216.200; -708.000; -948.000
318.139; -258.300; -883.000; -867.000
318.275; -281.300;-1003.000; -738.000
318.412; -140.900; -517.000; -336.000
318.548; -226.200; -751.000; -720.000
318.685; -274.400; -985.000; -888.000
318.821; -237.600; -762.000; -735.000
318.957;  -68.400;   34.000;  -23.000
319.094;   66.300;  297.000;  154.000
319.230; -279.100; -756.000; -742.000
319.367; -155.600; -471.000; -520.000
319.503; -165.600; -538.000; -436.000
319.639; -248.400; -877.000; -793.000
319.775; -228.800; -750.000; -685.000
319.912; -163.900; -424.000; -519.000
320.048; -374.900;-1184.000;-1184.000
320.184;  -14.300;   59.000;   70.000
320.321; -145.800; -497.000; -467.000
320.457;  130.100;  475.000;  662.000
320.593; -145.700; -375.000; -382.000
320.729; -257.900; -732.000; -734.000
320.866; -187.900; -577.000; -635.000
321.002; -261.900; -759.000; -809.000
321.138; -106.200; -135.000; -211.000
321.274;  -48.900; -148.000; -115.000
321.410; -147.800; -585.000; -353.000
321.546; -284.900;-1011.000; -911.000
321.683;   81.600;  400.000;  185.000
321.819;  -39.700;  -48.000; -117.000
321.955; -239.900; -743.000; -722.000
322.091; -155.500; -585.000; -540.000
322.227;  -92.200; -382.000; -202.000
322.363; -121.000; -320.000; -215.000
322.499;  -80.800; -343.000; -331.000
322.635;  146.100;  636.000;  443.000
322.771;  -49.500; -139.000;   12.000
322.907;   75.700;  129.000;  327.000
323.043;  -74.200; -115.000; -206.000
323.179; -156.500; -394.000; -363.000
323.315; -141.800; -401.000; -371.000
323.451;  -81.000; -328.000; -236.000
323.587;  -68.700;  -60.000;  -77.000
323.723; -214.500; -682.000; -601.000
323.859;  -87.300; -258.000;  -76.000
323.995; -127.600; -467.000; -409.000
324.131; -275.000; -967.000; -892.000
324.267;  -89.200; -254.000; -276.000
324.402; -306.000; -960.000; -983.000
324.538;  -65.900; -279.000; -104.000
324.674;   11.400;  164.000;   77.000
324.810;   16.700;  226.000;  308.000
324.946; -128.500; -810.000; -658.000
325.082; -166.100; -568.000; -475.000
325.217;  -23.200;  -62.000;   16.000
325.353; -235.900; -764.000; -659.000
325.489; -203.000; -540.000; -506.000
325.625; -175.300; -579.000; -525.000
325.760;   58.600;  517.000;  376.000
325.896; -198.900; -515.000; -702.000
326.032; -101.800; -403.000; -352.000
326.168; -122.800; -462.000; -369.000
326.303; -136.600; -352.000; -461.000
326.439;  -83.200; -336.000; -276.000
326.575;  -39.500; -190.000;  -29.000
326.710;   -7.300; -156.000;  -30.000
326.846;   -8.600;  146.000;  103.000
326.982; -198.900; -530.000; -548.000
327.117; -174.400; -481.000; -442.000
327.253; -200.500; -745.000; -742.000
327.388; -347.900;-1137.000;-1153.000
327.524; -214.500; -811.000; -578.000
327.659;  -47.100;  -58.000;  -22.000
327.795;  -23.100;   69.000;   45.000
327.931; -193.300; -723.000; -499.000
328.066; -124.100; -417.000; -276.000
328.202;  -58.400;   12.000; -129.000
328.337;  205.800;  957.000;  713.000
328.473;   -6.600;  -12.000;  -74.000
328.608;  -83.300; -256.000; -267.000
328.743; -241.200; -799.000; -664.000
328.879;    4.500;  214.000;  114.000
329.014; -129.600; -102.000; -122.000
329.150; -181.400; -358.000; -483.000
329.285; -179.400; -465.000; -466.000
329.421;  -87.400; -548.000; -246.000
329.556;  -29.000;  -36.000;   85.000
329.691; -200.300; -633.000; -615.000
329.827; -168.500; -626.000; -480.000
329.962; -121.000;  131.000; -301.000
330.097; -198.400; -673.000; -585.000
330.233; -120.300; -410.000; -223.000
330.368; -259.100; -839.000; -628.000
330.503;  -30.500;    3.000;   98.000
330.638;  -54.300;  -93.000; -125.000
330.774; -196.000; -609.000; -530.000
330.909; -104.500; -434.000; -244.000
331.044; -224.600; -714.000; -708.000
331.179; -355.200;-1217.000;-1109.000
331.315;  -13.500;   77.000;   20.000
331.450;    8.200;  157.000;  285.000
331.585; -225.700; -805.000; -706.000
331.720; -195.300; -510.000; -460.000
331.855;  -77.500;  -35.000; -102.000
331.990;  -34.200;   62.000;  138.000
332.126;  -25.200; -110.000;   71.000
332.261; -114.400; -379.000; -265.000
332.396; -103.200; -135.000; -242.000
332.531; -317.700;-1074.000;-1031.000
332.666; -161.300; -519.000; -363.000
332.801; -227.400; -726.000; -807.000
332.936;  -34.000; -192.000; -122.000
333.071; -294.600; -870.000; -817.000
333.206;   26.200;  307.000;  379.000
333.341;   80.600;  344.000;  418.000
333.476; -186.100; -627.000; -623.000
333.611;  -64.100; -251.000; -173.000
333.746; -131.500; -381.000; -464.000
333.881; -296.300; -973.000; -935.000
334.016; -299.900; -936.000; -917.000
334.151; -263.500; -746.000; -702.000
334.286;  -10.400;  152.000;  186.000
334.421;  -60.900; -125.000; -178.000
334.556; -201.100; -611.000; -567.000
334.690; -201.100; -631.000; -577.000
334.825;   94.900;  381.000;   83.000
334.960; -125.600; -285.000; -413.000
335.095;  -13.500;  135.000;  -91.000
335.230; -242.600; -722.000; -738.000
335.365; -318.400;-1084.000; -990.000
335.499; -334.000;-1108.000;-1037.000
335.634;  -37.900;    9.000;  534.000
335.769; -230.100; -755.000; -720.000
335.904; -189.100; -603.000; -561.000
336.038; -221.400; -735.000; -657.000
336.173; -359.800;-1206.000;-1194.000
336.308; -107.300; -116.000; -189.000
336.443; -142.500; -544.000; -634.000
336.577; -277.600; -936.000; -787.000
336.712;  -23.300;   -4.000;  -12.000
336.847; -191.300; -724.000; -607.000
336.981; -121.800; -272.000; -208.000
337.116;  133.900;  615.000;  501.000
337.250; -175.300; -434.000; -421.000
337.385; -124.700; -297.000; -208.000
337.520; -223.400; -632.000; -603.000
337.654; -110.600; -215.000; -126.000
337.789; -280.200; -989.000; -933.000
337.923;  -68.800; -104.000; -205.000
338.058; -251.200; -673.000; -738.000
338.192; -187.000; -611.000; -488.000
338.327;  -74.800;  -18.000; -155.000
338.461; -162.400; -299.000; -469.000
338.596; -204.500; -780.000; -638.000
338.730; -256.800; -767.000; -803.000
338.865;  -34.900;  -46.000; -140.000
338.999; -263.400; -846.000; -702.000
339.134; -209.900; -634.000; -536.000
339.268; -223.300; -741.000; -603.000
339.403; -243.900; -740.000; -775.000
339.537; -244.100; -894.000; -820.000
339.671; -265.400; -829.000; -813.000
339.806; -218.500; -556.000; -512.000
339.940;  -82.600; -261.000; -235.000
340.074; -222.900; -685.000; -510.000
340.209;  -86.200; -351.000; -230.000
340.343; -203.400; -517.000; -573.000
340.477;  282.700;  998.000; 1036.000
340.612; -268.600;-1033.000; -900.000
340.746; -122.700; -199.000; -243.000
340.880; -246.900; -924.000; -785.000
341.014;  -44.200;  -45.000; -154.000
341.149; -249.700; -756.000; -718.000
341.283; -248.000; -839.000; -754.000
341.417; -295.900;-1124.000; -938.000
341.551; -234.700; -768.000; -708.000
341.685; -180.700; -633.000; -611.000
341.820; -207.500; -562.000; -493.000
341.954; -131.400; -218.000; -349.000
342.088; -321.300;-1102.000;-1019.000
342.222;   96.300;  565.000;  618.000
342.356; -182.700; -395.000; -335.000
342.490; -274.500; -880.000; -841.000
342.624;  -95.300; -339.000; -242.000
342.758; -118.300; -364.000; -312.000
342.892; -237.700; -710.000; -585.000
343.026;  -51.800;  -58.000; -116.000
343.160; -101.900; -426.000; -376.000
343.294; -132.300; -474.000; -337.000
343.428; -158.800; -488.000; -448.000
343.562;  -62.300; -172.000;  -23.000
343.696;  -93.700; -385.000; -314.000
343.830; -132.900; -362.000; -356.000
343.964;  -71.400; -231.000; -168.000
344.098;  -10.300;  199.000;   70.000
344.232;  -98.100; -266.000; -127.000
344.366; -186.600; -567.000; -453.000
344.500; -211.600; -665.000; -744.000
344.634; -110.600; -324.000; -164.000
344.768; -136.400; -531.000; -341.000
344.902;   36.600;  278.000;  256.000
345.035; -176.000; -556.000; -496.000
345.169; -301.100; -933.000; -656.000
345.303; -139.700; -308.000; -482.000
345.437; -250.700; -826.000; -717.000
345.571; -188.800; -675.000; -594.000
345.704; -161.300; -309.000; -532.000
345.838; -112.000; -331.000; -284.000
345.972; -169.200; -543.000; -495.000
346.106;  -41.200; -179.000; -190.000
346.239;  -81.100; -312.000; -243.000
346.373; -137.400; -343.000; -302.000
346.507; -316.900; -950.000; -962.000
346.640;  -72.000;  -30.000;   13.000
346.774; -240.000; -650.000; -797.000
346.908;  -31.700; -138.000;  -11.000
347.041; -166.900; -646.000; -593.000
347.175;    3.200;  259.000;   27.000
347.309; -226.500; -698.000; -628.000
347.442; -248.700; -883.000; -732.000
347.576;  147.600;  670.000;  668.000
347.709;  -48.200; -123.000;  -52.000
347.843; -295.500; -933.000; -825.000
347.976;   60.800;  235.000;  294.000
348.110; -385.400;-1268.000;-1186.000
348.243; -239.700; -679.000; -772.000
348.377;  -42.600;  -26.000;   60.000
348.510;  116.100;  403.000;  540.000
348.644;  -89.700;  -37.000; -159.000
348.777;   12.700;  180.000;  191.000
348.911;  -78.700; -142.000; -112.000
349.044;   74.900;  471.000;  448.000
349.178; -340.000;-1069.000;-1006.000
349.311;   28.800;  141.000;  255.000
349.444; -286.000; -927.000; -813.000
349.578;  -74.300; -347.000; -200.000
349.711; -301.900; -959.000; -862.000
349.845; -210.600; -661.000; -591.000
349.978; -371.400;-1224.000;-1137.000
350.111; -190.800; -546.000; -612.000
350.244; -228.900; -596.000; -700.000
350.378; -144.000; -392.000; -393.000
350.511; -118.700; -393.000; -426.000
350.644; -235.700; -808.000; -806.000
350.778;   20.100;  168.000;  104.000
350.911;   30.600;  134.000;  140.000
351.044; -220.100; -685.000; -615.000
351.177;  -84.000; -321.000; -281.000
351.310;  -50.500;    3.000; -131.000
351.444; -274.900; -888.000; -788.000
351.577;   -3.100;  140.000;   90.000
351.710;  151.700;  593.000;  417.000
351.843;  -67.900; -165.000;  -77.000
351.976;  -16.400;  149.000;  -79.000
352.109; -224.400; -621.000; -612.000
352.242; -144.900; -464.000; -419.000
352.376; -191.600; -580.000; -636.000
352.509; -137.100; -437.000; -356.000
352.642; -327.200; -654.000; -604.000
352.775;  -63.400; -141.000;  -98.000
352.908; -270.800; -933.000; -904.000
353.041; -256.500; -814.000; -824.000
353.174; -153.000; -551.000; -424.000
353.307; -238.600; -753.000; -764.000
353.440;  111.000;  541.000;  453.000
353.573; -316.800; -957.000;-1008.000
353.706; -181.400; -384.000; -558.000
353.839; -123.500; -264.000; -220.000
353.971; -212.500; -657.000; -512.000
354.104; -281.700; -896.000; -835.000
354.237; -217.600; -627.000; -662.000
354.370; -247.600; -846.000; -879.000
354.503; -394.200;-1231.000;-1308.000
354.636; -113.800; -529.000; -348.000
354.769; -288.300; -937.000; -860.000
354.902; -124.500; -230.000; -139.000
355.034;  -71.800; -164.000; -220.000
355.167; -121.000; -262.000; -162.000
355.300; -306.100;-1061.000; -880.000
355.433;  -30.700;  -71.000;  -14.000
355.565; -154.600; -402.000; -384.000
355.698; -103.800; -356.000; -296.000
355.831; -273.400; -882.000; -801.000
355.964; -101.300; -285.000; -170.000
356.096; -290.700; -856.000; -843.000
356.229; -186.400; -523.000; -530.000
356.362; -132.200; -373.000; -266.000
356.494;  -94.200; -229.000; -162.000
356.627;   83.100;  269.000;  377.000
356.760;  -20.500;  120.000;   53.000
356.892; -214.000; -286.000; -601.000
357.025;   68.900;  403.000;  389.000
357.157;  -72.200; -167.000; -179.000
357.290; -274.900; -856.000; -713.000
357.423; -212.600; -667.000; -556.000
357.555; -100.200; -217.000; -228.000
357.688; -159.600; -483.000; -364.000
357.820; -279.100; -870.000; -877.000
357.953; -172.500; -563.000; -589.000
358.085; -223.700; -632.000; -612.000
358.218; -309.700;-1131.000; -932.000
358.350;  -47.700;  -58.000;  312.000
358.483; -376.300;-1300.000;-1187.000
358.615; -334.100;-1182.000;-1078.000
358.747; -367.400;-1187.000;-1058.000
358.880; -234.300; -810.000; -744.000
359.012; -145.200; -376.000; -202.000
359.145; -174.000; -480.000; -511.000
359.277; -277.200; -962.000; -913.000
359.409;  121.700;  536.000;  231.000
359.542; -244.800; -738.000; -688.000
359.674;  -25.700;   46.000;   13.000
359.806; -180.100; -565.000; -438.000
359.939; -178.000; -617.000; -516.000
360.071; -212.800; -583.000; -579.000
360.203; -130.900; -411.000; -364.000
360.335;    5.200;  164.000;  -16.000
360.468;  -93.600; -249.000; -307.000
360.600; -197.400; -547.000; -454.000
360.732; -196.700; -546.000; -423.000
360.864; -363.400;-1216.000;-1044.000
360.996; -143.500; -516.000; -554.000
361.129; -189.100; -389.000; -598.000
361.261;  -24.600;  110.000; -113.000
361.393; -111.700; -252.000; -214.000
361.525;  -10.400;   94.000;  244.000
361.657; -261.000; -821.000; -703.000
361.789;  -45.200; -139.000; -155.000
361.921; -199.800; -642.000; -593.000
362.053;  121.400;  524.000;  541.000
362.185;   -3.200;  288.000;   72.000
362.318; -267.900; -709.000; -705.000
362.450;   34.300;  294.000;  444.000
362.582; -313.100; -913.000; -870.000
362.714; -109.700; -353.000; -332.000
362.846; -199.000; -606.000; -490.000
362.978; -283.800; -941.000; -811.000
363.109; -126.200; -161.000; -260.000
363.241; -265.700; -739.000; -749.000
363.373; -224.200; -649.000; -564.000
363.505;  -69.000; -186.000;  -91.000
363.637; -185.100; -787.000; -601.000
363.769; -371.100;-1067.000;-1080.000
363.901; -182.700; -596.000; -654.000
364.033; -332.700;-1103.000;-1062.000
364.165;  -97.600; -283.000; -283.000
364.296; -121.700; -316.000; -177.000
364.428; -396.500;-1344.000;-1220.000
364.560; -209.900; -679.000; -661.000
364.692; -214.100; -738.000; -835.000
364.824; -191.100; -588.000; -456.000
364.955; -129.000; -402.000; -564.000
365.087; -347.300;-1097.000; -852.000
365.219; -259.700; -686.000; -816.000
365.351; -196.600; -526.000; -572.000
365.482;   19.100;  300.000;  240.000
365.614; -158.500; -402.000; -314.000
365.746; -223.300; -729.000; -752.000
365.877; -218.200; -706.000; -672.000
366.009;  -69.100;  -35.000;  -62.000
366.141; -353.600;-1249.000;-1134.000
366.272; -221.200; -803.000; -719.000
366.404; -278.300;-1005.000; -874.000
366.535;  -74.000; -139.000;  -12.000
366.667; -209.200; -644.000; -649.000
366.799;   70.700;  353.000;  203.000
366.930; -310.500; -862.000; -996.000
367.062; -198.100; -639.000; -613.000
367.193; -277.700; -872.000; -842.000
367.325; -182.200; -580.000; -684.000
367.456; -103.600; -246.000;   31.000
367.588; -132.000; -371.000; -318.000
367.719;  -76.100;  -44.000;  -45.000
367.851;  -93.500; -222.000; -241.000
367.982; -304.100; -875.000; -732.000
368.113; -124.200; -475.000; -358.000
368.245; -321.900; -960.000; -841.000
368.376; -115.000; -254.000; -302.000
368.508; -127.300; -188.000; -263.000
368.639; -363.500;-1166.000;-1034.000
368.770; -255.600; -670.000; -589.000
368.902; -263.000; -836.000; -926.000
369.033; -277.000; -906.000; -855.000
369.164; -218.400; -720.000; -653.000
369.296; -235.300; -452.000; -601.000
369.427;  -74.600; -209.000; -144.000
369.558; -146.700; -593.000; -377.000
369.689; -199.000; -721.000; -569.000
369.821; -273.200; -951.000; -845.000
369.952;  -70.500;   42.000; -108.000
370.083; -108.700; -229.000; -108.000
370.214; -234.300; -735.000; -650.000
370.345;    4.600;   65.000;   81.000
370.477; -269.300; -810.000; -790.000
370.608;  -96.200; -328.000; -264.000
370.739; -381.900;-1233.000;-1292.000
370.870; -316.200;-1102.000; -923.000
371.001; -155.500; -378.000; -467.000
371.132; -227.100; -754.000; -735.000
371.263;  -38.900;  -42.000; -148.000
371.394; -277.200; -841.000; -748.000
371.525;   65.200;  345.000;  225.000
371.657; -264.500; -808.000; -670.000
371.788;   12.500;  103.000;  199.000
371.919; -117.000; -384.000; -304.000
372.050;  -30.200;  -91.000; -156.000
372.181;  -50.200; -188.000; -294.000
372.311;  -31.200;   42.000; -127.000
372.442; -159.400; -457.000; -451.000
372.573; -126.500; -444.000; -340.000
372.704; -312.100;-1008.000; -980.000
372.835; -118.800; -228.000; -289.000
372.966; -208.000; -646.000; -554.000
373.097; -239.700; -575.000; -711.000
373.228; -217.000; -717.000; -542.000
373.359; -264.600; -824.000; -536.000
373.490; -281.600; -881.000; -727.000
373.620; -305.100;-1001.000; -803.000
373.751; -137.600; -332.000; -396.000
373.882; -196.100; -663.000; -733.000
374.013;  -87.500; -449.000; -262.000
374.143; -213.100; -581.000; -659.000
374.274; -307.600; -987.000; -908.000
374.405; -103.500; -388.000; -276.000
374.536; -169.700; -526.000; -387.000
374.666; -227.300; -759.000; -807.000
374.797; -267.100; -817.000; -868.000
374.928; -217.300; -710.000; -560.000
375.058; -201.200; -535.000; -500.000
375.189;  -81.800;  -59.000;  -93.000
375.320; -338.900; -928.000;-1034.000
375.450; -210.300; -625.000; -616.000
375.581; -175.200; -526.000; -436.000
375.712; -113.800; -574.000; -250.000
375.842; -201.800; -438.000; -415.000
375.973; -191.800; -554.000; -513.000
376.103; -222.100; -665.000; -648.000
376.234; -192.800; -531.000; -552.000
376.364; -317.000; -944.000; -867.000
376.495;  208.100;  925.000;  529.000
376.625; -175.500; -472.000; -485.000
376.756; -215.500; -709.000; -678.000
376.886; -368.100;-1178.000;-1026.000
377.017; -322.300;-1048.000;-1061.000
377.147; -291.400; -786.000; -782.000
377.278;   31.000;  174.000;  228.000
377.408; -265.500; -801.000; -815.000
377.538; -217.700; -707.000; -693.000
377.669; -174.900; -537.000; -613.000
377.799; -250.800; -645.000; -635.000
377.929; -227.600; -610.000; -428.000
378.060; -280.500; -781.000; -847.000
378.190; -222.100; -726.000; -531.000
378.320; -148.500; -401.000; -406.000
378.451;  -41.100; -131.000;  -22.000
378.581;  -65.500;  -67.000; -110.000
378.711;  223.400; 1035.000;  866.000
378.841; -203.600; -533.000; -675.000
378.972; -281.600; -871.000; -751.000
379.102; -196.400; -652.000; -579.000
379.232;  -99.300; -126.000;  -73.000
379.362; -316.800;-1001.000; -885.000
379.492; -187.800; -373.000; -424.000
379.623;   23.300;    0.000;  111.000
379.753; -327.700;-1107.000; -974.000
379.883;   14.400;   59.000;  156.000
380.013; -312.200;-1081.000;-1017.000
380.143; -340.900;-1097.000;-1056.000
380.273; -324.700; -985.000; -861.000
380.403;  -91.700; -344.000; -257.000
380.533; -240.000; -651.000; -664.000
380.663;   25.300;  173.000;  128.000
380.793; -360.600;-1027.000;-1074.000
380.923;  -81.600; -103.000;  -34.000
381.053; -225.200; -613.000; -623.000
381.183; -101.500; -106.000; -248.000
381.313; -220.500; -656.000; -470.000
381.443; -214.600; -692.000; -473.000
381.573; -173.000; -402.000; -409.000
381.703; -371.300;-1249.000;-1095.000
381.833; -423.000;-1454.000;-1336.000
381.963;  -49.400; -134.000;  -87.000
382.093; -289.800; -925.000; -909.000
382.223; -225.200; -713.000; -602.000
382.353; -237.500; -801.000; -608.000
382.482; -325.200;-1091.000; -964.000
382.612; -222.400; -872.000; -644.000
382.742; -234.200; -695.000; -622.000
382.872; -185.400; -565.000; -551.000
383.002;   -9.400;  347.000; -132.000
383.131; -125.800; -226.000; -160.000
383.261; -237.700; -706.000; -768.000
383.391; -187.000; -552.000; -377.000
383.521;   97.800;  451.000;  263.000
383.650; -297.400; -947.000; -904.000
383.780; -237.600; -783.000; -656.000
383.910;  171.800;  880.000;  802.000
384.039; -267.300; -794.000; -656.000
384.169; -391.000;-1205.000;-1017.000
384.299; -214.600; -650.000; -662.000
384.428; -259.600; -764.000; -680.000
384.558; -111.800; -308.000; -275.000
384.687; -145.500; -414.000; -334.000
384.817;  -22.000;   75.000;   -2.000
384.947; -115.000; -234.000; -141.000
385.076;  245.400;  982.000;  912.000
385.206;   74.000;  369.000;  480.000
385.335; -177.800; -549.000; -417.000
385.465; -237.900; -655.000; -663.000
385.594;  -40.700;  -53.000;  -44.000
385.724; -297.500; -868.000; -838.000
385.853; -112.400; -296.000; -270.000
385.982; -274.500; -743.000; -787.000
386.112; -309.700;-1052.000; -871.000
386.241; -105.900; -307.000; -312.000
386.371;  -56.400; -174.000;  -87.000
386.500; -295.400; -825.000; -789.000
386.629; -289.400; -874.000; -817.000
386.759;  -21.700;  -43.000;   68.000
386.888;  -87.300; -170.000; -250.000
387.017; -219.900; -648.000; -620.000
387.147; -254.600; -771.000; -798.000
387.276; -173.800; -410.000; -397.000
387.405; -135.400; -398.000; -342.000
387.535; -161.000; -452.000; -361.000
387.664; -192.600; -692.000; -620.000
387.793;  -91.300; -198.000; -113.000
387.922;   24.500;  255.000;  200.000
388.052; -172.500; -576.000; -423.000
388.181; -176.600; -342.000; -472.000
388.310; -273.600; -889.000; -710.000
388.439; -261.900; -749.000; -742.000
388.568;   -7.200;  365.000;  244.000
388.697; -216.500; -756.000; -653.000
388.826; -219.700; -768.000; -666.000
388.956; -116.800; -285.000; -307.000
389.085;  -85.400; -347.000; -287.000
389.214; -248.700; -842.000; -872.000
389.343; -186.200; -645.000; -413.000
389.472;   67.900;  126.000;  149.000
389.601;  -17.000;   91.000;    0.000
389.730; -174.300; -568.000; -687.000
389.859;   42.000;  226.000;   46.000
389.988; -151.900; -423.000; -408.000
390.117;  -88.400; -168.000; -146.000
390.246; -160.500; -331.000; -320.000
390.375; -225.100; -673.000; -626.000
390.504; -200.600; -703.000; -621.000
390.633; -260.200; -672.000; -726.000
390.761; -232.900; -732.000; -645.000
390.890;  -39.200;   -4.000; -130.000
391.019; -156.500; -421.000; -441.000
391.148; -284.600; -826.000; -855.000
391.277; -228.000; -576.000; -493.000
391.406; -259.700; -821.000; -805.000
391.534;   11.700;  574.000; -301.000
391.663; -187.100; -583.000; -645.000
391.792; -237.400; -673.000; -701.000
391.921;  -31.400;   -3.000;   15.000
392.050; -146.800; -287.000; -228.000
392.178; -367.900;-1206.000;-1061.000
392.307; -242.900; -758.000; -712.000
392.436; -226.200; -427.000; -641.000
392.564;  -34.500;  166.000;   -6.000
392.693; -235.000; -860.000; -682.000
392.822; -203.700; -529.000; -534.000
392.950; -233.600; -880.000; -714.000
393.079; -130.100; -188.000; -328.000
393.208; -173.300; -488.000; -511.000
393.336;  -62.600; -170.000; -145.000
393.465; -115.400; -317.000; -199.000
393.593;  -54.800;   62.000;   79.000
393.722; -317.100;-1121.000; -916.000
393.850;  -64.100; -188.000;  -61.000
393.979; -308.000; -926.000; -805.000
394.107; -200.200; -517.000; -537.000
394.236; -181.100; -570.000; -507.000
394.364;   61.300;  383.000;  206.000
394.493; -265.400; -911.000; -767.000
394.621; -291.500; -955.000; -916.000
394.750; -289.000; -873.000; -923.000
394.878;  -91.700; -247.000; -149.000
395.007; -266.600; -721.000; -807.000
395.135; -267.100; -790.000; -721.000
395.263; -341.900;-1038.000;-1040.000
395.392;  -54.600;  -25.000; -107.000
395.520; -274.000; -818.000; -679.000
395.648; -306.100; -865.000; -915.000
395.777; -187.800; -366.000; -405.000
395.905; -184.500; -449.000; -564.000
396.033;    6.100;  217.000;  172.000
396.162; -145.600; -399.000; -453.000
396.290;  -47.200;  -17.000;   -2.000
396.418; -187.300; -555.000; -514.000
396.546; -269.800; -571.000; -466.000
396.674; -274.500; -850.000; -878.000
396.803;  -39.100;  -72.000;  -23.000
396.931;  -87.500; -179.000; -199.000
397.059; -332.700;-1026.000; -989.000
397.187; -290.300;-1026.000; -975.000
397.315; -295.500; -884.000; -649.000
397.443; -200.200; -592.000; -443.000
397.572; -166.000; -578.000; -424.000
397.700; -233.900; -607.000; -614.000
397.828;  -37.000;  120.000;  -90.000
397.956; -181.900; -508.000; -478.000
398.084; -235.700; -767.000; -626.000
398.212;  -26.200;  137.000;  124.000
398.340;  -33.800;  -56.000;  159.000
398.468; -131.200; -390.000; -169.000
398.596; -316.900; -993.000; -953.000
398.724; -272.100; -762.000; -767.000
398.852; -335.500;-1024.000; -976.000
398.980; -183.000; -560.000; -560.000
399.108; -253.600; -982.000; -735.000
399.236;  -45.400;   13.000;    8.000
399.363;    2.700;  222.000;  196.000
399.491; -136.100; -404.000; -398.000
399.619; -275.900; -829.000; -800.000
399.747; -270.100; -859.000; -771.000
399.875;   60.500;  220.000;  234.000
400.003; -146.400; -359.000; -284.000
400.130; -139.100; -421.000; -341.000
400.258;  -55.500;  -83.000;   38.000
400.386; -120.200; -352.000; -168.000
400.514; -181.000; -526.000; -587.000
400.641; -331.500; -928.000; -802.000
400.769; -307.900; -979.000; -888.000
400.897; -243.500; -838.000; -793.000
401.025;  -71.200; -166.000; -152.000
401.152;    4.600;  220.000;   38.000
401.280; -161.100; -430.000; -429.000
401.408; -212.000; -712.000; -576.000
401.535; -233.100; -735.000; -758.000
401.663; -395.200;-1134.000;-1054.000
401.790; -197.100; -514.000; -525.000
401.918;   83.400;  436.000;  405.000
402.046;  -31.900;  134.000;  122.000
402.173;  -64.800;  -18.000;    7.000
402.301; -153.300; -519.000; -397.000
402.428;  113.800;  528.000;  383.000
402.556; -333.400;-1188.000; -913.000
402.683;  -65.700;  -20.000;   -1.000
402.811;  -11.500;  -37.000; -206.000
402.938;  -33.500;   20.000;   27.000
403.066; -188.000; -574.000; -558.000
403.193;  -36.300;  299.000;  239.000
403.321; -155.900; -396.000; -574.000
403.448;   -3.500;   83.000;   27.000
403.575;  -58.900;  -90.000;  -46.000
403.703; -250.600; -732.000; -557.000
403.830; -153.100; -531.000; -496.000
403.957; -328.200;-1117.000;-1023.000
404.085;  -77.600;  -61.000; -172.000
404.212;  -27.300;  -50.000;   63.000
404.339; -129.900; -566.000; -306.000
404.467; -179.400; -612.000; -524.000
404.594; -108.500; -287.000; -227.000
404.721; -244.400; -869.000; -764.000
404.848;  -70.700; -113.000; -202.000
404.976; -296.000; -856.000; -783.000
405.103;  -43.700;  -14.000;  -82.000
405.230;   -7.200;  190.000;  226.000
405.357;  -43.800;  117.000;   44.000
405.484;  -72.700;  -49.000;    5.000
405.612; -172.100; -548.000; -563.000
405.739; -161.400; -488.000; -243.000
405.866;  126.700;  669.000;  385.000
405.993; -141.500; -398.000; -102.000
406.120; -279.200; -801.000; -887.000
406.247; -146.800; -323.000; -342.000
406.374;  129.000;  540.000;  629.000
406.501; -209.600; -632.000; -702.000
406.628; -196.800; -621.000; -589.000
406.755; -249.800; -803.000; -620.000
406.882; -115.200; -228.000; -277.000
407.009; -226.700; -719.000; -628.000
407.136; -146.700; -480.000; -401.000
407.263; -294.700; -939.000; -829.000
407.390; -239.200; -692.000; -614.000
407.517; -384.400;-1139.000;-1187.000
407.644; -153.100; -332.000; -256.000
407.771; -155.400; -249.000; -287.000
407.898;   22.500;  168.000;  328.000
408.025; -178.400; -421.000; -313.000
408.151;    3.400;   82.000;  153.000
408.278;  -96.300; -267.000; -216.000
408.405; -277.500; -931.000; -899.000
408.532; -207.300; -549.000; -542.000
408.659; -250.400; -677.000; -648.000
408.785; -393.100;-1298.000;-1170.000
408.912; -121.800; -412.000; -296.000
409.039; -212.000; -610.000; -686.000
409.166; -219.900; -591.000; -555.000
409.292; -210.500; -571.000; -534.000
409.419; -232.800; -665.000; -649.000
409.546; -161.700; -431.000; -192.000
409.672; -213.200; -713.000; -545.000
409.799;  -64.800;  -36.000;   34.000
409.926; -104.300; -180.000; -179.000
410.052; -369.200;-1127.000;-1091.000
410.179; -157.500; -368.000; -392.000
410.305; -170.800; -375.000; -493.000
410.432; -109.400; -220.000; -333.000
410.558; -146.100; -305.000; -380.000
410.685; -194.300; -688.000; -431.000
410.812; -183.600; -409.000; -588.000
410.938; -291.400; -964.000; -808.000
411.065; -200.500; -671.000; -645.000
411.191;  -95.500; -189.000; -174.000
411.317; -298.000; -823.000; -742.000
411.444; -133.900; -317.000; -246.000
411.570; -104.100; -339.000; -294.000
411.697; -236.900; -758.000; -752.000
411.823; -341.700; -989.000; -999.000
411.949; -111.600;  -56.000;   17.000
412.076; -237.400; -539.000; -519.000
412.202; -253.800; -758.000; -757.000
412.329; -277.500; -798.000; -752.000
412.455; -233.100; -821.000; -657.000
412.581;  -38.100;  -15.000;  172.000
412.707; -235.200; -540.000; -457.000
412.834;    2.100;  156.000;  219.000
412.960; -271.500; -785.000; -784.000
413.086; -252.800; -743.000; -701.000
413.212;   84.200;  604.000;  578.000
413.339; -225.300; -685.000; -701.000
413.465; -170.100; -364.000; -310.000
413.591; -260.500; -757.000; -474.000
413.717; -125.700; -358.000; -366.000
413.843; -290.300; -839.000; -861.000
413.969; -134.300;  -47.000; -292.000
414.096; -259.100; -679.000; -679.000
414.222;  -38.800;  -33.000;   85.000
414.348; -230.100; -652.000; -385.000
414.474;  -47.100;   38.000;  -52.000
414.600;  -72.900; -126.000; -144.000
414.726;  -67.100;  -96.000;  -55.000
414.852; -186.000; -365.000; -342.000
414.978;  -21.500;  104.000;  -18.000
415.104;  -22.400;   38.000;   80.000
415.230; -148.100; -329.000; -330.000
415.356; -194.200; -409.000; -514.000
415.482;  -84.300;   13.000;  -35.000
415.608; -102.300; -247.000; -323.000
415.734;  -19.000;   67.000;   38.000
415.860; -273.900; -875.000; -767.000
415.986; -234.300; -685.000; -607.000
416.111; -293.700; -798.000; -652.000
416.237; -180.500; -424.000; -571.000
416.363; -249.000; -765.000; -733.000
416.489; -159.000; -324.000; -251.000
416.615; -292.300; -707.000; -742.000
416.741; -252.800; -677.000; -784.000
416.866; -233.300; -673.000; -736.000
416.992; -294.900; -801.000; -818.000
417.118; -141.500;  -41.000;  -80.000
417.244; -248.600; -798.000; -531.000
417.369; -259.400; -801.000; -612.000
417.495; -153.600; -325.000; -254.000
417.621; -330.600;-1015.000; -803.000
417.746; -185.000; -579.000; -572.000
417.872;  -84.800; -254.000; -144.000
417.998; -208.900; -515.000; -530.000
418.123; -321.200;-1073.000; -845.000
418.249; -194.100; -512.000; -601.000
418.374; -292.300; -916.000; -824.000
418.500; -167.600; -383.000; -482.000
418.626;  -36.100;   70.000;  -59.000
418.751; -191.200; -549.000; -448.000
418.877; -261.800; -637.000; -643.000
419.002; -173.000; -688.000; -560.000
419.128; -286.000; -930.000; -721.000
419.253; -311.300; -967.000; -837.000
419.379; -205.900; -391.000; -338.000
419.504;   58.600;  325.000;  415.000
419.629; -109.600; -393.000; -212.000
419.755; -102.400; -317.000; -254.000
419.880; -139.600;  -98.000;   67.000
420.006; -137.500; -280.000; -221.000
420.131; -237.600; -662.000; -775.000
420.256; -147.100; -315.000; -316.000
420.382; -234.300; -665.000; -687.000
420.507; -249.200; -649.000; -778.000
420.632; -129.300; -337.000; -339.000
420.758; -113.900; -251.000; -425.000
420.883; -257.100; -876.000; -672.000
421.008; -262.300; -775.000; -619.000
421.133; -211.900; -509.000; -467.000
421.259; -119.400; -325.000; -259.000
421.384; -295.700; -834.000; -693.000
421.509; -279.500;-1052.000; -862.000
421.634; -334.500; -936.000; -820.000
421.759; -179.900; -359.000; -327.000
421.885; -234.700; -717.000; -656.000
422.010; -202.700; -673.000; -542.000
422.135; -317.600; -695.000; -727.000
422.260;   45.000;  340.000;  280.000
422.385;  -97.600;   12.000;  -98.000
422.510;  -15.500;  151.000;  -26.000
422.635;  -69.500;  -87.000;  -43.000
422.760; -231.100; -766.000; -791.000
422.885;  -30.300;  -57.000;  -80.000
423.010;  -70.700; -112.000; -169.000
423.135; -189.500; -481.000; -561.000
423.260; -100.200; -150.000; -245.000
423.385;   47.100;  476.000;  222.000
423.510;  -12.200;   71.000;  -22.000
423.635;  -15.600;  133.000;   45.000
423.760;   35.600;  383.000;  328.000
423.885;   27.100;  336.000;  391.000
424.010;  -73.900;  -68.000;  -13.000
424.135;  -61.300;    5.000;  -33.000
424.259; -234.800; -654.000; -457.000
424.384; -144.200; -279.000; -272.000
424.509; -126.200; -260.000; -186.000
424.634; -261.100; -761.000; -623.000
424.759; -232.200; -688.000; -544.000
424.883; -195.600; -506.000; -527.000
425.008; -211.900; -502.000; -410.000
425.133; -233.400; -679.000; -653.000
425.258; -211.100; -517.000; -381.000
425.382; -254.200; -867.000; -774.000
425.507; -198.900; -487.000; -543.000
425.632; -276.300; -802.000; -663.000
425.756; -133.400; -256.000; -146.000
425.881; -280.300; -831.000; -857.000
426.006; -196.900; -604.000; -355.000
426.130; -246.900; -696.000; -508.000
426.255; -219.500; -611.000; -491.000
426.379;  -65.300; -189.000; -577.000
426.504;  113.500;  660.000;  544.000
426.629; -207.800; -519.000; -466.000
426.753;  -87.500;   64.000;  -46.000
426.878; -133.800; -252.000; -288.000
427.002; -209.700; -651.000; -668.000
427.127;  -76.600;  -35.000; -158.000
427.251;   50.500;  372.000;  401.000
427.375; -114.000; -191.000; -173.000
427.500; -209.800; -616.000; -610.000
427.624; -130.300; -234.000; -400.000
427.749; -163.600; -216.000; -225.000
427.873; -182.900; -499.000; -412.000
427.997;  -95.300; -222.000; -230.000
428.122;  132.200;  795.000;  703.000
428.246;   85.700;  433.000;  434.000
428.371; -310.300; -869.000; -773.000
428.495; -240.600; -624.000; -646.000
428.619; -118.100; -186.000; -117.000
428.743;  -25.000;   65.000;  132.000
428.868; -291.600; -732.000; -643.000
428.992; -156.200; -219.000; -326.000
429.116; -162.300; -329.000; -357.000
429.240;   39.600;  419.000;  426.000
429.365; -159.000; -454.000; -574.000
429.489; -235.600; -638.000; -647.000
429.613;  -98.400; -236.000; -177.000
429.737; -210.100; -563.000; -432.000
429.861; -130.200; -247.000; -133.000
429.985; -148.100; -425.000; -305.000
430.109; -328.600; -770.000; -908.000
430.234;  -11.400;   76.000;  -50.000
430.358; -129.700; -250.000; -160.000
430.482; -251.600; -672.000; -564.000
430.606; -216.800; -655.000; -375.000
430.730; -183.600; -437.000; -388.000
430.854; -315.700; -909.000; -835.000
430.978; -278.000; -795.000; -764.000
431.102; -213.300; -499.000; -422.000
431.226; -300.800; -874.000; -815.000
431.350;   18.100;  345.000;  422.000
431.474; -181.900; -661.000; -373.000
431.597; -312.500;-1060.000; -848.000
431.721; -136.300; -276.000; -267.000
431.845; -229.600; -704.000; -472.000
431.969; -123.200; -304.000; -349.000
432.093; -174.300; -395.000; -317.000
432.217;  -17.500;   32.000;   82.000
432.341; -187.100; -523.000; -518.000
432.464;  -57.300;   96.000;   40.000
432.588; -212.900; -401.000; -329.000
432.712;  -67.900;  -52.000;  -52.000
432.836;   29.600;  213.000;  263.000
432.959; -160.600; -372.000; -311.000
433.083;  -82.100;   11.000;    2.000
433.207;   75.200;  285.000;  930.000
433.330; -131.300; -391.000; -200.000
433.454; -226.100; -654.000; -638.000
433.578;   77.800;  583.000;  278.000
433.701; -237.800; -623.000; -675.000
433.825; -161.400; -292.000; -299.000
433.949;  -70.500;   28.000;  -72.000
434.072; -141.000; -410.000; -323.000
434.196; -100.800; -309.000; -117.000
434.319; 7764.200;25482.000;25124.000
434.443; -228.400; -656.000; -603.000
434.566;    0.000;  281.000;   62.000
434.690; -222.900; -637.000; -383.000
434.813; -122.900; -251.000; -173.000
434.937; -204.700; -569.000; -696.000
435.060; -175.400; -423.000; -332.000
435.184; -159.800; -492.000; -217.000
435.307;  -40.900;  159.000;  102.000
435.431;  -49.800;  -40.000;   24.000
435.554; -169.000; -399.000; -240.000
435.677; -177.900; -350.000; -258.000
435.801;  -47.100;  -25.000;   49.000
435.924;  -90.400;    1.000;  -67.000
436.048; -318.200;-1019.000; -732.000
436.171; -124.200; -240.000;  -66.000
436.294; -132.100; -248.000; -229.000
436.417; -321.100; -963.000; -849.000
436.541; -282.400; -814.000; -840.000
436.664;  -82.700; -242.000; -316.000
436.787;  -22.900;   13.000;  113.000
436.910; -248.800; -792.000; -422.000
437.034;  -12.200;  142.000;  143.000
437.157;  -21.800;  -11.000;    0.000
437.280; -180.700; -392.000; -292.000
437.403; -320.700; -982.000; -869.000
437.526; -324.800; -903.000; -865.000
437.649; -198.900; -505.000; -332.000
437.772; -251.800; -692.000; -540.000
437.896;   95.100;  700.000;  544.000
438.019; -243.100; -758.000; -503.000
438.142; -217.800; -596.000; -506.000
438.265; -263.500; -639.000; -670.000
438.388; -185.600; -520.000; -410.000
438.511; -230.200; -597.000; -394.000
438.634; -165.800; -247.000; -125.000
438.757; -244.400; -693.000; -619.000
438.880;  -75.100;  -34.000;  -57.000
439.003; -195.200; -417.000; -437.000
439.126; -102.300; -287.000; -167.000
439.248;  -94.500;  -98.000; -139.000
439.371;  -56.600;    9.000;  -53.000
439.494;  120.500;  510.000;  439.000
439.617;  -76.800;   65.000;  -88.000
439.740; -345.200; -968.000; -816.000
439.863; -267.900; -755.000; -595.000
439.986; -241.000; -476.000; -431.000
440.108; -123.500; -161.000; -112.000
440.231; -345.300; -950.000; -836.000
440.354;  -89.400;  -64.000; -150.000
440.477; -227.000; -566.000; -542.000
440.599; -212.100; -200.000; -225.000
440.722; -231.500; -709.000; -586.000
440.845;  176.200;  751.000;  928.000
440.968; -155.100; -415.000; -311.000
441.090; -121.300; -199.000;  -33.000
441.213; -279.700;-1021.000; -825.000
441.336;  -74.900; -159.000;   -5.000
441.458; -171.300; -549.000; -396.000
441.581; -250.500; -628.000; -629.000
441.703; -100.500; -152.000;   13.000
441.826; -199.100; -557.000; -400.000
441.948;  -76.100;   56.000;   51.000
442.071;  125.000;  555.000;  424.000
442.193; -224.900; -531.000; -485.000
442.316;  -24.300;  152.000;   97.000
442.438; -131.900; -233.000;  -10.000
442.561;   18.000;  272.000;  262.000
442.683; -281.500; -809.000; -522.000
442.806;  -91.300;   -8.000;   74.000
442.928; -290.900; -859.000; -604.000
443.051; -208.400; -577.000; -373.000
443.173; -196.400; -341.000; -339.000
443.295; -173.400; -263.000; -371.000
443.418; -132.000; -321.000;  -29.000
443.540;  -64.600; -106.000;   -4.000
443.662; -242.300; -563.000; -465.000
443.785;   18.200;  335.000;  199.000
443.907; -191.000; -362.000; -208.000
444.029; -233.800; -767.000; -494.000
444.152; -255.900; -644.000; -554.000
444.274;  -82.800;  -18.000;  -24.000
444.396; -219.500; -461.000; -221.000
444.518; -232.600; -691.000; -454.000
444.640; -167.500; -268.000; -111.000
444.763;    6.300;  388.000;  249.000
444.885; -178.700; -432.000; -392.000
445.007;  -50.400;   35.000;   86.000
445.129; -208.800; -610.000; -515.000
445.251; -203.500; -372.000; -439.000
445.373; -260.300; -537.000; -386.000
445.495;   35.600;  242.000;  350.000
445.617;  133.600;  853.000;  753.000
445.739; -152.300; -215.000;  -97.000
445.861; -122.800; -245.000; -112.000
445.984; -120.500; -267.000; -101.000
446.105; -149.700; -418.000; -251.000
446.227; -109.600; -176.000;  -19.000
446.349; -202.600; -358.000; -249.000
446.471; -234.600; -615.000; -448.000
446.593; -144.500; -316.000;   19.000
446.715;  -76.300;  -67.000;   41.000
446.837;  162.000;  697.000;  832.000
446.959; -187.200; -457.000; -478.000
447.081; -213.200; -628.000; -518.000
447.203;  133.300;  862.000;  834.000
447.325; -116.400; -270.000;   42.000
447.446;   21.400;  286.000;  530.000
447.568; -325.200; -921.000; -803.000
447.690; -179.500; -236.000; -245.000
447.812; -251.400; -798.000; -519.000
447.933;  -55.800;  155.000;  127.000
448.055; -124.400; -306.000; -261.000
448.177;  -41.200;   31.000;   79.000
448.299; -349.000; -935.000; -727.000
448.420;  -40.000;  -25.000;  159.000
448.542;  -87.700;   -3.000;   33.000
448.664;  -19.900;  109.000;  322.000
448.785;  -13.300;  265.000;   83.000
448.907; -194.400; -614.000; -353.000
449.028; -238.800; -771.000; -471.000
449.150;   99.300;  492.000;  589.000
449.272; -377.000;-1044.000; -913.000
449.393;   96.300;  612.000;  694.000
449.515; -290.100; -634.000; -581.000
449.636; -122.300; -264.000; -155.000
449.758;  131.200;  763.000;  622.000
449.879; -191.900; -498.000; -396.000
450.001; -144.900; -149.000;  -49.000
450.122;  -56.400;  -95.000;  162.000
450.244;  -50.000;   37.000;  364.000
450.365; -197.700; -495.000; -301.000
450.486;  -43.100;   80.000;  268.000
450.608;    0.800;  393.000;  326.000
450.729;   42.000;  578.000;  645.000
450.850; -240.200; -574.000; -466.000
450.972; -247.500; -552.000; -389.000
451.093;   20.000;  190.000;  588.000
451.214; -165.200; -516.000; -337.000
451.336;   60.100;  773.000;  579.000
451.457;   17.600;  264.000;  393.000
451.578; -114.500; -118.000;  -74.000
451.699; -231.400; -546.000; -540.000
451.821; -114.800; -284.000;  -50.000
451.942;  -10.700;  278.000;  285.000
452.063;   32.500;  228.000;  419.000
452.184; -162.900;  -54.000;  -49.000
452.305;  -29.700;  103.000;  170.000
452.427; -227.600; -549.000; -301.000
452.548;  -98.000;   23.000;   79.000
452.669; -117.700; -257.000;  -89.000
452.790; -112.800;    3.000;  -18.000
452.911;  -36.200;  195.000;  259.000
453.032; -163.400; -289.000;  -60.000
453.153;  -82.800;  -29.000;   81.000
453.274;  168.800;  737.000;  868.000
453.395;  -59.800;  -51.000;  175.000
453.516;  294.700; 1317.000; 1388.000
453.637; -177.800; -205.000; -150.000
453.758;  -95.600;   15.000;   69.000
453.879; -184.900; -462.000; -250.000
454.000;  227.200; 1086.000;  948.000
454.121; -231.500; -554.000; -326.000
454.242; -211.900; -599.000; -383.000
454.362;  -66.800;  -99.000;  114.000
454.483; -139.200; -309.000; -229.000
454.604;   50.700;  512.000;  580.000
454.725; -261.900; -627.000; -555.000
454.846; -236.800; -474.000; -406.000
454.967;   11.800;  230.000;  539.000
455.087;  -17.600;  179.000;  153.000
455.208;   72.500;  554.000;  856.000
455.329;  -53.100;  -22.000;   82.000
455.450;   28.800;  473.000;  633.000
455.570; -144.500; -234.000; -211.000
455.691;  -14.500;  201.000;  407.000
455.812; -164.500; -270.000;  -92.000
455.932;  -90.600;  107.000;  -97.000
456.053; -108.700;   36.000;   24.000
456.173; -188.700; -433.000; -355.000
456.294; -239.700; -476.000; -303.000
456.415; -101.800;  -73.000;   70.000
456.535;  -20.100;  297.000;  273.000
456.656;  -34.200;  132.000;  240.000
456.776;  -96.800;    3.000;  298.000
456.897;   10.000;  308.000;  513.000
457.017; -135.100; -153.000;   -3.000
457.138; -207.700; -402.000; -249.000
457.258;  -26.700;  263.000;  224.000
457.379;   23.300;  509.000;  521.000
457.499;    1.500;  443.000;  432.000
457.620; -236.100; -407.000; -231.000
457.740; -126.000; -132.000;  -11.000
457.860;  -80.900;   87.000;   44.000
457.981; -103.000;  132.000;  124.000
458.101; -131.800;  -89.000;   40.000
458.221;   -6.700;  336.000;  402.000
458.342;  -82.600;   -4.000;  -37.000
458.462;   28.000;  617.000;  352.000
458.582; -187.500; -302.000; -294.000
458.703;  -78.500;  303.000;  154.000
458.823;  -98.000;   22.000;  163.000
458.943;  -17.200;  341.000;  467.000
459.063; -114.900; 1124.000;  192.000
459.183;  -49.100;  328.000;  313.000
459.304;   22.100;  315.000;  517.000
459.424; -204.100; -246.000;  -89.000
459.544;   50.700;  388.000;  764.000
459.664;   18.200;  499.000;  506.000
459.784;  193.500; 1004.000; 1175.000
459.904;   87.200;  867.000;  744.000
460.024;  161.000;  867.000;  684.000
460.144;   13.100;  449.000;  554.000
460.264;  -14.800;  515.000;  327.000
460.385; -122.800; -145.000; -119.000
460.505;   74.800;  905.000;  858.000
460.625; -146.000;  -17.000;  -68.000
460.745;  -17.200;  396.000;  541.000
460.864;  -60.100;  153.000;  469.000
460.984;   17.400;  499.000;  573.000
461.104;  306.100; 1656.000; 1775.000
461.224;   84.400;  657.000;  650.000
461.344;  -32.000;  431.000;  360.000
461.464;  -36.200;  258.000;  513.000
461.584;  -24.800;  283.000;  466.000
461.704; -120.800;   58.000;  108.000
461.824;  -78.000;  238.000;  259.000
461.943;  -48.500;  191.000;  130.000
462.063;  -93.300;    2.000;  324.000
462.183;   69.600;  639.000;  717.000
462.303;  236.400; 1678.000; 1230.000
462.422;   91.400;  781.000;  840.000
462.542;  -69.000;  271.000;  391.000
462.662;  -47.000;  353.000;  380.000
462.782;   58.500;  833.000;  572.000
462.901;    0.400;  545.000;  717.000
463.021;  342.500; 1702.000; 1638.000
463.141;   -1.100;  337.000;  770.000
463.260;  -12.700;  614.000;  474.000
463.380;   69.600;  902.000;  884.000
463.499;  -49.400;  342.000;  332.000
463.619;  -25.800;  581.000;  559.000
463.738;  296.400; 1644.000;  903.000
463.858;   26.300;  657.000;  811.000
463.978;  -27.900;  542.000;  396.000
464.097;   91.900;  921.000; 1114.000
464.217;  185.300; 1196.000; 1143.000
464.336;  212.400; 1068.000; 1130.000
464.455;  -17.500;  328.000;  659.000
464.575;   74.300;  597.000;  602.000
464.694;  182.200; 1204.000; 1179.000
464.814;  146.800; 1190.000; 1138.000
464.933;  141.000; 1095.000; 1027.000
465.052;  212.300; 1412.000; 1054.000
465.172;   77.100;  922.000;  799.000
465.291;  228.000; 1376.000; 1320.000
465.410;   63.800;  462.000;  735.000
465.530;  208.600; 1355.000; 1310.000
465.649;  177.200; 1209.000; 1273.000
465.768;  270.600; 1673.000; 1508.000
465.888;  155.200;  941.000; 1174.000
466.007;  212.300; 1335.000; 1440.000
466.126;   50.200;  721.000;  641.000
466.245;  115.300; 1176.000; 1187.000
466.364;   96.500;  950.000; 1060.000
466.484;  138.300; 1024.000; 1213.000
466.603;  117.400; 1101.000; 1222.000
466.722;  270.900; 1490.000; 1769.000
466.841;  152.300; 1151.000; 1401.000
466.960;  115.300; 1069.000;  972.000
467.079;  337.100; 1971.000; 1786.000
467.198;  143.200; 1238.000; 1181.000
467.317;  237.500; 1768.000; 1162.000
467.436;  187.100; 1709.000; 1261.000
467.555;  308.200; 1796.000; 1746.000
467.674;  154.700; 1227.000; 1329.000
467.793;  144.800; 1376.000; 1374.000
467.912;  177.800; 1658.000; 1539.000
468.031;  336.400; 2038.000; 1930.000
468.150;  301.700; 1842.000; 1837.000
468.269;  406.100; 2313.000; 2090.000
468.388;  454.400; 2168.000; 2339.000
468.507;  580.900; 2884.000; 2903.000
468.626;  643.300; 2555.000; 2541.000
468.744;  325.300; 2018.000; 2174.000
468.863;  438.100; 2312.000; 2523.000
468.982;  259.300; 1503.000; 1555.000
469.101;  508.900; 2788.000; 2692.000
469.220;  389.800; 2333.000; 2176.000
469.338;  548.800; 2935.000; 3051.000
469.457;  408.100; 2719.000; 2545.000
469.576;  761.100; 3953.000; 3784.000
469.695;  528.300; 2877.000; 3066.000
469.813;  898.100; 4148.000; 4192.000
469.932;  872.100; 4255.000; 4485.000
470.051;  779.400; 4075.000; 4161.000
470.169;  844.900; 4470.000; 4338.000
470.288;  918.800; 4700.000; 4809.000
470.406; 1031.000; 5059.000; 5194.000
470.525; 1237.000; 6101.000; 5787.000
470.644; 1386.600; 6847.000; 6794.000
470.762; 1705.900; 8397.000; 7873.000
470.881; 1771.200; 8651.000; 8464.000
470.999; 2037.600; 9685.000; 9151.000
471.118; 2270.100;11174.000;10711.000

