
Integration time [ms]: 100.000
Averaging Nr. [scans]: 40
Smoothing Nr. [pixels]: 0
Data measured with spectrometer [name]: 2101012U2
Wave   ;Sample   ;Dark     ;Reference
[nm]   ;[counts] ;[counts] ;[counts] 

197.733;   47.225;  516.000;  404.000
197.879;  -73.250; -610.000; -634.000
198.025;  -61.175; -475.000; -420.000
198.171;  -77.025; -602.000; -612.000
198.317;  -34.500; -401.000; -316.000
198.463;  -66.650; -655.000; -404.000
198.609;   23.150;  181.000; -137.000
198.755;  -78.650; -644.000; -410.000
198.901;  -72.650; -505.000; -424.000
199.047;  -67.275; -615.000; -488.000
199.193;  -31.325; -230.000; -468.000
199.339;  -45.575; -222.000; -369.000
199.485;   25.800;  330.000;  271.000
199.631;   28.200;  227.000;  310.000
199.777;  -47.900; -466.000; -398.000
199.923;  -71.625; -610.000; -424.000
200.069;   -1.650; -141.000;  -58.000
200.215;   46.125;  128.000;  453.000
200.361;   44.575;  243.000;  477.000
200.507;  -48.525; -600.000; -373.000
200.653;  -35.550; -371.000; -194.000
200.798;  -29.825; -215.000; -125.000
200.944;   -6.700; -146.000;  -41.000
201.090;   35.450;   61.000;  222.000
201.236;  -11.900; -116.000; -158.000
201.382;  122.100;  874.000;  903.000
201.528;    7.050;  -58.000;  -48.000
201.674;  -33.825; -386.000; -293.000
201.819;  -63.725; -540.000; -439.000
201.965;  -77.300; -699.000; -447.000
202.111;  -31.200; -273.000; -226.000
202.257;  -31.975; -250.000; -238.000
202.402;   18.625;   13.000;  -36.000
202.548;  -33.625; -169.000; -116.000
202.694;   75.025;  410.000; -183.000
202.840;  -70.575; -603.000; -531.000
202.985;  -73.675; -681.000; -639.000
203.131; -116.975; -832.000; -666.000
203.277;  -35.950; -199.000; -262.000
203.423;  -52.075; -434.000; -520.000
203.568;  -34.200; -462.000; -237.000
203.714;  -68.075; -535.000; -542.000
203.860;  -83.375; -682.000; -641.000
204.005;   15.600;  112.000;  167.000
204.151;   67.625;  561.000;  556.000
204.296;  -45.850; -354.000; -221.000
204.442;  -80.675; -600.000; -547.000
204.588;  -79.500; -592.000; -579.000
204.733;   31.850;  178.000;  168.000
204.879; -127.125;-1018.000; -822.000
205.025;   15.575;  -99.000;  126.000
205.170;   -8.750;  -17.000;   94.000
205.316;   85.925;  438.000;  661.000
205.461;  -81.100; -698.000; -554.000
205.607;   71.625;  609.000;  665.000
205.752;  -77.175; -626.000; -551.000
205.898;  -53.000; -501.000; -391.000
206.043;  -55.200; -578.000; -506.000
206.189;  -39.800; -243.000; -285.000
206.334;   91.650;  554.000;  606.000
206.480;   79.475;  409.000;  239.000
206.625;  -75.700; -529.000; -552.000
206.771;  -45.675; -451.000; -373.000
206.916;  -35.525; -210.000; -537.000
207.062;  -78.050; -545.000; -591.000
207.207;  -50.900; -546.000; -443.000
207.353;   54.600;  185.000;  460.000
207.498;  -10.525;  196.000;   85.000
207.643;  -51.275; -501.000; -370.000
207.789; -125.425;-1069.000; -910.000
207.934;  -93.700; -665.000; -713.000
208.080;  -30.100; -154.000;   66.000
208.225;   -9.075;  -22.000;  -57.000
208.370;  -68.350; -727.000; -619.000
208.516;  -81.200; -741.000; -487.000
208.661;  -28.525; -127.000;  -69.000
208.806;  -35.875; -165.000; -171.000
208.952; -121.200;-1044.000; -731.000
209.097;   74.400;  378.000;  349.000
209.242;  -39.625; -307.000; -382.000
209.387;   53.825;  392.000;  350.000
209.533;  -52.150; -321.000; -350.000
209.678;   71.125;  472.000;  543.000
209.823;  -45.000; -408.000; -310.000
209.969; -101.125; -860.000; -757.000
210.114;  -93.300; -907.000; -719.000
210.259; -111.550; -939.000; -889.000
210.404;  -14.725; -171.000;  103.000
210.549;   10.125;  108.000;    3.000
210.695;  -12.875;   -3.000;  -95.000
210.840;   33.175;   94.000;   67.000
210.985;  -70.075; -484.000; -303.000
211.130;   68.725;  268.000;  406.000
211.275;   10.525;  207.000;  199.000
211.420;  -40.800; -300.000; -289.000
211.566;  -75.950; -536.000; -489.000
211.711;   18.850;  218.000;  157.000
211.856;  -66.050; -545.000; -519.000
212.001;   22.325;  151.000;   44.000
212.146;   23.100;  153.000;   49.000
212.291;  -25.525; -210.000; -186.000
212.436;  -25.350; -280.000;   -6.000
212.581;  -86.225; -685.000; -653.000
212.726;  -85.750; -487.000; -538.000
212.871;  -51.950; -552.000; -217.000
213.016; -147.875;-1172.000;-1029.000
213.161;   54.175;  406.000;  291.000
213.306;  -75.525; -435.000; -577.000
213.451;  -95.200; -778.000; -689.000
213.596;  -36.450; -455.000; -347.000
213.741;  -57.425; -448.000; -538.000
213.886;  -77.775; -498.000; -517.000
214.031;  -33.250; -294.000; -124.000
214.176;  -54.100; -408.000; -341.000
214.321;  -29.050; -296.000; -157.000
214.466;  -27.750; -163.000;  -43.000
214.611;    3.375;  -61.000;  -10.000
214.756; -120.825; -948.000; -858.000
214.901;  -30.425; -388.000; -226.000
215.046; -113.000; -797.000; -825.000
215.191;   23.025;  128.000;   35.000
215.336;  -17.650; -157.000;  -19.000
215.480;  -67.225; -684.000; -505.000
215.625;  -17.925; -175.000;  -19.000
215.770;  -80.125; -757.000; -662.000
215.915;   -8.875;   -5.000;  -97.000
216.060;  -25.300; -113.000;  -21.000
216.205;  -96.350; -731.000; -779.000
216.349;  -72.175; -470.000; -533.000
216.494; -132.625; -939.000; -867.000
216.639; -118.575; -823.000; -888.000
216.784;  -92.275; -577.000; -525.000
216.929;   59.500;  392.000;  281.000
217.073;   -6.175; -244.000;  -31.000
217.218;   14.800;   78.000;  -47.000
217.363;  -83.575; -656.000; -618.000
217.507;  -84.125; -623.000; -588.000
217.652; -126.400; -845.000; -874.000
217.797;  -87.475; -708.000; -659.000
217.942; -103.875; -856.000; -720.000
218.086;   90.775;  608.000;  539.000
218.231;  -16.125; -174.000;  -26.000
218.376;  -41.250; -337.000; -229.000
218.520;   13.925;  -41.000;   96.000
218.665;  -24.625; -338.000; -204.000
218.810;  -36.650; -275.000; -233.000
218.954;   17.475;  201.000;   35.000
219.099; -128.500; -713.000; -963.000
219.243;  -60.175; -589.000; -554.000
219.388;  -47.125; -264.000; -136.000
219.532;  -11.600; -116.000; -116.000
219.677;  -85.575; -564.000; -521.000
219.822;   -3.325;   33.000;   89.000
219.966;    9.650;   17.000;  -99.000
220.111;  -31.475; -328.000;  -40.000
220.255;  -83.450; -797.000; -750.000
220.400;  -16.475; -180.000; -146.000
220.544;  -63.875; -516.000; -450.000
220.689;  -62.450; -422.000; -451.000
220.833;  -13.550; -123.000;  -58.000
220.978;  -32.400; -393.000; -563.000
221.122;   16.800;  319.000;  307.000
221.267; -121.975; -906.000; -837.000
221.411;  -74.350; -478.000; -394.000
221.555;   -4.825; -104.000;  -23.000
221.700;  -55.200; -329.000; -222.000
221.844;   28.800;  255.000;  272.000
221.989;  -46.500; -328.000; -311.000
222.133;  -39.400; -289.000; -307.000
222.277;   -8.725;    5.000;   78.000
222.422;   11.825;  227.000;  113.000
222.566;  -35.000; -381.000; -214.000
222.711;  -67.450; -414.000; -479.000
222.855;  -72.500; -643.000; -586.000
222.999;  -86.250; -642.000; -717.000
223.144;  -29.400; -195.000; -194.000
223.288;   54.500;  423.000;  251.000
223.432;   27.025;  184.000;  230.000
223.576;   10.825;  152.000;  -21.000
223.721;   42.750;  364.000;  273.000
223.865;  -57.550; -472.000; -475.000
224.009;  249.275; 1673.000; 1631.000
224.153;  -78.425; -660.000; -671.000
224.298;  -73.350; -531.000; -489.000
224.442;    1.025;  -74.000;  -33.000
224.586;   -1.000; -169.000; -106.000
224.730;  -96.125; -858.000; -670.000
224.875; -103.075; -739.000; -688.000
225.019;   -0.850;  102.000;  188.000
225.163;   35.675;  208.000;  341.000
225.307;   13.100;   97.000;  -91.000
225.451;   39.225;  360.000;  481.000
225.595;   19.025;  264.000;  176.000
225.739;   -3.600; -170.000;  -94.000
225.884;   -0.025;   86.000;    5.000
226.028; -101.775; -760.000; -626.000
226.172;  -38.100; -260.000; -273.000
226.316; -119.600; -941.000; -902.000
226.460;  -81.300; -645.000; -493.000
226.604;  -54.925; -406.000; -400.000
226.748; -106.525; -836.000; -733.000
226.892;  -32.350; -227.000; -181.000
227.036;  -46.025; -537.000; -447.000
227.180;  -43.650; -551.000; -375.000
227.324;  -74.675; -561.000; -580.000
227.468; -116.400; -819.000; -717.000
227.612;   -2.900;  242.000;  -28.000
227.756; -100.975; -845.000; -698.000
227.900;   51.875;  342.000;  441.000
228.044;  -58.750; -509.000; -290.000
228.188;   56.550;  448.000;  568.000
228.332;  -78.450; -546.000; -472.000
228.476;  -30.475; -223.000; -149.000
228.620;  -34.075; -210.000; -150.000
228.764;   47.450;  431.000;  349.000
228.908;  -19.750; -155.000;   30.000
229.052;  -65.500; -615.000; -528.000
229.195;  -18.350; -172.000;   13.000
229.339;  -26.950; -235.000; -305.000
229.483;  -25.025;    5.000; -162.000
229.627;   -7.325; -156.000;  139.000
229.771;  -47.625; -218.000; -294.000
229.915;   -0.375;  230.000;   79.000
230.059;  -85.100; -648.000; -663.000
230.202;  -50.300; -370.000; -317.000
230.346;   -2.025; -107.000;  107.000
230.490;  -76.175; -489.000; -521.000
230.634; -113.325; -736.000; -553.000
230.777;   72.900;  478.000;  509.000
230.921;  -61.750; -450.000; -359.000
231.065;  -29.175; -246.000; -286.000
231.209;   11.750;  261.000;  265.000
231.352;   16.925;   54.000;   40.000
231.496;   21.675;  568.000;  188.000
231.640;  -82.575; -693.000; -621.000
231.783;   68.275;  546.000;  525.000
231.927;  -52.000; -294.000; -365.000
232.071; -115.425; -962.000; -736.000
232.214; -106.475; -980.000; -764.000
232.358;  -92.600; -683.000; -599.000
232.502;   10.400;  -19.000;    7.000
232.645; -131.225;-1090.000; -927.000
232.789;  -25.125; -257.000; -218.000
232.933;  -41.275; -407.000; -224.000
233.076; -126.450;-1038.000; -897.000
233.220; -110.725; -752.000; -777.000
233.363;  -80.975; -669.000; -477.000
233.507;   39.450;  371.000;  129.000
233.650; -101.125; -764.000; -834.000
233.794;   49.525;  438.000;  461.000
233.938;  -72.575; -530.000; -362.000
234.081;  -31.325;  -93.000;   31.000
234.225;  -69.200; -631.000; -539.000
234.368; -103.950; -773.000; -723.000
234.512;  -44.075; -385.000; -299.000
234.655;  -79.050; -582.000; -555.000
234.798;  -70.075; -493.000; -466.000
234.942; -125.300; -884.000;-1002.000
235.085;  -79.675; -651.000; -443.000
235.229;  -66.750; -405.000; -410.000
235.372;  -58.000; -247.000; -191.000
235.516;  -61.150; -397.000; -321.000
235.659;   15.925;   92.000;  121.000
235.802;   -3.800;  -38.000;  -22.000
235.946;   36.825;  335.000;  215.000
236.089;   20.425;  126.000;  250.000
236.233;   42.875;  275.000;  298.000
236.376;  -38.950; -235.000; -378.000
236.519;  -45.500; -297.000; -319.000
236.663;  -29.350; -215.000; -117.000
236.806; -138.100;-1029.000; -999.000
236.949;   62.800;  543.000;  431.000
237.092;   59.475;  412.000;  391.000
237.236;  -82.900; -589.000; -502.000
237.379;   58.625;  352.000;  428.000
237.522; -119.025; -879.000; -768.000
237.666;  -30.750; -271.000;   18.000
237.809; -121.400; -851.000; -823.000
237.952;   36.225;  469.000;  271.000
238.095;  -54.875; -447.000; -442.000
238.238;   74.675;  688.000;  700.000
238.382;   -1.275;  166.000;  103.000
238.525;  -75.500; -598.000; -511.000
238.668; -144.375;-1060.000; -985.000
238.811;  -85.175; -638.000; -643.000
238.954;  -59.050; -483.000; -334.000
239.097;   88.425;  617.000;  664.000
239.241;   25.250;  394.000;  326.000
239.384;  -54.575; -254.000; -214.000
239.527;  -59.675; -424.000; -224.000
239.670; -141.525; -994.000;-1091.000
239.813; -105.225; -696.000; -658.000
239.956;   80.750;  579.000;  473.000
240.099; -106.850; -778.000; -725.000
240.242;   59.325;  428.000;  432.000
240.385;   30.400;  466.000;  450.000
240.528;  -79.525; -706.000; -473.000
240.671;   21.100;  189.000;  134.000
240.814;  -38.500; -441.000; -158.000
240.957; -103.525; -767.000; -578.000
241.100;  -92.950; -779.000; -755.000
241.243; -131.475;-1234.000; -893.000
241.386;  -69.675; -508.000; -379.000
241.529;  -80.450; -735.000; -547.000
241.672;  -70.475; -566.000; -495.000
241.815; -123.500; -832.000; -808.000
241.958;  -31.050; -125.000; -182.000
242.101;  -79.850; -545.000; -390.000
242.244;  -38.500; -270.000; -325.000
242.387;  -47.675; -304.000; -246.000
242.530;   54.725;  470.000;  134.000
242.673;  -46.150; -381.000; -309.000
242.815; -117.775; -925.000; -899.000
242.958;  -61.850; -482.000; -381.000
243.101;   16.475;  132.000;  187.000
243.244;  -78.175; -564.000; -521.000
243.387;  -53.600; -313.000; -316.000
243.530; -102.900; -657.000; -674.000
243.672;   -0.425;   43.000;  -92.000
243.815;  -47.725; -355.000; -283.000
243.958;   -3.600;   98.000;  -26.000
244.101;   -2.950;   59.000;  -16.000
244.243;  -21.150;  -47.000;  101.000
244.386; -113.525; -761.000; -630.000
244.529;  -25.450; -132.000; -139.000
244.672; -152.500;-1154.000; -951.000
244.814;  -93.550; -621.000; -794.000
244.957;  -50.725; -380.000; -304.000
245.100;  -73.000; -489.000; -489.000
245.242;  -55.725; -387.000; -374.000
245.385;  -10.100;  -59.000;  -39.000
245.528; -119.725; -871.000; -705.000
245.670;   74.725;  612.000;  634.000
245.813;  -71.300; -599.000; -547.000
245.956;  -33.400; -324.000; -275.000
246.098;  -70.825; -508.000; -650.000
246.241;   11.825;  194.000;   48.000
246.383;  -17.650; -119.000;  -73.000
246.526;  -79.800; -454.000; -525.000
246.669; -121.675; -889.000; -780.000
246.811;   15.900;  172.000;   -1.000
246.954;  -66.775; -512.000; -426.000
247.096;  -27.600;  -84.000;   -6.000
247.239;  -70.775; -482.000; -445.000
247.381;  -77.275; -647.000; -488.000
247.524;   76.925;  645.000;  679.000
247.666;  -22.050;   58.000;   11.000
247.809; -116.000; -887.000; -691.000
247.951;  -10.875;  -75.000;  138.000
248.094;   27.475;  432.000;  308.000
248.236; -147.100;-1262.000;-1238.000
248.378;    4.525; -356.000;  -81.000
248.521;  -21.925; -334.000; -337.000
248.663;  -38.175; -236.000; -267.000
248.806;  -21.400; -300.000; -266.000
248.948;  -85.350; -886.000; -763.000
249.090;  -48.125; -428.000; -398.000
249.233;  -48.250; -344.000; -381.000
249.375;  -74.275; -474.000; -451.000
249.518;  -23.400;  -83.000; -133.000
249.660;  -11.425; -103.000;    3.000
249.802; -171.550;-1303.000;-1189.000
249.945;  -74.800; -612.000; -540.000
250.087; -108.075; -834.000; -768.000
250.229;  -50.825; -362.000; -480.000
250.371;  -76.825; -494.000; -439.000
250.514;  -59.700; -310.000; -244.000
250.656;  -16.475;   69.000;  102.000
250.798; -122.275; -849.000; -800.000
250.940;  -71.825; -322.000; -322.000
251.083;  -31.800; -335.000; -111.000
251.225;   56.725;  338.000;  310.000
251.367;  -48.050; -274.000; -373.000
251.509;  -42.750; -265.000; -210.000
251.651; -101.050; -731.000; -671.000
251.794;   57.375;  538.000;  632.000
251.936; -106.675; -821.000; -747.000
252.078;  -74.175; -540.000; -461.000
252.220;  -65.250; -645.000; -477.000
252.362;   80.600;  344.000;  462.000
252.504;  -69.775; -677.000; -584.000
252.646; -111.375; -875.000; -722.000
252.788;   -5.075;   14.000; -128.000
252.931;  -40.775; -257.000; -253.000
253.073;  -52.400; -376.000; -317.000
253.215;   -1.700;  141.000;  122.000
253.357;  -11.325;   82.000; -153.000
253.499;  -63.625; -374.000; -234.000
253.641;  -91.925; -749.000; -594.000
253.783;  -88.900; -609.000; -527.000
253.925;  -91.900; -586.000; -591.000
254.067; -109.375; -744.000; -667.000
254.209;  -34.875; -391.000; -259.000
254.351; -128.550; -865.000; -883.000
254.493;  -65.975; -441.000; -417.000
254.635; -127.450; -936.000; -818.000
254.777;  -89.425; -752.000; -687.000
254.918;  -67.525; -512.000; -430.000
255.060;  -51.375; -551.000; -395.000
255.202;  -50.975; -473.000; -261.000
255.344;  -77.975; -658.000; -455.000
255.486;  -84.775; -471.000; -406.000
255.628; -113.250; -780.000; -781.000
255.770;  -80.825; -676.000; -536.000
255.912;  -67.425; -559.000; -468.000
256.053;  -87.700; -730.000; -508.000
256.195;  142.925; 1008.000;  903.000
256.337; -101.675; -861.000; -595.000
256.479;   45.400;  532.000;  416.000
256.621;  -53.375; -394.000; -212.000
256.762; -107.575; -789.000; -742.000
256.904;   59.225;  485.000;  487.000
257.046;  -52.125; -381.000; -271.000
257.188;  -46.500; -351.000; -264.000
257.329;  -76.325; -525.000; -464.000
257.471; -123.150; -939.000; -807.000
257.613;  -69.650; -584.000; -498.000
257.755; -143.875;-1073.000; -982.000
257.896;   46.375;  286.000;  392.000
258.038;  -74.250; -403.000; -352.000
258.180;  -57.825; -354.000; -279.000
258.321;  -85.650; -581.000; -457.000
258.463;   -4.950;  -71.000;  133.000
258.605; -101.600; -562.000; -570.000
258.746; -111.525; -886.000; -772.000
258.888; -146.400;-1026.000;-1020.000
259.029;   10.800;  121.000;   -8.000
259.171;  -88.950; -614.000; -550.000
259.313;  -25.750;  -49.000;  -47.000
259.454;  -72.400; -536.000; -414.000
259.596;  -63.250; -483.000; -390.000
259.737;  -74.700; -590.000; -474.000
259.879;   19.650;  217.000;  311.000
260.020;   99.825;  901.000;  636.000
260.162;  -22.700; -146.000; -253.000
260.303; -109.875; -768.000; -687.000
260.445;  -80.900; -609.000; -613.000
260.586;   41.375;  392.000;  157.000
260.728;  -44.300; -360.000; -248.000
260.869; -105.550; -350.000; -343.000
261.011;   72.375;  706.000;  537.000
261.152;  -62.900; -479.000; -319.000
261.293;  -82.850; -576.000; -595.000
261.435;  -36.275; -219.000; -184.000
261.576;  -55.700; -455.000; -325.000
261.718;   55.125;  420.000;  470.000
261.859; -116.825; -940.000; -949.000
262.000; -120.400; -951.000;-1016.000
262.142;  -23.650;  -52.000;  -60.000
262.283; -112.725; -808.000; -691.000
262.424;  -95.050; -666.000; -625.000
262.566; -151.850;-1161.000; -983.000
262.707; -125.400; -840.000; -830.000
262.848; -126.250; -769.000; -726.000
262.990;  -59.200; -362.000; -345.000
263.131;   81.875;  650.000;  681.000
263.272;  -27.750;  -61.000;  -41.000
263.413;  -84.825; -589.000; -561.000
263.555;  -66.925; -669.000; -143.000
263.696;  -88.875; -550.000; -641.000
263.837;  -66.375; -449.000; -551.000
263.978;   -7.950;   -5.000;  -77.000
264.119;  -51.750; -283.000; -264.000
264.261; -114.950; -847.000; -630.000
264.402;   -5.450;   33.000;   40.000
264.543;  -72.300; -509.000; -524.000
264.684;  -16.750;   61.000;  -50.000
264.825;  -87.275; -816.000; -538.000
264.966;   -2.050;  -84.000;  -67.000
265.107; -122.650; -646.000; -670.000
265.248; -118.475; -825.000; -812.000
265.390;  -24.700;  152.000;   -9.000
265.531;  -23.650; -238.000; -107.000
265.672;  -77.200; -557.000; -630.000
265.813;   48.275;  563.000;  439.000
265.954; -140.650; -959.000; -940.000
266.095;  -22.450; -372.000; -322.000
266.236; -101.275; -686.000; -548.000
266.377;  -55.150; -243.000; -297.000
266.518;  -75.775; -619.000; -547.000
266.659;   17.500;  170.000;  268.000
266.800;    1.925;   83.000;   85.000
266.941;  -80.400; -487.000; -478.000
267.082;   15.275;  354.000;   99.000
267.223;  -57.025; -344.000; -273.000
267.364; -114.725; -892.000; -686.000
267.504;   -8.400;    3.000;  135.000
267.645;    1.000;  160.000;   67.000
267.786;  -59.950; -147.000;  -86.000
267.927;  -75.375; -473.000; -379.000
268.068;  -12.700; -186.000;  -61.000
268.209;  -46.100; -175.000; -413.000
268.350;  -69.700; -388.000; -532.000
268.490;  -90.900; -648.000; -521.000
268.631;   16.250;  127.000;  225.000
268.772;  -97.575; -874.000; -647.000
268.913;  -57.825; -328.000; -476.000
269.054;  -16.750; -117.000;   12.000
269.194;  -42.200; -418.000; -402.000
269.335; -159.050;-1137.000;-1074.000
269.476;  -20.100;   33.000;  -35.000
269.617;  -59.125; -347.000; -392.000
269.757;  -92.375; -713.000; -646.000
269.898; -115.325; -856.000; -613.000
270.039;  -59.175; -415.000; -405.000
270.180; -139.275; -952.000; -816.000
270.320;  -37.400; -190.000; -250.000
270.461;  -48.775; -277.000; -249.000
270.602;  -24.375; -186.000; -156.000
270.742; -116.225; -868.000; -943.000
270.883;  -73.175; -442.000; -390.000
271.023;  -63.025; -358.000; -357.000
271.164;  -78.550; -607.000; -528.000
271.305;  -91.750; -666.000; -654.000
271.445;  -89.525; -722.000; -683.000
271.586;  -59.700; -462.000; -283.000
271.726;  -45.050; -397.000; -322.000
271.867;  -63.975; -594.000; -534.000
272.008;  173.925; -473.000; -285.000
272.148;  123.800;  462.000;  468.000
272.289;   -0.525; -113.000; -181.000
272.429;   15.025;   19.000;  185.000
272.570;  -92.650; -633.000; -737.000
272.710; -104.125; -825.000; -775.000
272.851;  -22.325;  113.000; -130.000
272.991; -167.275;-1173.000;-1077.000
273.131;  -69.900; -419.000; -459.000
273.272;  -90.200; -683.000; -723.000
273.412;    0.975; -143.000;  -31.000
273.553;  -55.300; -488.000; -507.000
273.693;  130.050;  913.000;  858.000
273.834;  -92.925; -894.000; -692.000
273.974;  -83.050; -664.000; -615.000
274.114;  -97.400; -772.000; -560.000
274.255;   53.425;  414.000;  373.000
274.395;    3.975; -180.000; -125.000
274.535;   40.850;  199.000;  350.000
274.676;   13.800;  225.000;   94.000
274.816;  -12.750;  110.000;   34.000
274.956;  -74.900; -624.000; -690.000
275.097;  -55.625;-1014.000; -922.000
275.237; -114.950; -913.000; -803.000
275.377; -106.000; -778.000; -689.000
275.517; -148.900; -878.000; -937.000
275.658;  -71.750; -590.000; -555.000
275.798;  -82.850; -606.000; -413.000
275.938;    8.250;  215.000;  323.000
276.078;  -88.325; -626.000; -395.000
276.218;   -5.425;   99.000;  104.000
276.359; -137.475;-1026.000;-1024.000
276.499;  -68.900; -605.000; -446.000
276.639;  -20.450; -305.000; -151.000
276.779;  -64.650; -475.000; -357.000
276.919; -100.250; -783.000; -624.000
277.059;  -20.200; -261.000; -212.000
277.199;  -50.200; -357.000; -259.000
277.340;   29.550;  287.000;  175.000
277.480; -101.375; -840.000; -693.000
277.620;   20.650;  192.000;   16.000
277.760; -196.825;-1533.000;-1294.000
277.900;    3.925;  113.000;   33.000
278.040;    2.950;  137.000;  159.000
278.180;   45.175;  270.000;  170.000
278.320;  -15.950;   21.000;   56.000
278.460;  -70.850; -443.000; -469.000
278.600;  -80.275; -708.000; -598.000
278.740;   47.450;  448.000;  224.000
278.880;  -72.550; -768.000; -791.000
279.020;  -21.000; -194.000; -144.000
279.160;  -87.475; -672.000; -595.000
279.300; -113.125; -926.000; -873.000
279.440; -101.375; -709.000; -622.000
279.579;  -21.175;-1014.000; -929.000
279.719;  -64.925; -410.000; -394.000
279.859;   64.675;   -4.000;   41.000
279.999;   22.150; -208.000;  101.000
280.139;  -29.850; -435.000; -387.000
280.279;  -73.450; -708.000; -745.000
280.419;   -9.850; -229.000; -147.000
280.559;  -22.625; -259.000; -180.000
280.698;  -99.300; -790.000; -639.000
280.838;  -95.475; -778.000; -800.000
280.978; -100.700; -846.000; -790.000
281.118; -108.300; -811.000; -704.000
281.257;    3.300;   24.000;    6.000
281.397; -127.425;-1094.000; -960.000
281.537;  -87.100; -599.000; -712.000
281.677;  -25.350; -150.000; -101.000
281.816;  -92.350; -700.000; -630.000
281.956;  -29.750; -193.000; -257.000
282.096;  -65.775; -539.000; -396.000
282.235;  -97.325; -672.000; -638.000
282.375;  -47.425; -243.000;  -98.000
282.515; -109.325; -715.000; -707.000
282.654;   33.900;   29.000;  106.000
282.794;   28.050;  388.000;  244.000
282.934;  -61.450; -530.000; -491.000
283.073; -137.775;-1030.000; -857.000
283.213;  -55.775; -460.000; -467.000
283.353;  -33.825; -408.000; -349.000
283.492;  -32.850; -264.000; -296.000
283.632;  -46.625; -254.000; -168.000
283.771; -110.650; -859.000; -730.000
283.911;  -59.875; -369.000; -260.000
284.050; -119.275; -794.000; -748.000
284.190; -159.300;-1229.000;-1096.000
284.329; -146.425;-1055.000; -964.000
284.469;  -65.275; -516.000; -591.000
284.608;  -58.600; -559.000; -598.000
284.748;  -91.100; -614.000; -570.000
284.887;   -9.575;  -87.000;  -20.000
285.027; -115.250; -844.000; -892.000
285.166;  -42.175; -192.000; -249.000
285.306;   10.325; -116.000;  -33.000
285.445;  -49.425; -229.000; -343.000
285.584;  -98.000; -630.000; -494.000
285.724;  -53.375; -282.000; -322.000
285.863; -114.525; -857.000; -507.000
286.002;  -61.575; -366.000; -276.000
286.142; -111.125; -715.000; -622.000
286.281;  -78.475; -525.000; -493.000
286.420;  -76.375; -554.000; -417.000
286.560;   80.125;  653.000;  623.000
286.699; -134.150; -958.000; -912.000
286.838;  -86.675; -590.000; -591.000
286.978;  -87.775; -533.000; -537.000
287.117; -142.300;-1085.000; -950.000
287.256;  -36.650; -228.000; -211.000
287.395;  -55.600; -197.000; -378.000
287.535;  -47.250; -370.000; -298.000
287.674;  -90.600; -509.000; -484.000
287.813;   43.625;  661.000;  533.000
287.952; -139.350;-1010.000; -871.000
288.091; -150.000;-1049.000; -915.000
288.231;   -2.575;   13.000;   15.000
288.370; -168.350;-1217.000;-1200.000
288.509;  -94.875; -728.000; -645.000
288.648;  -97.375; -770.000; -548.000
288.787;  -41.500; -243.000;  -87.000
288.926;  -69.650; -454.000; -475.000
289.065;  106.125;  859.000;  672.000
289.204;  -56.250; -377.000; -217.000
289.344; -102.200; -791.000; -690.000
289.483;   20.300;  416.000;  304.000
289.622;  -37.800; -291.000; -149.000
289.761;  -14.925; -309.000; -166.000
289.900; -114.400; -785.000; -626.000
290.039;   -7.500;  -12.000;  -95.000
290.178;  -49.800; -274.000; -180.000
290.317;  -78.775; -618.000; -479.000
290.456;  -78.725; -463.000; -451.000
290.595; -136.050; -961.000; -833.000
290.734; -136.800; -904.000; -891.000
290.873;  -59.175; -456.000; -420.000
291.011; -112.450; -833.000; -843.000
291.150; -108.100; -770.000; -682.000
291.289;  -33.950; -343.000; -110.000
291.428;  -93.300; -599.000; -480.000
291.567;  -62.825; -370.000; -442.000
291.706;   -8.200;  109.000;  154.000
291.845;  -88.350; -597.000; -505.000
291.984; -161.025;-1234.000;-1061.000
292.122;   55.050;  602.000;  582.000
292.261;   49.550;  620.000;  463.000
292.400;    0.800; -144.000;  211.000
292.539; -131.475; -959.000; -813.000
292.678;  -38.950; -325.000; -300.000
292.816; -160.525;-1136.000; -965.000
292.955;  -87.150; -844.000; -684.000
293.094;  -31.050; -173.000; -337.000
293.233;  -66.575; -556.000; -400.000
293.371;  -34.425; -225.000;  -84.000
293.510; -120.525; -866.000; -780.000
293.649; -120.600; -959.000; -924.000
293.787;  -68.625;-1083.000;-1012.000
293.926;  -11.800; -113.000;  -32.000
294.065;  -52.150; -379.000; -290.000
294.203;   27.900;  298.000;  406.000
294.342;   13.575;   74.000;  156.000
294.481; 6448.900;51180.000; -836.000
294.619;  -37.875; -425.000; -582.000
294.758; -145.500;-1230.000;-1137.000
294.896;   56.600; -125.000;    5.000
295.035; -125.650;-1040.000;-1006.000
295.174; -117.400;-1082.000; -954.000
295.312;  -54.650; -323.000; -203.000
295.451;  -10.775; -307.000; -428.000
295.589;  -61.225; -389.000; -518.000
295.728;   21.450; -292.000; -165.000
295.866;  -10.875;  -36.000;  -51.000
296.005;  -67.275; -584.000; -341.000
296.143;  -71.050; -558.000; -596.000
296.282; -113.150; -957.000; -881.000
296.420;  -82.125; -657.000; -557.000
296.559; -103.275; -892.000; -633.000
296.697;   19.225; -847.000; -665.000
296.835;   57.350;-1141.000;-1002.000
296.974;   29.925;  -23.000;   39.000
297.112;   -7.350; -443.000; -504.000
297.251;  -86.625; -815.000; -755.000
297.389;   85.625; -576.000; -438.000
297.527;   38.450; -145.000;  -83.000
297.666;  -57.325; -486.000; -438.000
297.804;  -61.625; -404.000; -264.000
297.942;  -15.300; -136.000; -161.000
298.081;  -14.975; -183.000;   63.000
298.219;   58.550;  -17.000;  -19.000
298.357;   35.300; -144.000;  -71.000
298.495;   22.675; -810.000; -812.000
298.634;   75.775;  245.000;  219.000
298.772;   55.850; -220.000; -338.000
298.910;  -29.900; -309.000; -182.000
299.048;  -11.100; -130.000; -153.000
299.187;  -37.850; -350.000; -250.000
299.325;    6.875;   52.000;  122.000
299.463;   50.100; -389.000; -299.000
299.601;   94.525; -327.000; -271.000
299.739; -104.775; -908.000; -883.000
299.877;  -81.725; -791.000; -703.000
300.016;  -42.600;-1095.000; -935.000
300.154;  149.225;  -19.000; -161.000
300.292;   43.875; -428.000; -348.000
300.430;   15.450; -408.000; -291.000
300.568; -104.450; -940.000; -874.000
300.706;  -67.550; -366.000; -469.000
300.844;  -76.750;-1108.000; -979.000
300.982;  107.900;  246.000;  282.000
301.120; -103.550; -965.000; -866.000
301.258;  -79.225; -812.000; -705.000
301.396;   23.600;  104.000;  -41.000
301.534;   58.500; -218.000; -293.000
301.672;  -23.975; -664.000; -521.000
301.810;   23.450; -613.000; -545.000
301.948;  100.175;   53.000;  149.000
302.086;  598.175; -250.000;  -32.000
302.224;  905.400; -610.000; -585.000
302.362;   22.925; -558.000; -622.000
302.500;  -32.400; -923.000; -893.000
302.638;   99.425;  128.000;  245.000
302.776;  -11.300; -352.000; -408.000
302.913;   43.675;  447.000;  236.000
303.051;    5.725;  -86.000;  -23.000
303.189;   41.500;   90.000;  118.000
303.327;  -37.450; -341.000; -256.000
303.465;  -93.100; -832.000; -588.000
303.603;  -88.725; -805.000; -604.000
303.740;   95.225;  417.000;  241.000
303.878;    5.050; -800.000; -759.000
304.016; -103.850; -915.000; -790.000
304.154; -123.300;-1123.000;-1152.000
304.291;  -52.925; -505.000; -554.000
304.429;    5.400;  102.000;   74.000
304.567; -135.900; -908.000; -893.000
304.705;  -51.550; -408.000; -515.000
304.842;   90.200; -616.000; -540.000
304.980;   41.775;  215.000;   35.000
305.118;   26.500; -367.000; -365.000
305.255;  -86.250; -945.000; -927.000
305.393;   49.800;  178.000;  239.000
305.531; -105.675;-1173.000; -956.000
305.668;  -77.475; -663.000; -582.000
305.806;  101.275; -358.000; -439.000
305.943;  106.075; -629.000; -637.000
306.081;   49.000; -378.000; -267.000
306.219; -109.900; -863.000; -748.000
306.356;   -2.075;  158.000;   27.000
306.494;   92.925;  981.000;  761.000
306.631;   -4.075;  -11.000;  -55.000
306.769;   -5.375; -613.000; -485.000
306.906;  -32.750; -284.000; -258.000
307.044;  -69.675; -473.000; -488.000
307.181;  -80.725; -410.000; -332.000
307.319;   -0.125;  112.000;   87.000
307.456; -176.900;-1191.000;-1153.000
307.594; -108.750; -980.000; -727.000
307.731;  -15.175; -371.000; -164.000
307.868;  -13.850;  -15.000;   20.000
308.006; -137.575; -961.000; -847.000
308.143;  -78.650; -618.000; -330.000
308.281;  156.450;  -37.000; -254.000
308.418;  -15.225; -748.000; -640.000
308.555;  -69.725; -400.000; -250.000
308.693;  -82.475; -577.000; -573.000
308.830; -103.575; -712.000; -657.000
308.967;  -16.450; -215.000;  -95.000
309.105;  -42.225; -507.000; -396.000
309.242;    7.275; -468.000; -367.000
309.379;  294.200; -577.000; -655.000
309.517;  -83.425; -936.000; -948.000
309.654; -104.975; -910.000; -734.000
309.791;  -82.450; -662.000; -580.000
309.928; -106.975; -977.000; -914.000
310.065;  170.050;  819.000;  697.000
310.203;  -16.400; -825.000; -850.000
310.340;  -24.075; -465.000; -321.000
310.477;  -67.525; -412.000; -516.000
310.614;  -80.625; -383.000; -473.000
310.751;  -75.500; -427.000; -518.000
310.889;  -20.850;    1.000;   11.000
311.026; -151.675;-1161.000; -939.000
311.163;  -55.375; -386.000; -380.000
311.300;  -74.550; -512.000; -479.000
311.437;  -86.100; -658.000; -619.000
311.574; -151.925;-1226.000; -985.000
311.711;  -68.175; -595.000; -433.000
311.848;  -37.650; -380.000; -388.000
311.985;   -1.925;  270.000;   93.000
312.122; -121.050; -932.000; -762.000
312.259; -118.450; -941.000; -994.000
312.396;  -89.600; -508.000; -551.000
312.533;  -90.100; -812.000; -790.000
312.670; -128.950;-1070.000; -898.000
312.807;  -36.950; -352.000; -367.000
312.944;  -88.000; -513.000; -611.000
313.081;  -31.475; -150.000; -415.000
313.218; -104.800;-1111.000; -867.000
313.355;    3.500; -531.000; -449.000
313.492;    7.625; -455.000; -292.000
313.629;  121.925;  815.000;  735.000
313.766; -173.425;-1176.000;-1008.000
313.902;  -30.875; -186.000;   21.000
314.039;  -56.100; -372.000; -289.000
314.176;    4.575;  286.000;  192.000
314.313;  -90.550; -569.000; -473.000
314.450;  -85.075; -788.000; -684.000
314.587;  -54.400; -468.000; -480.000
314.723;    9.975;  -78.000;  130.000
314.860;   30.450;  318.000;  332.000
314.997;   27.800;  223.000;  142.000
315.134;  -43.175; -385.000; -368.000
315.270;  -41.150; -480.000; -496.000
315.407; -126.775;-1094.000; -967.000
315.544;  -66.200; -657.000; -538.000
315.681;  -69.400; -681.000; -565.000
315.817;   22.100; -133.000; -176.000
315.954;   15.650; -613.000; -392.000
316.091; -117.125;-1045.000;-1023.000
316.227;  -36.200;  -71.000; -179.000
316.364;  -14.750;   23.000;    6.000
316.500;  -41.600; -113.000; -300.000
316.637;  -47.425; -181.000; -302.000
316.774;  -99.975; -625.000; -358.000
316.910;  -93.900; -598.000; -629.000
317.047;  -69.575; -487.000; -351.000
317.183;  -62.500; -435.000; -566.000
317.320;   -1.725; -367.000; -321.000
317.456;  -70.975; -733.000; -805.000
317.593;  -86.275; -598.000; -641.000
317.729;   -1.475;  168.000;  -67.000
317.866; -201.425;-1434.000;-1285.000
318.002;  -86.900; -708.000; -948.000
318.139; -100.050; -883.000; -867.000
318.275; -107.700;-1003.000; -738.000
318.412;  -66.625; -517.000; -336.000
318.548;  -33.675; -751.000; -720.000
318.685; -105.750; -985.000; -888.000
318.821; -104.325; -762.000; -735.000
318.957;  -13.450;   34.000;  -23.000
319.094;   35.475;  297.000;  154.000
319.230;  -77.250; -756.000; -742.000
319.367;  120.300; -471.000; -520.000
319.503;   50.375; -538.000; -436.000
319.639; -110.075; -877.000; -793.000
319.775;  -67.425; -750.000; -685.000
319.912;  -63.450; -424.000; -519.000
320.048;  -94.000;-1184.000;-1184.000
320.184;   81.425;   59.000;   70.000
320.321;  -60.125; -497.000; -467.000
320.457;   68.350;  475.000;  662.000
320.593;  -64.475; -375.000; -382.000
320.729;  -96.000; -732.000; -734.000
320.866;  -55.500; -577.000; -635.000
321.002;  -90.375; -759.000; -809.000
321.138;   -3.925; -135.000; -211.000
321.274;   67.475; -148.000; -115.000
321.410;  -17.875; -585.000; -353.000
321.546;  -35.775;-1011.000; -911.000
321.683;   45.800;  400.000;  185.000
321.819;   -0.900;  -48.000; -117.000
321.955; -113.825; -743.000; -722.000
322.091;  -48.275; -585.000; -540.000
322.227;  -21.275; -382.000; -202.000
322.363;  -20.400; -320.000; -215.000
322.499;  -45.750; -343.000; -331.000
322.635;  159.275;  636.000;  443.000
322.771;   23.825; -139.000;   12.000
322.907;   78.075;  129.000;  327.000
323.043;  -19.175; -115.000; -206.000
323.179;  -41.800; -394.000; -363.000
323.315;   14.525; -401.000; -371.000
323.451;   87.800; -328.000; -236.000
323.587;   68.900;  -60.000;  -77.000
323.723;    2.075; -682.000; -601.000
323.859;   -8.950; -258.000;  -76.000
323.995;  -32.850; -467.000; -409.000
324.131; -134.325; -967.000; -892.000
324.267;  -36.725; -254.000; -276.000
324.402; -124.200; -960.000; -983.000
324.538;  -19.650; -279.000; -104.000
324.674;   17.875;  164.000;   77.000
324.810;  106.075;  226.000;  308.000
324.946;   -9.150; -810.000; -658.000
325.082;  -71.075; -568.000; -475.000
325.217;   -9.725;  -62.000;   16.000
325.353; -112.875; -764.000; -659.000
325.489;  -99.175; -540.000; -506.000
325.625;  -86.100; -579.000; -525.000
325.760;   57.225;  517.000;  376.000
325.896;  -36.775; -515.000; -702.000
326.032;  -56.950; -403.000; -352.000
326.168;  -59.125; -462.000; -369.000
326.303;  -65.450; -352.000; -461.000
326.439;  -19.575; -336.000; -276.000
326.575;    6.850; -190.000;  -29.000
326.710;  -22.450; -156.000;  -30.000
326.846;  -23.600;  146.000;  103.000
326.982;  -94.300; -530.000; -548.000
327.117;  -85.250; -481.000; -442.000
327.253;  -86.575; -745.000; -742.000
327.388; -136.700;-1137.000;-1153.000
327.524;  -67.175; -811.000; -578.000
327.659;  -26.100;  -58.000;  -22.000
327.795;  -18.975;   69.000;   45.000
327.931;  -81.600; -723.000; -499.000
328.066;  -46.200; -417.000; -276.000
328.202;  -21.900;   12.000; -129.000
328.337;   91.625;  957.000;  713.000
328.473;   42.700;  -12.000;  -74.000
328.608;  -32.075; -256.000; -267.000
328.743;  -91.350; -799.000; -664.000
328.879;   11.100;  214.000;  114.000
329.014;  -30.900; -102.000; -122.000
329.150;  -86.950; -358.000; -483.000
329.285;  -95.325; -465.000; -466.000
329.421;  -54.325; -548.000; -246.000
329.556;  -20.475;  -36.000;   85.000
329.691; -106.850; -633.000; -615.000
329.827;  -93.075; -626.000; -480.000
329.962;  -49.600;  131.000; -301.000
330.097;  -99.600; -673.000; -585.000
330.233;  -61.675; -410.000; -223.000
330.368; -119.500; -839.000; -628.000
330.503;  -26.525;    3.000;   98.000
330.638;    0.925;  -93.000; -125.000
330.774;  -65.175; -609.000; -530.000
330.909;  -48.125; -434.000; -244.000
331.044; -120.500; -714.000; -708.000
331.179; -172.175;-1217.000;-1109.000
331.315;    1.725;   77.000;   20.000
331.450;   12.400;  157.000;  285.000
331.585;  -84.425; -805.000; -706.000
331.720;  -87.525; -510.000; -460.000
331.855;   -1.050;  -35.000; -102.000
331.990;  257.925;   62.000;  138.000
332.126;  126.200; -110.000;   71.000
332.261;  -17.175; -379.000; -265.000
332.396;  -21.175; -135.000; -242.000
332.531;  -95.225;-1074.000;-1031.000
332.666;   23.725; -519.000; -363.000
332.801; -103.450; -726.000; -807.000
332.936;  -25.325; -192.000; -122.000
333.071; -147.100; -870.000; -817.000
333.206;    4.700;  307.000;  379.000
333.341;   25.100;  344.000;  418.000
333.476; -108.775; -627.000; -623.000
333.611;  -48.900; -251.000; -173.000
333.746;  -52.825; -381.000; -464.000
333.881; -126.150; -973.000; -935.000
334.016; -127.125; -936.000; -917.000
334.151; -113.800; -746.000; -702.000
334.286;   23.150;  152.000;  186.000
334.421;  -11.800; -125.000; -178.000
334.556;  -80.800; -611.000; -567.000
334.690;  -90.200; -631.000; -577.000
334.825;   42.200;  381.000;   83.000
334.960;  -67.000; -285.000; -413.000
335.095;  -14.225;  135.000;  -91.000
335.230; -103.525; -722.000; -738.000
335.365; -140.050;-1084.000; -990.000
335.499; -140.475;-1108.000;-1037.000
335.634;   -0.500;    9.000;  534.000
335.769;  -97.025; -755.000; -720.000
335.904;  -68.750; -603.000; -561.000
336.038;  -67.025; -735.000; -657.000
336.173; -133.950;-1206.000;-1194.000
336.308;   -3.175; -116.000; -189.000
336.443;    3.425; -544.000; -634.000
336.577;  -78.750; -936.000; -787.000
336.712;   48.275;   -4.000;  -12.000
336.847;  -43.475; -724.000; -607.000
336.981;   53.875; -272.000; -208.000
337.116;  266.325;  615.000;  501.000
337.250;  139.600; -434.000; -421.000
337.385;  277.925; -297.000; -208.000
337.520;  111.000; -632.000; -603.000
337.654;  -42.050; -215.000; -126.000
337.789; -126.600; -989.000; -933.000
337.923;  -39.550; -104.000; -205.000
338.058;  -90.175; -673.000; -738.000
338.192;  -46.375; -611.000; -488.000
338.327;  -10.700;  -18.000; -155.000
338.461;  -70.800; -299.000; -469.000
338.596; -101.175; -780.000; -638.000
338.730; -111.225; -767.000; -803.000
338.865;   99.075;  -46.000; -140.000
338.999;  -57.275; -846.000; -702.000
339.134;  -31.225; -634.000; -536.000
339.268;   19.625; -741.000; -603.000
339.403;  354.000; -740.000; -775.000
339.537;  126.100; -894.000; -820.000
339.671; -113.350; -829.000; -813.000
339.806;  -69.250; -556.000; -512.000
339.940;   14.925; -261.000; -235.000
340.074; -103.450; -685.000; -510.000
340.209;  -53.875; -351.000; -230.000
340.343;  -94.850; -517.000; -573.000
340.477;  140.375;  998.000; 1036.000
340.612;  -53.500;-1033.000; -900.000
340.746;  127.625; -199.000; -243.000
340.880;  -67.200; -924.000; -785.000
341.014;  -23.875;  -45.000; -154.000
341.149; -115.025; -756.000; -718.000
341.283; -107.250; -839.000; -754.000
341.417;  -99.425;-1124.000; -938.000
341.551;  110.000; -768.000; -708.000
341.685;  -48.675; -633.000; -611.000
341.820;  -68.325; -562.000; -493.000
341.954;  -31.800; -218.000; -349.000
342.088; -159.500;-1102.000;-1019.000
342.222;   43.950;  565.000;  618.000
342.356;  -66.425; -395.000; -335.000
342.490;  -99.875; -880.000; -841.000
342.624;  -48.775; -339.000; -242.000
342.758;  -18.000; -364.000; -312.000
342.892;  -71.875; -710.000; -585.000
343.026;  -37.250;  -58.000; -116.000
343.160;  -67.375; -426.000; -376.000
343.294;  -85.975; -474.000; -337.000
343.428;  -41.175; -488.000; -448.000
343.562;    0.625; -172.000;  -23.000
343.696;  -48.225; -385.000; -314.000
343.830;  -19.675; -362.000; -356.000
343.964;   -9.625; -231.000; -168.000
344.098;  873.050;  199.000;   70.000
344.232;  711.700; -266.000; -127.000
344.366;   96.250; -567.000; -453.000
344.500;   36.575; -665.000; -744.000
344.634;   21.425; -324.000; -164.000
344.768;  -21.900; -531.000; -341.000
344.902;   16.300;  278.000;  256.000
345.035;  -81.125; -556.000; -496.000
345.169; -139.075; -933.000; -656.000
345.303;  -37.275; -308.000; -482.000
345.437;  -70.225; -826.000; -717.000
345.571;  -73.375; -675.000; -594.000
345.704;  -78.725; -309.000; -532.000
345.838;  -27.400; -331.000; -284.000
345.972;  -33.375; -543.000; -495.000
346.106;  163.025; -179.000; -190.000
346.239;  420.800; -312.000; -243.000
346.373;   -7.475; -343.000; -302.000
346.507; -132.300; -950.000; -962.000
346.640;  119.300;  -30.000;   13.000
346.774;  -49.650; -650.000; -797.000
346.908;  -27.450; -138.000;  -11.000
347.041; -103.625; -646.000; -593.000
347.175;   10.825;  259.000;   27.000
347.309;  -68.575; -698.000; -628.000
347.442; -110.875; -883.000; -732.000
347.576;  266.325;  670.000;  668.000
347.709;  173.000; -123.000;  -52.000
347.843;  -94.325; -933.000; -825.000
347.976;   28.100;  235.000;  294.000
348.110; -182.925;-1268.000;-1186.000
348.243; -108.425; -679.000; -772.000
348.377;  -11.450;  -26.000;   60.000
348.510;   35.250;  403.000;  540.000
348.644;  -42.300;  -37.000; -159.000
348.777;  -18.675;  180.000;  191.000
348.911;  -53.800; -142.000; -112.000
349.044;  161.800;  471.000;  448.000
349.178;  127.950;-1069.000;-1006.000
349.311;  112.200;  141.000;  255.000
349.444;   -2.875; -927.000; -813.000
349.578;  -30.450; -347.000; -200.000
349.711;  -97.575; -959.000; -862.000
349.845;  -20.300; -661.000; -591.000
349.978; -141.475;-1224.000;-1137.000
350.111;  -77.425; -546.000; -612.000
350.244;  -81.325; -596.000; -700.000
350.378;   -9.600; -392.000; -393.000
350.511;  -52.700; -393.000; -426.000
350.644; -104.625; -808.000; -806.000
350.778;   -0.850;  168.000;  104.000
350.911;  -11.175;  134.000;  140.000
351.044;  -83.775; -685.000; -615.000
351.177;  -29.400; -321.000; -281.000
351.310;  -27.400;    3.000; -131.000
351.444;  -96.875; -888.000; -788.000
351.577;  120.325;  140.000;   90.000
351.710;   94.125;  593.000;  417.000
351.843;  -45.000; -165.000;  -77.000
351.976;   -2.700;  149.000;  -79.000
352.109; -104.625; -621.000; -612.000
352.242;  -31.050; -464.000; -419.000
352.376;  -62.625; -580.000; -636.000
352.509;  155.500; -437.000; -356.000
352.642;    7.425; -654.000; -604.000
352.775;   46.275; -141.000;  -98.000
352.908; -123.175; -933.000; -904.000
353.041;  -99.400; -814.000; -824.000
353.174;  -52.875; -551.000; -424.000
353.307; -100.025; -753.000; -764.000
353.440;   60.725;  541.000;  453.000
353.573; -113.350; -957.000;-1008.000
353.706;  -61.950; -384.000; -558.000
353.839;  -33.725; -264.000; -220.000
353.971;  -79.100; -657.000; -512.000
354.104;  -86.400; -896.000; -835.000
354.237;  -42.875; -627.000; -662.000
354.370;  -89.500; -846.000; -879.000
354.503; -181.325;-1231.000;-1308.000
354.636;  -50.775; -529.000; -348.000
354.769; -127.575; -937.000; -860.000
354.902;  -17.425; -230.000; -139.000
355.034;  -23.400; -164.000; -220.000
355.167;  -22.600; -262.000; -162.000
355.300;  -87.625;-1061.000; -880.000
355.433;  964.175;  -71.000;  -14.000
355.565; 1531.675; -402.000; -384.000
355.698;  386.500; -356.000; -296.000
355.831;    3.075; -882.000; -801.000
355.964;   76.575; -285.000; -170.000
356.096;  -96.600; -856.000; -843.000
356.229;   -6.750; -523.000; -530.000
356.362;  325.475; -373.000; -266.000
356.494;  601.675; -229.000; -162.000
356.627;  452.225;  269.000;  377.000
356.760;  659.250;  120.000;   53.000
356.892; 1009.200; -286.000; -601.000
357.025;  605.400;  403.000;  389.000
357.157;  555.800; -167.000; -179.000
357.290;  703.050; -856.000; -713.000
357.423;  218.175; -667.000; -556.000
357.555;   96.050; -217.000; -228.000
357.688;  128.175; -483.000; -364.000
357.820;  434.150; -870.000; -877.000
357.953; 3638.925; -563.000; -589.000
358.085;  774.875; -632.000; -612.000
358.218; 1006.900;-1131.000; -932.000
358.350;  185.675;  -58.000;  312.000
358.483; -117.175;-1300.000;-1187.000
358.615;  -39.225;-1182.000;-1078.000
358.747;  -68.850;-1187.000;-1058.000
358.880;   18.550; -810.000; -744.000
359.012;  -18.900; -376.000; -202.000
359.145;  -60.275; -480.000; -511.000
359.277;   50.200; -962.000; -913.000
359.409; 2943.125;  536.000;  231.000
359.542;  787.375; -738.000; -688.000
359.674;   57.425;   46.000;   13.000
359.806;  -65.675; -565.000; -438.000
359.939;  -50.475; -617.000; -516.000
360.071;   -2.300; -583.000; -579.000
360.203;  -17.100; -411.000; -364.000
360.335;   38.725;  164.000;  -16.000
360.468;  177.400; -249.000; -307.000
360.600; 2398.625; -547.000; -454.000
360.732; 2939.725; -546.000; -423.000
360.864;  400.125;-1216.000;-1044.000
360.996;  246.600; -516.000; -554.000
361.129;   30.200; -389.000; -598.000
361.261;   15.500;  110.000; -113.000
361.393;  -29.250; -252.000; -214.000
361.525;    9.225;   94.000;  244.000
361.657;  -36.425; -821.000; -703.000
361.789;   -4.025; -139.000; -155.000
361.921;  199.625; -642.000; -593.000
362.053;  232.925;  524.000;  541.000
362.185;   38.850;  288.000;   72.000
362.318;  -81.375; -709.000; -705.000
362.450;  105.600;  294.000;  444.000
362.582;   56.675; -913.000; -870.000
362.714;  -41.550; -353.000; -332.000
362.846;  -94.400; -606.000; -490.000
362.978; -135.775; -941.000; -811.000
363.109;   29.425; -161.000; -260.000
363.241;  406.950; -739.000; -749.000
363.373;  435.550; -649.000; -564.000
363.505;  675.875; -186.000;  -91.000
363.637;  173.750; -787.000; -601.000
363.769; -133.275;-1067.000;-1080.000
363.901;  -72.225; -596.000; -654.000
364.033; -114.175;-1103.000;-1062.000
364.165;   -9.275; -283.000; -283.000
364.296;   66.900; -316.000; -177.000
364.428;   54.475;-1344.000;-1220.000
364.560;  -64.175; -679.000; -661.000
364.692;  -82.175; -738.000; -835.000
364.824;  242.850; -588.000; -456.000
364.955;  430.450; -402.000; -564.000
365.087;  947.825;-1097.000; -852.000
365.219;   34.650; -686.000; -816.000
365.351;  -76.675; -526.000; -572.000
365.482;   37.775;  300.000;  240.000
365.614;  -56.175; -402.000; -314.000
365.746; -109.600; -729.000; -752.000
365.877;  -88.200; -706.000; -672.000
366.009;  252.275;  -35.000;  -62.000
366.141;  -83.000;-1249.000;-1134.000
366.272; -106.425; -803.000; -719.000
366.404; -111.750;-1005.000; -874.000
366.535;  -10.550; -139.000;  -12.000
366.667; -106.175; -644.000; -649.000
366.799;   29.300;  353.000;  203.000
366.930; -114.425; -862.000; -996.000
367.062;  120.700; -639.000; -613.000
367.193;  174.225; -872.000; -842.000
367.325;  -66.200; -580.000; -684.000
367.456;   49.200; -246.000;   31.000
367.588;  163.975; -371.000; -318.000
367.719;   20.925;  -44.000;  -45.000
367.851;  -30.025; -222.000; -241.000
367.982;  -56.800; -875.000; -732.000
368.113;   78.050; -475.000; -358.000
368.245; -131.325; -960.000; -841.000
368.376;  -45.000; -254.000; -302.000
368.508;  -34.925; -188.000; -263.000
368.639; -146.275;-1166.000;-1034.000
368.770;  -32.975; -670.000; -589.000
368.902;  -69.100; -836.000; -926.000
369.033; -102.750; -906.000; -855.000
369.164;  -51.075; -720.000; -653.000
369.296; -120.975; -452.000; -601.000
369.427;  -23.950; -209.000; -144.000
369.558;  -49.300; -593.000; -377.000
369.689; -100.300; -721.000; -569.000
369.821; -131.275; -951.000; -845.000
369.952;  -40.675;   42.000; -108.000
370.083;  -49.575; -229.000; -108.000
370.214;  -83.925; -735.000; -650.000
370.345;   -3.450;   65.000;   81.000
370.477;  -87.300; -810.000; -790.000
370.608;  193.925; -328.000; -264.000
370.739;  -67.475;-1233.000;-1292.000
370.870;  -48.125;-1102.000; -923.000
371.001;   60.825; -378.000; -467.000
371.132;  -73.450; -754.000; -735.000
371.263;  -17.250;  -42.000; -148.000
371.394; -134.325; -841.000; -748.000
371.525;   17.150;  345.000;  225.000
371.657;  -91.125; -808.000; -670.000
371.788;   64.925;  103.000;  199.000
371.919;  142.925; -384.000; -304.000
372.050; 3475.750;  -91.000; -156.000
372.181; 1063.775; -188.000; -294.000
372.311;  343.150;   42.000; -127.000
372.442;   27.975; -457.000; -451.000
372.573;  -27.975; -444.000; -340.000
372.704; -129.125;-1008.000; -980.000
372.835;   59.075; -228.000; -289.000
372.966;  -58.975; -646.000; -554.000
373.097;  -66.750; -575.000; -711.000
373.228;  -43.525; -717.000; -542.000
373.359;  124.025; -824.000; -536.000
373.490;  871.250; -881.000; -727.000
373.620; 1098.125;-1001.000; -803.000
373.751; 1655.325; -332.000; -396.000
373.882;  745.900; -663.000; -733.000
374.013;   58.725; -449.000; -262.000
374.143;  -52.375; -581.000; -659.000
374.274; -105.300; -987.000; -908.000
374.405;  166.800; -388.000; -276.000
374.536;  397.925; -526.000; -387.000
374.666; 1018.750; -759.000; -807.000
374.797;  212.825; -817.000; -868.000
374.928;  779.875; -710.000; -560.000
375.058;  844.200; -535.000; -500.000
375.189;   54.175;  -59.000;  -93.000
375.320; -110.475; -928.000;-1034.000
375.450;  -52.550; -625.000; -616.000
375.581;  -43.875; -526.000; -436.000
375.712;  -34.150; -574.000; -250.000
375.842;  265.900; -438.000; -415.000
375.973;  199.925; -554.000; -513.000
376.103;  -63.800; -665.000; -648.000
376.234;  -89.300; -531.000; -552.000
376.364;  -51.750; -944.000; -867.000
376.495;  282.550;  925.000;  529.000
376.625;  -13.550; -472.000; -485.000
376.756;   58.150; -709.000; -678.000
376.886;  -78.550;-1178.000;-1026.000
377.017;   37.850;-1048.000;-1061.000
377.147;  364.750; -786.000; -782.000
377.278;   54.375;  174.000;  228.000
377.408; -138.950; -801.000; -815.000
377.538; -105.900; -707.000; -693.000
377.669;  -80.775; -537.000; -613.000
377.799;  -96.100; -645.000; -635.000
377.929;  -73.800; -610.000; -428.000
378.060; -136.100; -781.000; -847.000
378.190;  -62.150; -726.000; -531.000
378.320;  -63.800; -401.000; -406.000
378.451;  -10.150; -131.000;  -22.000
378.581;  -15.475;  -67.000; -110.000
378.711;  131.450; 1035.000;  866.000
378.841;  -37.400; -533.000; -675.000
378.972;  -83.000; -871.000; -751.000
379.102;  -11.800; -652.000; -579.000
379.232;  -23.475; -126.000;  -73.000
379.362; -107.050;-1001.000; -885.000
379.492;  -14.750; -373.000; -424.000
379.623;   86.350;    0.000;  111.000
379.753; -100.350;-1107.000; -974.000
379.883;  169.700;   59.000;  156.000
380.013;    4.600;-1081.000;-1017.000
380.143; -111.375;-1097.000;-1056.000
380.273;  -98.950; -985.000; -861.000
380.403;   -9.600; -344.000; -257.000
380.533;  -23.850; -651.000; -664.000
380.663;   50.150;  173.000;  128.000
380.793; -109.700;-1027.000;-1074.000
380.923;  -25.075; -103.000;  -34.000
381.053; -104.750; -613.000; -623.000
381.183;  -37.500; -106.000; -248.000
381.313;   16.000; -656.000; -470.000
381.443;   24.175; -692.000; -473.000
381.573;  184.500; -402.000; -409.000
381.703;  244.550;-1249.000;-1095.000
381.833; -138.025;-1454.000;-1336.000
381.963;  101.200; -134.000;  -87.000
382.093; 1324.525; -925.000; -909.000
382.223;  410.450; -713.000; -602.000
382.353;  -28.950; -801.000; -608.000
382.482;  319.525;-1091.000; -964.000
382.612;  719.500; -872.000; -644.000
382.742;  404.300; -695.000; -622.000
382.872;  234.300; -565.000; -551.000
383.002;   66.925;  347.000; -132.000
383.131;  -17.200; -226.000; -160.000
383.261;  -57.050; -706.000; -768.000
383.391;  278.175; -552.000; -377.000
383.521; 3308.150;  451.000;  263.000
383.650;  813.750; -947.000; -904.000
383.780;  -18.425; -783.000; -656.000
383.910;  116.600;  880.000;  802.000
384.039;   -6.750; -794.000; -656.000
384.169;  175.825;-1205.000;-1017.000
384.299;  -31.325; -650.000; -662.000
384.428; -104.750; -764.000; -680.000
384.558;  -62.000; -308.000; -275.000
384.687;  -47.550; -414.000; -334.000
384.817;   -0.900;   75.000;   -2.000
384.947;   -9.025; -234.000; -141.000
385.076;  261.525;  982.000;  912.000
385.206;   90.800;  369.000;  480.000
385.335;  -46.100; -549.000; -417.000
385.465;  -83.300; -655.000; -663.000
385.594;  116.300;  -53.000;  -44.000
385.724;  379.875; -868.000; -838.000
385.853;  101.625; -296.000; -270.000
385.982; 1240.700; -743.000; -787.000
386.112; 2038.950;-1052.000; -871.000
386.241;  129.950; -307.000; -312.000
386.371;    5.550; -174.000;  -87.000
386.500;    2.550; -825.000; -789.000
386.629;   12.450; -874.000; -817.000
386.759;   55.250;  -43.000;   68.000
386.888;  -20.150; -170.000; -250.000
387.017;  -97.600; -648.000; -620.000
387.147; -110.875; -771.000; -798.000
387.276;  -14.950; -410.000; -397.000
387.405;   -8.075; -398.000; -342.000
387.535;  -51.325; -452.000; -361.000
387.664;  -52.500; -692.000; -620.000
387.793;   44.625; -198.000; -113.000
387.922;  474.275;  255.000;  200.000
388.052;    9.950; -576.000; -423.000
388.181;   -3.675; -342.000; -472.000
388.310;  -24.175; -889.000; -710.000
388.439;  -70.550; -749.000; -742.000
388.568;  158.975;  365.000;  244.000
388.697;  986.225; -756.000; -653.000
388.826;  197.350; -768.000; -666.000
388.956;   41.125; -285.000; -307.000
389.085;  -38.575; -347.000; -287.000
389.214; -119.650; -842.000; -872.000
389.343;  -70.050; -645.000; -413.000
389.472;  373.250;  126.000;  149.000
389.601;  526.050;   91.000;    0.000
389.730;   15.750; -568.000; -687.000
389.859;   60.800;  226.000;   46.000
389.988;  153.025; -423.000; -408.000
390.117;  120.400; -168.000; -146.000
390.246;  -18.475; -331.000; -320.000
390.375;   74.250; -673.000; -626.000
390.504;  -58.750; -703.000; -621.000
390.633; -105.900; -672.000; -726.000
390.761;  -76.900; -732.000; -645.000
390.890;    7.150;   -4.000; -130.000
391.019;  -40.350; -421.000; -441.000
391.148; -132.350; -826.000; -855.000
391.277;  -74.150; -576.000; -493.000
391.406;  -94.600; -821.000; -805.000
391.534;    0.450;  574.000; -301.000
391.663;  -90.750; -583.000; -645.000
391.792;  -95.850; -673.000; -701.000
391.921;   86.800;   -3.000;   15.000
392.050;  153.250; -287.000; -228.000
392.178;  -52.025;-1206.000;-1061.000
392.307;  118.975; -758.000; -712.000
392.436;   59.550; -427.000; -641.000
392.564;    5.000;  166.000;   -6.000
392.693;  -86.050; -860.000; -682.000
392.822;  168.725; -529.000; -534.000
392.950;   75.950; -880.000; -714.000
393.079;  287.075; -188.000; -328.000
393.208;   18.725; -488.000; -511.000
393.336;  -30.950; -170.000; -145.000
393.465;  -49.175; -317.000; -199.000
393.593;  -10.050;   62.000;   79.000
393.722; -146.150;-1121.000; -916.000
393.850;  -31.650; -188.000;  -61.000
393.979; -154.050; -926.000; -805.000
394.107;  -68.950; -517.000; -537.000
394.236;  -24.300; -570.000; -507.000
394.364;  208.050;  383.000;  206.000
394.493;  339.900; -911.000; -767.000
394.621;  -16.250; -955.000; -916.000
394.750;  707.250; -873.000; -923.000
394.878; 2981.550; -247.000; -149.000
395.007; 4167.925; -721.000; -807.000
395.135;  300.125; -790.000; -721.000
395.263;  -80.750;-1038.000;-1040.000
395.392;   -8.725;  -25.000; -107.000
395.520; -141.175; -818.000; -679.000
395.648;  -98.625; -865.000; -915.000
395.777;  -23.250; -366.000; -405.000
395.905;  -50.775; -449.000; -564.000
396.033;   10.850;  217.000;  172.000
396.162;  521.500; -399.000; -453.000
396.290;  501.450;  -17.000;   -2.000
396.418;   72.825; -555.000; -514.000
396.546;  -96.150; -571.000; -466.000
396.674; -100.375; -850.000; -878.000
396.803;   -5.650;  -72.000;  -23.000
396.931;   56.600; -179.000; -199.000
397.059;   29.350;-1026.000; -989.000
397.187; -104.850;-1026.000; -975.000
397.315; -135.350; -884.000; -649.000
397.443; -108.050; -592.000; -443.000
397.572;  -99.450; -578.000; -424.000
397.700;  -39.200; -607.000; -614.000
397.828;   19.525;  120.000;  -90.000
397.956;  -47.025; -508.000; -478.000
398.084;  -75.550; -767.000; -626.000
398.212;   21.650;  137.000;  124.000
398.340;   -1.600;  -56.000;  159.000
398.468;    7.075; -390.000; -169.000
398.596; -137.675; -993.000; -953.000
398.724; -125.550; -762.000; -767.000
398.852; -158.825;-1024.000; -976.000
398.980;  -74.450; -560.000; -560.000
399.108;  -60.975; -982.000; -735.000
399.236;   13.575;   13.000;    8.000
399.363;   -7.750;  222.000;  196.000
399.491;  -73.825; -404.000; -398.000
399.619; -141.475; -829.000; -800.000
399.747;  -96.150; -859.000; -771.000
399.875;   86.875;  220.000;  234.000
400.003;  -64.300; -359.000; -284.000
400.130;  -91.500; -421.000; -341.000
400.258;  -42.250;  -83.000;   38.000
400.386;  -76.000; -352.000; -168.000
400.514;  -57.200; -526.000; -587.000
400.641;  -92.375; -928.000; -802.000
400.769; -154.725; -979.000; -888.000
400.897; -118.100; -838.000; -793.000
401.025;  -45.825; -166.000; -152.000
401.152;  -10.575;  220.000;   38.000
401.280;  -92.875; -430.000; -429.000
401.408; -119.775; -712.000; -576.000
401.535; -107.150; -735.000; -758.000
401.663; -188.050;-1134.000;-1054.000
401.790; -108.525; -514.000; -525.000
401.918;   27.225;  436.000;  405.000
402.046;  -26.300;  134.000;  122.000
402.173;  -39.250;  -18.000;    7.000
402.301;  -81.250; -519.000; -397.000
402.428;   21.900;  528.000;  383.000
402.556; -144.050;-1188.000; -913.000
402.683;  -49.100;  -20.000;   -1.000
402.811;  -28.475;  -37.000; -206.000
402.938;  -17.250;   20.000;   27.000
403.066;  169.125; -574.000; -558.000
403.193;  325.550;  299.000;  239.000
403.321;  237.650; -396.000; -574.000
403.448;  297.075;   83.000;   27.000
403.575;  135.525;  -90.000;  -46.000
403.703;  -93.800; -732.000; -557.000
403.830;  -67.000; -531.000; -496.000
403.957; -155.750;-1117.000;-1023.000
404.085;    5.625;  -61.000; -172.000
404.212;  101.950;  -50.000;   63.000
404.339;  279.425; -566.000; -306.000
404.467; 5840.075; -612.000; -524.000
404.594; 3904.400; -287.000; -227.000
404.721;  895.725; -869.000; -764.000
404.848;   82.100; -113.000; -202.000
404.976; -104.375; -856.000; -783.000
405.103;  -17.875;  -14.000;  -82.000
405.230;   -9.400;  190.000;  226.000
405.357;   20.600;  117.000;   44.000
405.484;  256.900;  -49.000;    5.000
405.612;   41.275; -548.000; -563.000
405.739;  -62.100; -488.000; -243.000
405.866;   80.175;  669.000;  385.000
405.993;  -45.025; -398.000; -102.000
406.120; -154.900; -801.000; -887.000
406.247;  -68.450; -323.000; -342.000
406.374;  375.975;  540.000;  629.000
406.501;   78.900; -632.000; -702.000
406.628;  -88.775; -621.000; -589.000
406.755; -107.075; -803.000; -620.000
406.882;  -54.325; -228.000; -277.000
407.009; -105.500; -719.000; -628.000
407.136;   32.925; -480.000; -401.000
407.263;  112.400; -939.000; -829.000
407.390;  -87.350; -692.000; -614.000
407.517; -180.300;-1139.000;-1187.000
407.644;  -55.675; -332.000; -256.000
407.771;  -78.525; -249.000; -287.000
407.898;  -11.800;  168.000;  328.000
408.025;  -74.450; -421.000; -313.000
408.151;  -12.025;   82.000;  153.000
408.278;  -88.125; -267.000; -216.000
408.405; -126.025; -931.000; -899.000
408.532;  -71.550; -549.000; -542.000
408.659; -120.225; -677.000; -648.000
408.785; -208.800;-1298.000;-1170.000
408.912;  -73.000; -412.000; -296.000
409.039; -125.025; -610.000; -686.000
409.166; -114.500; -591.000; -555.000
409.292; -111.750; -571.000; -534.000
409.419; -123.925; -665.000; -649.000
409.546;  -86.100; -431.000; -192.000
409.672; -116.775; -713.000; -545.000
409.799;  -16.625;  -36.000;   34.000
409.926;  -49.600; -180.000; -179.000
410.052; -168.725;-1127.000;-1091.000
410.179;  -69.000; -368.000; -392.000
410.305;  -94.175; -375.000; -493.000
410.432;  -60.425; -220.000; -333.000
410.558;  -92.225; -305.000; -380.000
410.685; -108.100; -688.000; -431.000
410.812; -113.525; -409.000; -588.000
410.938; -151.700; -964.000; -808.000
411.065;  -98.175; -671.000; -645.000
411.191;  -27.425; -189.000; -174.000
411.317; -111.975; -823.000; -742.000
411.444;  -62.450; -317.000; -246.000
411.570;  -77.425; -339.000; -294.000
411.697; -135.850; -758.000; -752.000
411.823; -172.350; -989.000; -999.000
411.949;  -27.600;  -56.000;   17.000
412.076; -112.950; -539.000; -519.000
412.202; -130.050; -758.000; -757.000
412.329; -142.750; -798.000; -752.000
412.455; -119.975; -821.000; -657.000
412.581;  -26.450;  -15.000;  172.000
412.707;  -79.300; -540.000; -457.000
412.834;    3.200;  156.000;  219.000
412.960;  -97.075; -785.000; -784.000
413.086; -104.625; -743.000; -701.000
413.212;  116.050;  604.000;  578.000
413.339;  -73.275; -685.000; -701.000
413.465;    1.275; -364.000; -310.000
413.591; -105.000; -757.000; -474.000
413.717;  -57.275; -358.000; -366.000
413.843; -145.875; -839.000; -861.000
413.969;  -79.100;  -47.000; -292.000
414.096; -100.475; -679.000; -679.000
414.222;  -11.175;  -33.000;   85.000
414.348;  -45.300; -652.000; -385.000
414.474;   73.925;   38.000;  -52.000
414.600;  -28.650; -126.000; -144.000
414.726;  -24.775;  -96.000;  -55.000
414.852;  -78.600; -365.000; -342.000
414.978;   28.350;  104.000;  -18.000
415.104;   31.750;   38.000;   80.000
415.230;    4.575; -329.000; -330.000
415.356;   46.350; -409.000; -514.000
415.482;  188.800;   13.000;  -35.000
415.608;  284.775; -247.000; -323.000
415.734;  950.975;   67.000;   38.000
415.860;20003.325; -875.000; -767.000
415.986;15209.500; -685.000; -607.000
416.111; 1346.200; -798.000; -652.000
416.237;  257.950; -424.000; -571.000
416.363; 1127.300; -765.000; -733.000
416.489; 4353.800; -324.000; -251.000
416.615;  496.750; -707.000; -742.000
416.741;  -18.950; -677.000; -784.000
416.866;  -95.050; -673.000; -736.000
416.992; -121.350; -801.000; -818.000
417.118;  -26.550;  -41.000;  -80.000
417.244;  -83.200; -798.000; -531.000
417.369;  -99.675; -801.000; -612.000
417.495;  -16.025; -325.000; -254.000
417.621;  -92.975;-1015.000; -803.000
417.746;  -15.650; -579.000; -572.000
417.872;   43.875; -254.000; -144.000
417.998;   37.075; -515.000; -530.000
418.123; 1025.900;-1073.000; -845.000
418.249; 5580.350; -512.000; -601.000
418.374;  828.850; -916.000; -824.000
418.500;  115.475; -383.000; -482.000
418.626;  116.625;   70.000;  -59.000
418.751;  123.575; -549.000; -448.000
418.877;  204.675; -637.000; -643.000
419.002; 1771.075; -688.000; -560.000
419.128;13018.750; -930.000; -721.000
419.253; 3303.100; -967.000; -837.000
419.379;  434.150; -391.000; -338.000
419.504;  391.800;  325.000;  415.000
419.629;  527.700; -393.000; -212.000
419.755; 3545.250; -317.000; -254.000
419.880;22008.200;  -98.000;   67.000
420.006;11842.800; -280.000; -221.000
420.131;30510.375; -662.000; -775.000
420.256; 4610.175; -315.000; -316.000
420.382;  619.325; -665.000; -687.000
420.507;   84.625; -649.000; -778.000
420.632;  116.050; -337.000; -339.000
420.758;  206.300; -251.000; -425.000
420.883;  -85.850; -876.000; -672.000
421.008; -110.825; -775.000; -619.000
421.133;  -84.175; -509.000; -467.000
421.259;  -56.625; -325.000; -259.000
421.384; -115.725; -834.000; -693.000
421.509;  -72.225;-1052.000; -862.000
421.634;  986.800; -936.000; -820.000
421.759;  458.200; -359.000; -327.000
421.885;  -63.725; -717.000; -656.000
422.010;  -92.575; -673.000; -542.000
422.135; -148.625; -695.000; -727.000
422.260;   31.350;  340.000;  280.000
422.385;  -51.850;   12.000;  -98.000
422.510;   -2.750;  151.000;  -26.000
422.635;    9.750;  -87.000;  -43.000
422.760;   89.650; -766.000; -791.000
422.885;   54.025;  -57.000;  -80.000
423.010;  -31.725; -112.000; -169.000
423.135; -103.575; -481.000; -561.000
423.260;  -29.500; -150.000; -245.000
423.385;   49.575;  476.000;  222.000
423.510;   17.325;   71.000;  -22.000
423.635;   58.925;  133.000;   45.000
423.760;   50.525;  383.000;  328.000
423.885;   39.625;  336.000;  391.000
424.010;   -1.725;  -68.000;  -13.000
424.135;  -18.800;    5.000;  -33.000
424.259;  -89.450; -654.000; -457.000
424.384;  -68.175; -279.000; -272.000
424.509;  -32.025; -260.000; -186.000
424.634;  -96.200; -761.000; -623.000
424.759;  -41.025; -688.000; -544.000
424.883;  -16.825; -506.000; -527.000
425.008;  148.425; -502.000; -410.000
425.133; 2055.175; -679.000; -653.000
425.258;  996.175; -517.000; -381.000
425.382;  966.650; -867.000; -774.000
425.507; 2532.650; -487.000; -543.000
425.632;  442.875; -802.000; -663.000
425.756;  471.925; -256.000; -146.000
425.881; 6624.325; -831.000; -857.000
426.006;18922.425; -604.000; -355.000
426.130; 3068.700; -696.000; -508.000
426.255;  378.050; -611.000; -491.000
426.379;  166.475; -189.000; -577.000
426.504;  344.100;  660.000;  544.000
426.629; 4029.750; -519.000; -466.000
426.753; 2903.400;   64.000;  -46.000
426.878;  352.725; -252.000; -288.000
427.002;  149.725; -651.000; -668.000
427.127; 1540.750;  -35.000; -158.000
427.251;11764.075;  372.000;  401.000
427.375; 3555.050; -191.000; -173.000
427.500; 2188.900; -616.000; -610.000
427.624;  785.700; -234.000; -400.000
427.749;   82.825; -216.000; -225.000
427.873;  -44.450; -499.000; -412.000
427.997;  -43.800; -222.000; -230.000
428.122;   47.975;  795.000;  703.000
428.246;   64.825;  433.000;  434.000
428.371; -128.650; -869.000; -773.000
428.495; -108.725; -624.000; -646.000
428.619;  -49.875; -186.000; -117.000
428.743;   14.250;   65.000;  132.000
428.868;    8.125; -732.000; -643.000
428.992; 1332.525; -219.000; -326.000
429.116;  535.650; -329.000; -357.000
429.240;  245.700;  419.000;  426.000
429.365;  -31.400; -454.000; -574.000
429.489;  -57.225; -638.000; -647.000
429.613;   16.625; -236.000; -177.000
429.737;   25.225; -563.000; -432.000
429.861;  271.950; -247.000; -133.000
429.985; 5545.650; -425.000; -305.000
430.109; 6460.675; -770.000; -908.000
430.234;  767.100;   76.000;  -50.000
430.358;   76.875; -250.000; -160.000
430.482;  -72.375; -672.000; -564.000
430.606;  -78.750; -655.000; -375.000
430.730;   -7.500; -437.000; -388.000
430.854;   98.700; -909.000; -835.000
430.978;  -95.725; -795.000; -764.000
431.102;  -86.400; -499.000; -422.000
431.226; -136.650; -874.000; -815.000
431.350;   17.650;  345.000;  422.000
431.474;  -86.400; -661.000; -373.000
431.597; -147.300;-1060.000; -848.000
431.721;  -86.250; -276.000; -267.000
431.845; -143.450; -704.000; -472.000
431.969;  -83.375; -304.000; -349.000
432.093;  -87.125; -395.000; -317.000
432.217;  -19.325;   32.000;   82.000
432.341;  -90.575; -523.000; -518.000
432.464;   -2.325;   96.000;   40.000
432.588;  167.725; -401.000; -329.000
432.712;   83.625;  -52.000;  -52.000
432.836;   47.450;  213.000;  263.000
432.959;  -25.500; -372.000; -311.000
433.083;   74.375;   11.000;    2.000
433.207;  375.400;  285.000;  930.000
433.330; 5073.450; -391.000; -200.000
433.454; 6574.725; -654.000; -638.000
433.578; 3755.425;  583.000;  278.000
433.701;  724.925; -623.000; -675.000
433.825;  113.900; -292.000; -299.000
433.949;  124.950;   28.000;  -72.000
434.072;   29.175; -410.000; -323.000
434.196;  -29.350; -309.000; -117.000
434.319; 3647.500;25482.000;25124.000
434.443;  673.700; -656.000; -603.000
434.566; 2760.750;  281.000;   62.000
434.690;  486.825; -637.000; -383.000
434.813;   45.825; -251.000; -173.000
434.937;  -78.775; -569.000; -696.000
435.060;  -58.350; -423.000; -332.000
435.184;  248.750; -492.000; -217.000
435.307;  134.600;  159.000;  102.000
435.431;  -14.600;  -40.000;   24.000
435.554;  -84.175; -399.000; -240.000
435.677;  -94.975; -350.000; -258.000
435.801;  -42.150;  -25.000;   49.000
435.924;  -22.700;    1.000;  -67.000
436.048; -128.250;-1019.000; -732.000
436.171;  -66.500; -240.000;  -66.000
436.294;  -34.425; -248.000; -229.000
436.417;   94.025; -963.000; -849.000
436.541;  -85.125; -814.000; -840.000
436.664;  -59.575; -242.000; -316.000
436.787;  -26.450;   13.000;  113.000
436.910; -128.000; -792.000; -422.000
437.034;  -11.800;  142.000;  143.000
437.157;   32.475;  -11.000;    0.000
437.280;  -58.650; -392.000; -292.000
437.403;  -97.975; -982.000; -869.000
437.526;  501.725; -903.000; -865.000
437.649; 2009.525; -505.000; -332.000
437.772;  291.675; -692.000; -540.000
437.896;   96.925;  700.000;  544.000
438.019; -105.475; -758.000; -503.000
438.142;  -91.500; -596.000; -506.000
438.265;  -36.625; -639.000; -670.000
438.388;  482.225; -520.000; -410.000
438.511;   78.200; -597.000; -394.000
438.634;  -59.775; -247.000; -125.000
438.757; -135.425; -693.000; -619.000
438.880;  -48.000;  -34.000;  -57.000
439.003;  -91.175; -417.000; -437.000
439.126;  -75.975; -287.000; -167.000
439.248;  -62.175;  -98.000; -139.000
439.371;  -48.900;    9.000;  -53.000
439.494;   11.375;  510.000;  439.000
439.617;  -56.625;   65.000;  -88.000
439.740; -179.875; -968.000; -816.000
439.863; -148.275; -755.000; -595.000
439.986; -124.800; -476.000; -431.000
440.108;  -55.925; -161.000; -112.000
440.231; -170.450; -950.000; -836.000
440.354;  -50.225;  -64.000; -150.000
440.477;   -6.050; -566.000; -542.000
440.599;  -21.200; -200.000; -225.000
440.722; -135.600; -709.000; -586.000
440.845;   53.075;  751.000;  928.000
440.968; -106.400; -415.000; -311.000
441.090;  -65.550; -199.000;  -33.000
441.213; -176.800;-1021.000; -825.000
441.336;  -47.900; -159.000;   -5.000
441.458;  -92.150; -549.000; -396.000
441.581;  -96.300; -628.000; -629.000
441.703;  -86.600; -152.000;   13.000
441.826; -129.400; -557.000; -400.000
441.948;  -49.625;   56.000;   51.000
442.071;   21.125;  555.000;  424.000
442.193; -134.300; -531.000; -485.000
442.316;   15.450;  152.000;   97.000
442.438;   26.125; -233.000;  -10.000
442.561;   46.500;  272.000;  262.000
442.683;  438.325; -809.000; -522.000
442.806; 1034.050;   -8.000;   74.000
442.928;   16.475; -859.000; -604.000
443.051;  -81.125; -577.000; -373.000
443.173; -103.575; -341.000; -339.000
443.295;  -90.350; -263.000; -371.000
443.418;  -90.775; -321.000;  -29.000
443.540;  -22.425; -106.000;   -4.000
443.662; -130.150; -563.000; -465.000
443.785;  -13.450;  335.000;  199.000
443.907; -108.375; -362.000; -208.000
444.029; -150.150; -767.000; -494.000
444.152; -143.400; -644.000; -554.000
444.274;  -35.150;  -18.000;  -24.000
444.396; -111.200; -461.000; -221.000
444.518; -142.350; -691.000; -454.000
444.640; -118.925; -268.000; -111.000
444.763;  -37.275;  388.000;  249.000
444.885; -123.550; -432.000; -392.000
445.007;  -33.625;   35.000;   86.000
445.129; -131.150; -610.000; -515.000
445.251; -109.100; -372.000; -439.000
445.373; -136.175; -537.000; -386.000
445.495;  -10.925;  242.000;  350.000
445.617;   48.475;  853.000;  753.000
445.739;  -66.550; -215.000;  -97.000
445.861;  -44.425; -245.000; -112.000
445.984;  -44.175; -267.000; -101.000
446.105;  169.100; -418.000; -251.000
446.227;  537.100; -176.000;  -19.000
446.349;   -4.400; -358.000; -249.000
446.471; -110.975; -615.000; -448.000
446.593;  -67.250; -316.000;   19.000
446.715;  -19.250;  -67.000;   41.000
446.837;   58.850;  697.000;  832.000
446.959; -105.325; -457.000; -478.000
447.081; -127.600; -628.000; -518.000
447.203;   36.850;  862.000;  834.000
447.325;  -86.175; -270.000;   42.000
447.446;  -22.275;  286.000;  530.000
447.568; -177.650; -921.000; -803.000
447.690;  -87.750; -236.000; -245.000
447.812; -143.375; -798.000; -519.000
447.933;  -41.000;  155.000;  127.000
448.055;  -52.800; -306.000; -261.000
448.177;  124.675;   31.000;   79.000
448.299;   60.975; -935.000; -727.000
448.420;   13.125;  -25.000;  159.000
448.542;  -52.100;   -3.000;   33.000
448.664;  -38.000;  109.000;  322.000
448.785;  -40.300;  265.000;   83.000
448.907;  -92.625; -614.000; -353.000
449.028;  -42.025; -771.000; -471.000
449.150;   45.525;  492.000;  589.000
449.272; -181.000;-1044.000; -913.000
449.393;   21.650;  612.000;  694.000
449.515; -149.125; -634.000; -581.000
449.636;  -74.225; -264.000; -155.000
449.758;   74.050;  763.000;  622.000
449.879; -100.300; -498.000; -396.000
450.001;  -85.250; -149.000;  -49.000
450.122;  -34.475;  -95.000;  162.000
450.244;  -33.050;   37.000;  364.000
450.365; -108.625; -495.000; -301.000
450.486;  -46.350;   80.000;  268.000
450.608;   10.700;  393.000;  326.000
450.729;   71.750;  578.000;  645.000
450.850;    7.300; -574.000; -466.000
450.972;  771.375; -552.000; -389.000
451.093; 5047.275;  190.000;  588.000
451.214; 2346.125; -516.000; -337.000
451.336;  424.675;  773.000;  579.000
451.457;   56.275;  264.000;  393.000
451.578;  -43.375; -118.000;  -74.000
451.699; -120.825; -546.000; -540.000
451.821;  -67.225; -284.000;  -50.000
451.942;  -14.075;  278.000;  285.000
452.063;   24.525;  228.000;  419.000
452.184;  536.750;  -54.000;  -49.000
452.305; 1146.325;  103.000;  170.000
452.427;  152.900; -549.000; -301.000
452.548;  -23.425;   23.000;   79.000
452.669;  -57.625; -257.000;  -89.000
452.790;  -51.425;    3.000;  -18.000
452.911;  -15.700;  195.000;  259.000
453.032;  -78.325; -289.000;  -60.000
453.153;  -57.175;  -29.000;   81.000
453.274;   49.550;  737.000;  868.000
453.395;  -59.425;  -51.000;  175.000
453.516;  124.300; 1317.000; 1388.000
453.637;  -76.375; -205.000; -150.000
453.758;  -62.575;   15.000;   69.000
453.879; -131.225; -462.000; -250.000
454.000;   63.350; 1086.000;  948.000
454.121; -121.400; -554.000; -326.000
454.242; -116.650; -599.000; -383.000
454.362;  -66.400;  -99.000;  114.000
454.483;  -45.350; -309.000; -229.000
454.604;   38.100;  512.000;  580.000
454.725; -128.100; -627.000; -555.000
454.846; -123.075; -474.000; -406.000
454.967;  -31.550;  230.000;  539.000
455.087;  -51.575;  179.000;  153.000
455.208;   13.525;  554.000;  856.000
455.329;  -71.450;  -22.000;   82.000
455.450;   23.425;  473.000;  633.000
455.570;  -79.625; -234.000; -211.000
455.691;  -45.950;  201.000;  407.000
455.812;  -98.800; -270.000;  -92.000
455.932;  -64.700;  107.000;  -97.000
456.053;  -78.450;   36.000;   24.000
456.173; -111.575; -433.000; -355.000
456.294; -141.675; -476.000; -303.000
456.415;  -75.800;  -73.000;   70.000
456.535;  -42.825;  297.000;  273.000
456.656;  -54.725;  132.000;  240.000
456.776;  -66.375;    3.000;  298.000
456.897;  -19.375;  308.000;  513.000
457.017;  -90.950; -153.000;   -3.000
457.138; -118.250; -402.000; -249.000
457.258;  -36.050;  263.000;  224.000
457.379;  -16.400;  509.000;  521.000
457.499;  -24.925;  443.000;  432.000
457.620; -126.450; -407.000; -231.000
457.740; -104.825; -132.000;  -11.000
457.860;  -67.800;   87.000;   44.000
457.981;  -58.000;  132.000;  124.000
458.101;  -93.550;  -89.000;   40.000
458.221;  -19.900;  336.000;  402.000
458.342;  -53.550;   -4.000;  -37.000
458.462;   27.825;  617.000;  352.000
458.582;  -34.025; -302.000; -294.000
458.703;   18.300;  303.000;  154.000
458.823;  -28.875;   22.000;  163.000
458.943;   12.825;  341.000;  467.000
459.063;  -26.950; 1124.000;  192.000
459.183;  -22.200;  328.000;  313.000
459.304;    9.650;  315.000;  517.000
459.424;  -61.125; -246.000;  -89.000
459.544;  305.800;  388.000;  764.000
459.664;  863.625;  499.000;  506.000
459.784;  312.725; 1004.000; 1175.000
459.904;   69.975;  867.000;  744.000
460.024;   55.750;  867.000;  684.000
460.144;   22.575;  449.000;  554.000
460.264;  -17.650;  515.000;  327.000
460.385;  -93.075; -145.000; -119.000
460.505;   30.225;  905.000;  858.000
460.625;  -87.650;  -17.000;  -68.000
460.745;  -32.325;  396.000;  541.000
460.864;  -52.700;  153.000;  469.000
460.984;    3.700;  499.000;  573.000
461.104;  124.825; 1656.000; 1775.000
461.224;    9.025;  657.000;  650.000
461.344;  -40.550;  431.000;  360.000
461.464;  -36.900;  258.000;  513.000
461.584;  -24.950;  283.000;  466.000
461.704;  -48.600;   58.000;  108.000
461.824;  -55.325;  238.000;  259.000
461.943;  -54.025;  191.000;  130.000
462.063;  -79.125;    2.000;  324.000
462.183;   24.150;  639.000;  717.000
462.303;   94.625; 1678.000; 1230.000
462.422;   25.150;  781.000;  840.000
462.542;  -44.825;  271.000;  391.000
462.662;   16.775;  353.000;  380.000
462.782;  229.250;  833.000;  572.000
462.901;  494.825;  545.000;  717.000
463.021;  287.475; 1702.000; 1638.000
463.141;   -6.250;  337.000;  770.000
463.260;  -25.450;  614.000;  474.000
463.380;   15.600;  902.000;  884.000
463.499;  -44.525;  342.000;  332.000
463.619;  -47.450;  581.000;  559.000
463.738;  106.250; 1644.000;  903.000
463.858;   14.325;  657.000;  811.000
463.978;  -34.350;  542.000;  396.000
464.097;   37.675;  921.000; 1114.000
464.217;  106.675; 1196.000; 1143.000
464.336;  109.150; 1068.000; 1130.000
464.455;  -37.975;  328.000;  659.000
464.575;   29.175;  597.000;  602.000
464.694;  155.675; 1204.000; 1179.000
464.814;  133.125; 1190.000; 1138.000
464.933;   77.600; 1095.000; 1027.000
465.052;   94.725; 1412.000; 1054.000
465.172;   73.025;  922.000;  799.000
465.291;  142.800; 1376.000; 1320.000
465.410;   -3.600;  462.000;  735.000
465.530;   81.600; 1355.000; 1310.000
465.649;   63.150; 1209.000; 1273.000
465.768;  126.300; 1673.000; 1508.000
465.888;   42.625;  941.000; 1174.000
466.007;   79.625; 1335.000; 1440.000
466.126;  -10.425;  721.000;  641.000
466.245;   38.800; 1176.000; 1187.000
466.364;    8.100;  950.000; 1060.000
466.484;   61.250; 1024.000; 1213.000
466.603;   42.900; 1101.000; 1222.000
466.722;  125.925; 1490.000; 1769.000
466.841;   74.400; 1151.000; 1401.000
466.960;   21.800; 1069.000;  972.000
467.079;  151.900; 1971.000; 1786.000
467.198;   40.450; 1238.000; 1181.000
467.317;   78.275; 1768.000; 1162.000
467.436;   61.750; 1709.000; 1261.000
467.555;  107.775; 1796.000; 1746.000
467.674;   52.050; 1227.000; 1329.000
467.793;   30.350; 1376.000; 1374.000
467.912;   81.300; 1658.000; 1539.000
468.031;  149.025; 2038.000; 1930.000
468.150;  139.175; 1842.000; 1837.000
468.269;  186.850; 2313.000; 2090.000
468.388;  179.900; 2168.000; 2339.000
468.507;  244.475; 2884.000; 2903.000
468.626;  262.625; 2555.000; 2541.000
468.744;  140.725; 2018.000; 2174.000
468.863;  191.475; 2312.000; 2523.000
468.982;   90.925; 1503.000; 1555.000
469.101;  205.725; 2788.000; 2692.000
469.220;  150.900; 2333.000; 2176.000
469.338;  250.125; 2935.000; 3051.000
469.457;  204.600; 2719.000; 2545.000
469.576;  344.100; 3953.000; 3784.000
469.695;  231.825; 2877.000; 3066.000
469.813;  427.950; 4148.000; 4192.000
469.932;  390.625; 4255.000; 4485.000
470.051;  423.150; 4075.000; 4161.000
470.169;  846.575; 4470.000; 4338.000
470.288; 1508.575; 4700.000; 4809.000
470.406;  887.200; 5059.000; 5194.000
470.525;  611.275; 6101.000; 5787.000
470.644;  660.675; 6847.000; 6794.000
470.762;  808.425; 8397.000; 7873.000
470.881;  898.850; 8651.000; 8464.000
470.999; 1050.675; 9685.000; 9151.000
471.118; 1111.250;11174.000;10711.000

