
Integration time [ms]: 100.000
Averaging Nr. [scans]: 40
Smoothing Nr. [pixels]: 0
Data measured with spectrometer [name]: 2101012U2
Wave   ;Sample   ;Dark     ;Reference
[nm]   ;[counts] ;[counts] ;[counts] 

197.733;   51.175;  516.000;  404.000
197.879;  -69.075; -610.000; -634.000
198.025;  -42.325; -475.000; -420.000
198.171;  -60.700; -602.000; -612.000
198.317;  -29.800; -401.000; -316.000
198.463;  -51.150; -655.000; -404.000
198.609;   14.225;  181.000; -137.000
198.755;  -68.900; -644.000; -410.000
198.901;  -66.950; -505.000; -424.000
199.047;  -60.725; -615.000; -488.000
199.193;  -35.900; -230.000; -468.000
199.339;  -34.175; -222.000; -369.000
199.485;   37.275;  330.000;  271.000
199.631;   16.475;  227.000;  310.000
199.777;  -42.225; -466.000; -398.000
199.923;  -54.725; -610.000; -424.000
200.069;  -14.925; -141.000;  -58.000
200.215;   44.500;  128.000;  453.000
200.361;   43.350;  243.000;  477.000
200.507;  -57.950; -600.000; -373.000
200.653;  -30.425; -371.000; -194.000
200.798;  -31.825; -215.000; -125.000
200.944;   -9.525; -146.000;  -41.000
201.090;   33.425;   61.000;  222.000
201.236;    4.650; -116.000; -158.000
201.382;  110.275;  874.000;  903.000
201.528;    1.425;  -58.000;  -48.000
201.674;  -55.125; -386.000; -293.000
201.819;  -53.975; -540.000; -439.000
201.965;  -80.800; -699.000; -447.000
202.111;  -27.650; -273.000; -226.000
202.257;  -44.250; -250.000; -238.000
202.402;    7.400;   13.000;  -36.000
202.548;  -19.525; -169.000; -116.000
202.694;   68.450;  410.000; -183.000
202.840;  -58.125; -603.000; -531.000
202.985;  -66.750; -681.000; -639.000
203.131;  -91.500; -832.000; -666.000
203.277;  -25.350; -199.000; -262.000
203.423;  -36.525; -434.000; -520.000
203.568;  -42.325; -462.000; -237.000
203.714;  -67.975; -535.000; -542.000
203.860;  -62.225; -682.000; -641.000
204.005;   18.975;  112.000;  167.000
204.151;   60.225;  561.000;  556.000
204.296;  -41.850; -354.000; -221.000
204.442;  -72.675; -600.000; -547.000
204.588;  -71.650; -592.000; -579.000
204.733;   18.700;  178.000;  168.000
204.879; -126.075;-1018.000; -822.000
205.025;    5.600;  -99.000;  126.000
205.170;   -0.975;  -17.000;   94.000
205.316;   67.525;  438.000;  661.000
205.461;  -71.425; -698.000; -554.000
205.607;   73.900;  609.000;  665.000
205.752;  -67.225; -626.000; -551.000
205.898;  -55.250; -501.000; -391.000
206.043;  -54.025; -578.000; -506.000
206.189;  -44.975; -243.000; -285.000
206.334;   65.700;  554.000;  606.000
206.480;   75.475;  409.000;  239.000
206.625;  -66.675; -529.000; -552.000
206.771;  -46.075; -451.000; -373.000
206.916;  -27.375; -210.000; -537.000
207.062;  -68.900; -545.000; -591.000
207.207;  -52.550; -546.000; -443.000
207.353;   43.900;  185.000;  460.000
207.498;   12.675;  196.000;   85.000
207.643;  -54.250; -501.000; -370.000
207.789; -116.275;-1069.000; -910.000
207.934;  -84.900; -665.000; -713.000
208.080;  -28.950; -154.000;   66.000
208.225;   -8.750;  -22.000;  -57.000
208.370;  -77.875; -727.000; -619.000
208.516;  -72.550; -741.000; -487.000
208.661;  -14.225; -127.000;  -69.000
208.806;  -15.275; -165.000; -171.000
208.952; -112.150;-1044.000; -731.000
209.097;   59.125;  378.000;  349.000
209.242;  -30.325; -307.000; -382.000
209.387;   67.550;  392.000;  350.000
209.533;  -51.550; -321.000; -350.000
209.678;   70.500;  472.000;  543.000
209.823;  -44.650; -408.000; -310.000
209.969;  -99.925; -860.000; -757.000
210.114; -101.050; -907.000; -719.000
210.259; -111.525; -939.000; -889.000
210.404;  -13.025; -171.000;  103.000
210.549;   16.625;  108.000;    3.000
210.695;   -2.275;   -3.000;  -95.000
210.840;   31.250;   94.000;   67.000
210.985;  -54.375; -484.000; -303.000
211.130;   72.975;  268.000;  406.000
211.275;   20.750;  207.000;  199.000
211.420;  -49.975; -300.000; -289.000
211.566;  -58.325; -536.000; -489.000
211.711;    7.200;  218.000;  157.000
211.856;  -55.175; -545.000; -519.000
212.001;    8.100;  151.000;   44.000
212.146;   13.950;  153.000;   49.000
212.291;  -22.350; -210.000; -186.000
212.436;  -15.600; -280.000;   -6.000
212.581;  -76.250; -685.000; -653.000
212.726;  -71.075; -487.000; -538.000
212.871;  -44.325; -552.000; -217.000
213.016; -134.050;-1172.000;-1029.000
213.161;   52.225;  406.000;  291.000
213.306;  -75.900; -435.000; -577.000
213.451;  -80.025; -778.000; -689.000
213.596;  -39.750; -455.000; -347.000
213.741;  -41.975; -448.000; -538.000
213.886;  -75.800; -498.000; -517.000
214.031;  -17.975; -294.000; -124.000
214.176;  -52.000; -408.000; -341.000
214.321;  -26.600; -296.000; -157.000
214.466;  -30.850; -163.000;  -43.000
214.611;  -14.550;  -61.000;  -10.000
214.756; -111.100; -948.000; -858.000
214.901;  -14.550; -388.000; -226.000
215.046; -117.100; -797.000; -825.000
215.191;   20.075;  128.000;   35.000
215.336;  -22.150; -157.000;  -19.000
215.480;  -57.575; -684.000; -505.000
215.625;  -29.250; -175.000;  -19.000
215.770;  -78.350; -757.000; -662.000
215.915;  -20.675;   -5.000;  -97.000
216.060;   -1.675; -113.000;  -21.000
216.205;  -97.300; -731.000; -779.000
216.349;  -70.550; -470.000; -533.000
216.494; -127.875; -939.000; -867.000
216.639; -108.225; -823.000; -888.000
216.784;  -80.625; -577.000; -525.000
216.929;   46.975;  392.000;  281.000
217.073;  -16.875; -244.000;  -31.000
217.218;   -0.725;   78.000;  -47.000
217.363;  -80.325; -656.000; -618.000
217.507;  -72.400; -623.000; -588.000
217.652; -122.975; -845.000; -874.000
217.797;  -87.050; -708.000; -659.000
217.942;  -99.450; -856.000; -720.000
218.086;   62.100;  608.000;  539.000
218.231;  -31.950; -174.000;  -26.000
218.376;  -34.775; -337.000; -229.000
218.520;   -0.100;  -41.000;   96.000
218.665;  -35.425; -338.000; -204.000
218.810;  -50.125; -275.000; -233.000
218.954;    0.200;  201.000;   35.000
219.099;  -99.200; -713.000; -963.000
219.243;  -65.425; -589.000; -554.000
219.388;  -25.250; -264.000; -136.000
219.532;  -17.125; -116.000; -116.000
219.677;  -61.050; -564.000; -521.000
219.822;   -0.275;   33.000;   89.000
219.966;    3.125;   17.000;  -99.000
220.111;  -37.650; -328.000;  -40.000
220.255; -100.200; -797.000; -750.000
220.400;  -24.500; -180.000; -146.000
220.544;  -60.950; -516.000; -450.000
220.689;  -38.075; -422.000; -451.000
220.833;  -23.350; -123.000;  -58.000
220.978;  -37.275; -393.000; -563.000
221.122;   22.450;  319.000;  307.000
221.267; -112.425; -906.000; -837.000
221.411;  -59.450; -478.000; -394.000
221.555;   -9.875; -104.000;  -23.000
221.700;  -31.750; -329.000; -222.000
221.844;   22.625;  255.000;  272.000
221.989;  -40.200; -328.000; -311.000
222.133;  -33.300; -289.000; -307.000
222.277;  -13.475;    5.000;   78.000
222.422;   21.200;  227.000;  113.000
222.566;  -39.700; -381.000; -214.000
222.711;  -57.425; -414.000; -479.000
222.855;  -73.775; -643.000; -586.000
222.999;  -78.025; -642.000; -717.000
223.144;  -37.950; -195.000; -194.000
223.288;   45.200;  423.000;  251.000
223.432;   32.025;  184.000;  230.000
223.576;   10.575;  152.000;  -21.000
223.721;   34.650;  364.000;  273.000
223.865;  -50.475; -472.000; -475.000
224.009;  176.350; 1673.000; 1631.000
224.153;  -76.175; -660.000; -671.000
224.298;  -64.125; -531.000; -489.000
224.442;  -26.025;  -74.000;  -33.000
224.586;  -12.925; -169.000; -106.000
224.730; -108.825; -858.000; -670.000
224.875; -107.475; -739.000; -688.000
225.019;   10.675;  102.000;  188.000
225.163;   46.475;  208.000;  341.000
225.307;    7.600;   97.000;  -91.000
225.451;   34.850;  360.000;  481.000
225.595;   18.650;  264.000;  176.000
225.739;  -19.200; -170.000;  -94.000
225.884;   -2.850;   86.000;    5.000
226.028;  -84.875; -760.000; -626.000
226.172;  -56.825; -260.000; -273.000
226.316; -107.475; -941.000; -902.000
226.460;  -64.225; -645.000; -493.000
226.604;  -54.700; -406.000; -400.000
226.748;  -87.325; -836.000; -733.000
226.892;  -33.350; -227.000; -181.000
227.036;  -55.850; -537.000; -447.000
227.180;  -63.575; -551.000; -375.000
227.324;  -49.925; -561.000; -580.000
227.468; -110.000; -819.000; -717.000
227.612;   10.375;  242.000;  -28.000
227.756;  -93.100; -845.000; -698.000
227.900;   42.500;  342.000;  441.000
228.044;  -56.450; -509.000; -290.000
228.188;   41.000;  448.000;  568.000
228.332;  -80.700; -546.000; -472.000
228.476;  -32.225; -223.000; -149.000
228.620;  -30.775; -210.000; -150.000
228.764;   61.875;  431.000;  349.000
228.908;  -15.600; -155.000;   30.000
229.052;  -56.100; -615.000; -528.000
229.195;  -18.875; -172.000;   13.000
229.339;  -42.325; -235.000; -305.000
229.483;  -29.525;    5.000; -162.000
229.627;   -4.100; -156.000;  139.000
229.771;  -40.425; -218.000; -294.000
229.915;   14.350;  230.000;   79.000
230.059;  -81.975; -648.000; -663.000
230.202;  -46.850; -370.000; -317.000
230.346;  -19.900; -107.000;  107.000
230.490;  -60.325; -489.000; -521.000
230.634; -103.000; -736.000; -553.000
230.777;   52.050;  478.000;  509.000
230.921;  -47.825; -450.000; -359.000
231.065;  -39.050; -246.000; -286.000
231.209;   45.075;  261.000;  265.000
231.352;    7.800;   54.000;   40.000
231.496;    5.450;  568.000;  188.000
231.640;  -71.775; -693.000; -621.000
231.783;   45.675;  546.000;  525.000
231.927;  -45.275; -294.000; -365.000
232.071; -122.375; -962.000; -736.000
232.214; -103.625; -980.000; -764.000
232.358;  -92.450; -683.000; -599.000
232.502;    2.125;  -19.000;    7.000
232.645; -126.025;-1090.000; -927.000
232.789;  -26.925; -257.000; -218.000
232.933;  -53.850; -407.000; -224.000
233.076; -114.225;-1038.000; -897.000
233.220;  -95.075; -752.000; -777.000
233.363;  -72.675; -669.000; -477.000
233.507;   52.200;  371.000;  129.000
233.650;  -86.600; -764.000; -834.000
233.794;   47.900;  438.000;  461.000
233.938;  -49.800; -530.000; -362.000
234.081;  -25.350;  -93.000;   31.000
234.225;  -59.250; -631.000; -539.000
234.368; -104.775; -773.000; -723.000
234.512;  -44.275; -385.000; -299.000
234.655;  -87.500; -582.000; -555.000
234.798;  -69.150; -493.000; -466.000
234.942; -113.775; -884.000;-1002.000
235.085;  -72.575; -651.000; -443.000
235.229;  -58.950; -405.000; -410.000
235.372;  -42.550; -247.000; -191.000
235.516;  -55.475; -397.000; -321.000
235.659;    5.100;   92.000;  121.000
235.802;   -4.800;  -38.000;  -22.000
235.946;   26.125;  335.000;  215.000
236.089;   19.125;  126.000;  250.000
236.233;   39.950;  275.000;  298.000
236.376;  -36.950; -235.000; -378.000
236.519;  -60.375; -297.000; -319.000
236.663;  -10.725; -215.000; -117.000
236.806; -125.825;-1029.000; -999.000
236.949;   56.875;  543.000;  431.000
237.092;   43.450;  412.000;  391.000
237.236;  -81.800; -589.000; -502.000
237.379;   60.150;  352.000;  428.000
237.522; -110.125; -879.000; -768.000
237.666;  -20.275; -271.000;   18.000
237.809; -116.950; -851.000; -823.000
237.952;   22.925;  469.000;  271.000
238.095;  -66.200; -447.000; -442.000
238.238;   79.375;  688.000;  700.000
238.382;   11.000;  166.000;  103.000
238.525;  -67.375; -598.000; -511.000
238.668; -124.600;-1060.000; -985.000
238.811;  -81.150; -638.000; -643.000
238.954;  -65.050; -483.000; -334.000
239.097;   84.450;  617.000;  664.000
239.241;   29.525;  394.000;  326.000
239.384;  -40.000; -254.000; -214.000
239.527;  -61.625; -424.000; -224.000
239.670; -132.950; -994.000;-1091.000
239.813;  -98.875; -696.000; -658.000
239.956;   63.225;  579.000;  473.000
240.099; -106.400; -778.000; -725.000
240.242;   61.975;  428.000;  432.000
240.385;   37.325;  466.000;  450.000
240.528;  -60.475; -706.000; -473.000
240.671;   21.275;  189.000;  134.000
240.814;  -37.475; -441.000; -158.000
240.957;  -83.800; -767.000; -578.000
241.100;  -96.650; -779.000; -755.000
241.243; -141.275;-1234.000; -893.000
241.386;  -58.625; -508.000; -379.000
241.529; -104.625; -735.000; -547.000
241.672;  -51.675; -566.000; -495.000
241.815; -118.225; -832.000; -808.000
241.958;  -37.500; -125.000; -182.000
242.101;  -69.025; -545.000; -390.000
242.244;  -44.450; -270.000; -325.000
242.387;  -29.575; -304.000; -246.000
242.530;   56.600;  470.000;  134.000
242.673;  -49.825; -381.000; -309.000
242.815; -109.475; -925.000; -899.000
242.958;  -56.425; -482.000; -381.000
243.101;    7.400;  132.000;  187.000
243.244;  -76.400; -564.000; -521.000
243.387;  -41.800; -313.000; -316.000
243.530;  -80.400; -657.000; -674.000
243.672;  -19.375;   43.000;  -92.000
243.815;  -43.200; -355.000; -283.000
243.958;   -0.500;   98.000;  -26.000
244.101;    2.925;   59.000;  -16.000
244.243;  -13.925;  -47.000;  101.000
244.386; -105.450; -761.000; -630.000
244.529;  -33.025; -132.000; -139.000
244.672; -137.675;-1154.000; -951.000
244.814; -104.550; -621.000; -794.000
244.957;  -30.650; -380.000; -304.000
245.100;  -70.975; -489.000; -489.000
245.242;  -45.950; -387.000; -374.000
245.385;   -3.225;  -59.000;  -39.000
245.528; -107.625; -871.000; -705.000
245.670;   74.075;  612.000;  634.000
245.813;  -85.075; -599.000; -547.000
245.956;  -31.350; -324.000; -275.000
246.098;  -57.975; -508.000; -650.000
246.241;   -5.825;  194.000;   48.000
246.383;  -13.325; -119.000;  -73.000
246.526;  -73.875; -454.000; -525.000
246.669; -114.550; -889.000; -780.000
246.811;   25.775;  172.000;   -1.000
246.954;  -69.550; -512.000; -426.000
247.096;  -10.400;  -84.000;   -6.000
247.239;  -61.150; -482.000; -445.000
247.381;  -71.275; -647.000; -488.000
247.524;   77.050;  645.000;  679.000
247.666;  -13.100;   58.000;   11.000
247.809; -118.500; -887.000; -691.000
247.951;  -20.200;  -75.000;  138.000
248.094;   13.575;  432.000;  308.000
248.236; -167.450;-1262.000;-1238.000
248.378;  -44.650; -356.000;  -81.000
248.521;  -55.625; -334.000; -337.000
248.663;  -41.700; -236.000; -267.000
248.806;  -44.025; -300.000; -266.000
248.948; -122.550; -886.000; -763.000
249.090;  -68.825; -428.000; -398.000
249.233;  -73.650; -344.000; -381.000
249.375;  -67.250; -474.000; -451.000
249.518;  -34.375;  -83.000; -133.000
249.660;  -14.550; -103.000;    3.000
249.802; -171.425;-1303.000;-1189.000
249.945;  -84.750; -612.000; -540.000
250.087;  -96.625; -834.000; -768.000
250.229;  -62.650; -362.000; -480.000
250.371;  -75.675; -494.000; -439.000
250.514;  -57.025; -310.000; -244.000
250.656;  -63.150;   69.000;  102.000
250.798; -116.800; -849.000; -800.000
250.940;  -58.875; -322.000; -322.000
251.083;  -43.750; -335.000; -111.000
251.225;   44.875;  338.000;  310.000
251.367;  -44.400; -274.000; -373.000
251.509;  -38.050; -265.000; -210.000
251.651;  -98.800; -731.000; -671.000
251.794;   40.750;  538.000;  632.000
251.936; -111.075; -821.000; -747.000
252.078;  -73.525; -540.000; -461.000
252.220;  -73.375; -645.000; -477.000
252.362;   22.775;  344.000;  462.000
252.504;  -88.900; -677.000; -584.000
252.646; -112.550; -875.000; -722.000
252.788;  -31.050;   14.000; -128.000
252.931;  -55.125; -257.000; -253.000
253.073;  -50.875; -376.000; -317.000
253.215;  -10.625;  141.000;  122.000
253.357;  -16.925;   82.000; -153.000
253.499;  -49.425; -374.000; -234.000
253.641;  -87.850; -749.000; -594.000
253.783;  -93.700; -609.000; -527.000
253.925;  -94.275; -586.000; -591.000
254.067; -109.100; -744.000; -667.000
254.209;  -48.150; -391.000; -259.000
254.351; -126.275; -865.000; -883.000
254.493;  -67.475; -441.000; -417.000
254.635; -134.200; -936.000; -818.000
254.777; -104.325; -752.000; -687.000
254.918;  -73.450; -512.000; -430.000
255.060;  -78.275; -551.000; -395.000
255.202;  -71.575; -473.000; -261.000
255.344;  -76.475; -658.000; -455.000
255.486;  -70.950; -471.000; -406.000
255.628;  -99.175; -780.000; -781.000
255.770;  -79.425; -676.000; -536.000
255.912;  -64.575; -559.000; -468.000
256.053;  -83.275; -730.000; -508.000
256.195;  131.225; 1008.000;  903.000
256.337; -103.825; -861.000; -595.000
256.479;   53.500;  532.000;  416.000
256.621;  -60.800; -394.000; -212.000
256.762;  -99.525; -789.000; -742.000
256.904;   38.225;  485.000;  487.000
257.046;  -51.200; -381.000; -271.000
257.188;  -45.150; -351.000; -264.000
257.329;  -76.350; -525.000; -464.000
257.471; -114.600; -939.000; -807.000
257.613;  -68.325; -584.000; -498.000
257.755; -138.400;-1073.000; -982.000
257.896;   22.850;  286.000;  392.000
258.038;  -74.025; -403.000; -352.000
258.180;  -56.625; -354.000; -279.000
258.321;  -98.250; -581.000; -457.000
258.463;  -14.075;  -71.000;  133.000
258.605;  -90.575; -562.000; -570.000
258.746;  -98.000; -886.000; -772.000
258.888; -147.350;-1026.000;-1020.000
259.029;    2.375;  121.000;   -8.000
259.171;  -86.100; -614.000; -550.000
259.313;   -9.800;  -49.000;  -47.000
259.454;  -71.350; -536.000; -414.000
259.596;  -63.725; -483.000; -390.000
259.737;  -81.675; -590.000; -474.000
259.879;   18.800;  217.000;  311.000
260.020;   73.225;  901.000;  636.000
260.162;  -31.950; -146.000; -253.000
260.303; -123.025; -768.000; -687.000
260.445;  -84.325; -609.000; -613.000
260.586;   27.550;  392.000;  157.000
260.728;  -44.625; -360.000; -248.000
260.869;  -70.550; -350.000; -343.000
261.011;   69.350;  706.000;  537.000
261.152;  -57.400; -479.000; -319.000
261.293;  -74.725; -576.000; -595.000
261.435;  -47.500; -219.000; -184.000
261.576;  -62.100; -455.000; -325.000
261.718;   49.000;  420.000;  470.000
261.859; -130.200; -940.000; -949.000
262.000; -123.175; -951.000;-1016.000
262.142;  -27.100;  -52.000;  -60.000
262.283; -117.950; -808.000; -691.000
262.424;  -99.300; -666.000; -625.000
262.566; -144.975;-1161.000; -983.000
262.707; -110.275; -840.000; -830.000
262.848; -123.175; -769.000; -726.000
262.990;  -47.200; -362.000; -345.000
263.131;   68.500;  650.000;  681.000
263.272;  -13.375;  -61.000;  -41.000
263.413;  -81.775; -589.000; -561.000
263.555;  -68.300; -669.000; -143.000
263.696;  -83.800; -550.000; -641.000
263.837;  -57.850; -449.000; -551.000
263.978;   -7.475;   -5.000;  -77.000
264.119;  -43.800; -283.000; -264.000
264.261; -120.625; -847.000; -630.000
264.402;   -1.975;   33.000;   40.000
264.543;  -77.450; -509.000; -524.000
264.684;  -31.350;   61.000;  -50.000
264.825;  -69.625; -816.000; -538.000
264.966;  -11.800;  -84.000;  -67.000
265.107; -113.325; -646.000; -670.000
265.248; -120.900; -825.000; -812.000
265.390;  -19.850;  152.000;   -9.000
265.531;  -34.075; -238.000; -107.000
265.672;  -95.175; -557.000; -630.000
265.813;   45.925;  563.000;  439.000
265.954; -133.975; -959.000; -940.000
266.095;  -17.525; -372.000; -322.000
266.236; -102.675; -686.000; -548.000
266.377;  -40.600; -243.000; -297.000
266.518;  -69.425; -619.000; -547.000
266.659;    8.300;  170.000;  268.000
266.800;   -3.025;   83.000;   85.000
266.941;  -74.525; -487.000; -478.000
267.082;   17.075;  354.000;   99.000
267.223;  -50.200; -344.000; -273.000
267.364; -113.875; -892.000; -686.000
267.504;  -34.000;    3.000;  135.000
267.645;   -2.400;  160.000;   67.000
267.786;  -45.175; -147.000;  -86.000
267.927;  -73.050; -473.000; -379.000
268.068;  -32.450; -186.000;  -61.000
268.209;  -52.975; -175.000; -413.000
268.350;  -66.575; -388.000; -532.000
268.490;  -91.550; -648.000; -521.000
268.631;   24.950;  127.000;  225.000
268.772;  -98.875; -874.000; -647.000
268.913;  -71.125; -328.000; -476.000
269.054;  -32.650; -117.000;   12.000
269.194;  -48.800; -418.000; -402.000
269.335; -139.600;-1137.000;-1074.000
269.476;  -22.175;   33.000;  -35.000
269.617;  -60.400; -347.000; -392.000
269.757;  -95.825; -713.000; -646.000
269.898; -104.225; -856.000; -613.000
270.039;  -72.400; -415.000; -405.000
270.180; -127.525; -952.000; -816.000
270.320;  -34.475; -190.000; -250.000
270.461;  -40.350; -277.000; -249.000
270.602;  -25.625; -186.000; -156.000
270.742; -139.250; -868.000; -943.000
270.883;  -68.500; -442.000; -390.000
271.023;  -69.550; -358.000; -357.000
271.164;  -74.050; -607.000; -528.000
271.305; -111.400; -666.000; -654.000
271.445; -100.625; -722.000; -683.000
271.586;  -65.750; -462.000; -283.000
271.726;  -60.525; -397.000; -322.000
271.867; -100.550; -594.000; -534.000
272.008;  -49.525; -473.000; -285.000
272.148;   19.300;  462.000;  468.000
272.289;  -15.175; -113.000; -181.000
272.429;  -16.175;   19.000;  185.000
272.570; -101.525; -633.000; -737.000
272.710; -103.850; -825.000; -775.000
272.851;  -42.625;  113.000; -130.000
272.991; -163.900;-1173.000;-1077.000
273.131;  -70.300; -419.000; -459.000
273.272; -101.050; -683.000; -723.000
273.412;  -19.750; -143.000;  -31.000
273.553;  -91.500; -488.000; -507.000
273.693;   94.200;  913.000;  858.000
273.834; -130.075; -894.000; -692.000
273.974;  -90.400; -664.000; -615.000
274.114; -109.225; -772.000; -560.000
274.255;   27.850;  414.000;  373.000
274.395;  -38.100; -180.000; -125.000
274.535;    0.175;  199.000;  350.000
274.676;   11.650;  225.000;   94.000
274.816;  -12.575;  110.000;   34.000
274.956;  -86.425; -624.000; -690.000
275.097; -135.875;-1014.000; -922.000
275.237; -127.175; -913.000; -803.000
275.377; -106.175; -778.000; -689.000
275.517; -153.450; -878.000; -937.000
275.658;  -79.575; -590.000; -555.000
275.798;  -94.475; -606.000; -413.000
275.938;    0.650;  215.000;  323.000
276.078;  -95.825; -626.000; -395.000
276.218;   -1.150;   99.000;  104.000
276.359; -144.575;-1026.000;-1024.000
276.499;  -73.750; -605.000; -446.000
276.639;  -49.400; -305.000; -151.000
276.779;  -53.750; -475.000; -357.000
276.919; -110.275; -783.000; -624.000
277.059;  -30.500; -261.000; -212.000
277.199;  -74.375; -357.000; -259.000
277.340;   23.525;  287.000;  175.000
277.480; -111.200; -840.000; -693.000
277.620;   13.450;  192.000;   16.000
277.760; -182.300;-1533.000;-1294.000
277.900;   -8.475;  113.000;   33.000
278.040;   -6.700;  137.000;  159.000
278.180;    7.175;  270.000;  170.000
278.320;  -14.350;   21.000;   56.000
278.460;  -79.150; -443.000; -469.000
278.600; -104.175; -708.000; -598.000
278.740;   24.000;  448.000;  224.000
278.880; -118.200; -768.000; -791.000
279.020;  -46.000; -194.000; -144.000
279.160;  -90.200; -672.000; -595.000
279.300; -125.675; -926.000; -873.000
279.440; -114.825; -709.000; -622.000
279.579; -116.025;-1014.000; -929.000
279.719;  -81.700; -410.000; -394.000
279.859;   -3.425;   -4.000;   41.000
279.999;  -28.975; -208.000;  101.000
280.139;  -73.550; -435.000; -387.000
280.279; -110.125; -708.000; -745.000
280.419;  -45.150; -229.000; -147.000
280.559;  -57.350; -259.000; -180.000
280.698;  -96.375; -790.000; -639.000
280.838; -118.275; -778.000; -800.000
280.978; -112.025; -846.000; -790.000
281.118; -107.700; -811.000; -704.000
281.257;  -20.275;   24.000;    6.000
281.397; -157.125;-1094.000; -960.000
281.537; -101.650; -599.000; -712.000
281.677;  -44.600; -150.000; -101.000
281.816; -103.950; -700.000; -630.000
281.956;  -49.200; -193.000; -257.000
282.096;  -63.025; -539.000; -396.000
282.235; -111.850; -672.000; -638.000
282.375;  -26.125; -243.000;  -98.000
282.515; -115.725; -715.000; -707.000
282.654;    0.275;   29.000;  106.000
282.794;   14.625;  388.000;  244.000
282.934;  -71.900; -530.000; -491.000
283.073; -144.900;-1030.000; -857.000
283.213;  -59.250; -460.000; -467.000
283.353;  -66.900; -408.000; -349.000
283.492;  -51.625; -264.000; -296.000
283.632;  -54.800; -254.000; -168.000
283.771; -110.650; -859.000; -730.000
283.911;  -62.675; -369.000; -260.000
284.050; -113.225; -794.000; -748.000
284.190; -155.425;-1229.000;-1096.000
284.329; -152.950;-1055.000; -964.000
284.469; -101.300; -516.000; -591.000
284.608;  -56.700; -559.000; -598.000
284.748;  -88.575; -614.000; -570.000
284.887;  -24.075;  -87.000;  -20.000
285.027; -127.050; -844.000; -892.000
285.166;  -39.275; -192.000; -249.000
285.306;  -34.300; -116.000;  -33.000
285.445;  -61.775; -229.000; -343.000
285.584;  -93.050; -630.000; -494.000
285.724;  -64.075; -282.000; -322.000
285.863; -115.650; -857.000; -507.000
286.002;  -65.275; -366.000; -276.000
286.142; -113.675; -715.000; -622.000
286.281;  -67.925; -525.000; -493.000
286.420;  -91.600; -554.000; -417.000
286.560;   63.425;  653.000;  623.000
286.699; -145.050; -958.000; -912.000
286.838;  -90.800; -590.000; -591.000
286.978; -100.550; -533.000; -537.000
287.117; -142.425;-1085.000; -950.000
287.256;  -46.775; -228.000; -211.000
287.395;  -68.425; -197.000; -378.000
287.535;  -63.175; -370.000; -298.000
287.674;  -88.075; -509.000; -484.000
287.813;   32.625;  661.000;  533.000
287.952; -141.475;-1010.000; -871.000
288.091; -148.400;-1049.000; -915.000
288.231;  -27.450;   13.000;   15.000
288.370; -169.775;-1217.000;-1200.000
288.509;  -87.225; -728.000; -645.000
288.648;  -96.175; -770.000; -548.000
288.787;  -45.225; -243.000;  -87.000
288.926;  -85.925; -454.000; -475.000
289.065;   81.125;  859.000;  672.000
289.204;  -56.600; -377.000; -217.000
289.344; -109.725; -791.000; -690.000
289.483;    9.175;  416.000;  304.000
289.622;  -48.150; -291.000; -149.000
289.761;  -37.575; -309.000; -166.000
289.900; -107.300; -785.000; -626.000
290.039;  -36.225;  -12.000;  -95.000
290.178;  -57.925; -274.000; -180.000
290.317;  -78.875; -618.000; -479.000
290.456;  -82.425; -463.000; -451.000
290.595; -121.950; -961.000; -833.000
290.734; -147.100; -904.000; -891.000
290.873;  -77.200; -456.000; -420.000
291.011; -116.950; -833.000; -843.000
291.150; -112.475; -770.000; -682.000
291.289;  -50.925; -343.000; -110.000
291.428; -104.450; -599.000; -480.000
291.567;  -70.475; -370.000; -442.000
291.706;  -20.775;  109.000;  154.000
291.845; -104.250; -597.000; -505.000
291.984; -165.250;-1234.000;-1061.000
292.122;   30.400;  602.000;  582.000
292.261;   23.525;  620.000;  463.000
292.400;  -14.100; -144.000;  211.000
292.539; -146.100; -959.000; -813.000
292.678;  -58.350; -325.000; -300.000
292.816; -163.750;-1136.000; -965.000
292.955; -109.575; -844.000; -684.000
293.094;  -37.825; -173.000; -337.000
293.233;  -65.650; -556.000; -400.000
293.371;  -44.175; -225.000;  -84.000
293.510; -128.900; -866.000; -780.000
293.649; -132.525; -959.000; -924.000
293.787; -152.225;-1083.000;-1012.000
293.926;  -32.575; -113.000;  -32.000
294.065;  -64.350; -379.000; -290.000
294.203;   24.525;  298.000;  406.000
294.342;  -14.225;   74.000;  156.000
294.481; 5105.100;51180.000; -836.000
294.619;  -59.050; -425.000; -582.000
294.758; -159.300;-1230.000;-1137.000
294.896;  -23.050; -125.000;    5.000
295.035; -154.325;-1040.000;-1006.000
295.174; -136.625;-1082.000; -954.000
295.312;  -60.725; -323.000; -203.000
295.451;  -67.650; -307.000; -428.000
295.589;  -83.600; -389.000; -518.000
295.728;  -18.975; -292.000; -165.000
295.866;  -33.800;  -36.000;  -51.000
296.005;  -93.625; -584.000; -341.000
296.143; -101.975; -558.000; -596.000
296.282; -122.450; -957.000; -881.000
296.420; -104.650; -657.000; -557.000
296.559; -115.375; -892.000; -633.000
296.697; -103.725; -847.000; -665.000
296.835; -158.700;-1141.000;-1002.000
296.974;  -19.125;  -23.000;   39.000
297.112;  -92.125; -443.000; -504.000
297.251; -118.400; -815.000; -755.000
297.389;  -85.150; -576.000; -438.000
297.527;  -37.050; -145.000;  -83.000
297.666;  -95.625; -486.000; -438.000
297.804;  -74.775; -404.000; -264.000
297.942;  -24.750; -136.000; -161.000
298.081;  -30.525; -183.000;   63.000
298.219;  -25.975;  -17.000;  -19.000
298.357;  -56.225; -144.000;  -71.000
298.495; -128.975; -810.000; -812.000
298.634;   -9.225;  245.000;  219.000
298.772;  -55.300; -220.000; -338.000
298.910;  -80.600; -309.000; -182.000
299.048;  -34.075; -130.000; -153.000
299.187;  -59.400; -350.000; -250.000
299.325;  -30.450;   52.000;  122.000
299.463;  -74.875; -389.000; -299.000
299.601;  -63.900; -327.000; -271.000
299.739; -133.525; -908.000; -883.000
299.877; -103.250; -791.000; -703.000
300.016; -156.800;-1095.000; -935.000
300.154;  -23.850;  -19.000; -161.000
300.292;  -79.400; -428.000; -348.000
300.430;  -70.675; -408.000; -291.000
300.568; -129.875; -940.000; -874.000
300.706;  -80.675; -366.000; -469.000
300.844; -153.725;-1108.000; -979.000
300.982;   25.000;  246.000;  282.000
301.120; -153.100; -965.000; -866.000
301.258; -125.700; -812.000; -705.000
301.396;  -21.825;  104.000;  -41.000
301.534;  -60.150; -218.000; -293.000
301.672;  -98.250; -664.000; -521.000
301.810; -110.325; -613.000; -545.000
301.948;  -34.225;   53.000;  149.000
302.086;  -42.650; -250.000;  -32.000
302.224; -112.550; -610.000; -585.000
302.362;  -95.600; -558.000; -622.000
302.500; -135.250; -923.000; -893.000
302.638;  -20.300;  128.000;  245.000
302.776;  -65.225; -352.000; -408.000
302.913;   15.375;  447.000;  236.000
303.051;  -58.100;  -86.000;  -23.000
303.189;   -3.375;   90.000;  118.000
303.327;  -58.600; -341.000; -256.000
303.465; -103.575; -832.000; -588.000
303.603; -109.075; -805.000; -604.000
303.740;   13.075;  417.000;  241.000
303.878; -125.300; -800.000; -759.000
304.016; -121.225; -915.000; -790.000
304.154; -166.675;-1123.000;-1152.000
304.291;  -87.525; -505.000; -554.000
304.429;  -30.625;  102.000;   74.000
304.567; -143.750; -908.000; -893.000
304.705;  -86.300; -408.000; -515.000
304.842; -101.050; -616.000; -540.000
304.980;   -5.975;  215.000;   35.000
305.118;  -65.350; -367.000; -365.000
305.255; -148.025; -945.000; -927.000
305.393;   -0.825;  178.000;  239.000
305.531; -152.450;-1173.000; -956.000
305.668; -103.100; -663.000; -582.000
305.806;  -77.025; -358.000; -439.000
305.943; -101.125; -629.000; -637.000
306.081;  -63.350; -378.000; -267.000
306.219; -124.700; -863.000; -748.000
306.356;  -20.825;  158.000;   27.000
306.494;   61.025;  981.000;  761.000
306.631;  -25.900;  -11.000;  -55.000
306.769;  -45.175; -613.000; -485.000
306.906;  -67.675; -284.000; -258.000
307.044;  -80.850; -473.000; -488.000
307.181;  -76.800; -410.000; -332.000
307.319;  -25.375;  112.000;   87.000
307.456; -182.800;-1191.000;-1153.000
307.594; -126.275; -980.000; -727.000
307.731;  -51.475; -371.000; -164.000
307.868;  -28.175;  -15.000;   20.000
308.006; -137.375; -961.000; -847.000
308.143;  -91.200; -618.000; -330.000
308.281;  -36.625;  -37.000; -254.000
308.418; -102.100; -748.000; -640.000
308.555; -104.700; -400.000; -250.000
308.693;  -92.375; -577.000; -573.000
308.830; -114.800; -712.000; -657.000
308.967;  -37.675; -215.000;  -95.000
309.105;  -80.600; -507.000; -396.000
309.242;  -82.025; -468.000; -367.000
309.379; -108.700; -577.000; -655.000
309.517; -143.975; -936.000; -948.000
309.654; -135.850; -910.000; -734.000
309.791; -100.250; -662.000; -580.000
309.928; -151.050; -977.000; -914.000
310.065;   42.500;  819.000;  697.000
310.203; -134.075; -825.000; -850.000
310.340;  -83.900; -465.000; -321.000
310.477;  -93.500; -412.000; -516.000
310.614;  -72.675; -383.000; -473.000
310.751; -101.000; -427.000; -518.000
310.889;  -51.875;    1.000;   11.000
311.026; -150.250;-1161.000; -939.000
311.163;  -79.475; -386.000; -380.000
311.300;  -89.650; -512.000; -479.000
311.437; -108.275; -658.000; -619.000
311.574; -175.050;-1226.000; -985.000
311.711;  -97.650; -595.000; -433.000
311.848;  -69.100; -380.000; -388.000
311.985;    5.875;  270.000;   93.000
312.122; -140.175; -932.000; -762.000
312.259; -135.475; -941.000; -994.000
312.396; -100.925; -508.000; -551.000
312.533; -109.225; -812.000; -790.000
312.670; -153.225;-1070.000; -898.000
312.807;  -72.500; -352.000; -367.000
312.944; -115.925; -513.000; -611.000
313.081;  -70.150; -150.000; -415.000
313.218; -146.975;-1111.000; -867.000
313.355;  -80.650; -531.000; -449.000
313.492;  -63.800; -455.000; -292.000
313.629;   61.800;  815.000;  735.000
313.766; -173.600;-1176.000;-1008.000
313.902;  -28.675; -186.000;   21.000
314.039;  -65.225; -372.000; -289.000
314.176;   -8.125;  286.000;  192.000
314.313; -106.875; -569.000; -473.000
314.450; -115.975; -788.000; -684.000
314.587;  -87.725; -468.000; -480.000
314.723;  -23.150;  -78.000;  130.000
314.860;  -13.025;  318.000;  332.000
314.997;  -17.075;  223.000;  142.000
315.134;  -87.925; -385.000; -368.000
315.270;  -99.075; -480.000; -496.000
315.407; -166.050;-1094.000; -967.000
315.544;  -90.300; -657.000; -538.000
315.681; -108.500; -681.000; -565.000
315.817;  -50.225; -133.000; -176.000
315.954;  -96.400; -613.000; -392.000
316.091; -155.625;-1045.000;-1023.000
316.227;  -58.325;  -71.000; -179.000
316.364;  -17.475;   23.000;    6.000
316.500;  -65.850; -113.000; -300.000
316.637;  -52.825; -181.000; -302.000
316.774; -108.850; -625.000; -358.000
316.910; -107.525; -598.000; -629.000
317.047; -101.875; -487.000; -351.000
317.183;  -88.425; -435.000; -566.000
317.320;  -81.000; -367.000; -321.000
317.456; -129.850; -733.000; -805.000
317.593; -111.450; -598.000; -641.000
317.729;  -23.775;  168.000;  -67.000
317.866; -204.850;-1434.000;-1285.000
318.002; -109.150; -708.000; -948.000
318.139; -147.925; -883.000; -867.000
318.275; -126.300;-1003.000; -738.000
318.412;  -90.325; -517.000; -336.000
318.548; -109.075; -751.000; -720.000
318.685; -151.375; -985.000; -888.000
318.821; -123.425; -762.000; -735.000
318.957;  -46.150;   34.000;  -23.000
319.094;   19.875;  297.000;  154.000
319.230; -132.250; -756.000; -742.000
319.367; -104.025; -471.000; -520.000
319.503;  -90.425; -538.000; -436.000
319.639; -141.200; -877.000; -793.000
319.775; -112.075; -750.000; -685.000
319.912;  -84.875; -424.000; -519.000
320.048; -179.500;-1184.000;-1184.000
320.184;  -19.525;   59.000;   70.000
320.321;  -89.325; -497.000; -467.000
320.457;   39.225;  475.000;  662.000
320.593;  -77.125; -375.000; -382.000
320.729; -124.675; -732.000; -734.000
320.866; -118.500; -577.000; -635.000
321.002; -129.300; -759.000; -809.000
321.138;  -69.850; -135.000; -211.000
321.274;  -35.750; -148.000; -115.000
321.410;  -89.225; -585.000; -353.000
321.546; -148.450;-1011.000; -911.000
321.683;   -4.425;  400.000;  185.000
321.819;  -54.200;  -48.000; -117.000
321.955; -133.825; -743.000; -722.000
322.091; -100.750; -585.000; -540.000
322.227;  -60.425; -382.000; -202.000
322.363;  -73.875; -320.000; -215.000
322.499;  -79.350; -343.000; -331.000
322.635;   52.550;  636.000;  443.000
322.771;  -46.650; -139.000;   12.000
322.907;   14.550;  129.000;  327.000
323.043;  -57.550; -115.000; -206.000
323.179;  -77.100; -394.000; -363.000
323.315;  -86.950; -401.000; -371.000
323.451;  -67.475; -328.000; -236.000
323.587;  -53.100;  -60.000;  -77.000
323.723; -103.500; -682.000; -601.000
323.859;  -51.525; -258.000;  -76.000
323.995;  -85.575; -467.000; -409.000
324.131; -143.025; -967.000; -892.000
324.267;  -71.850; -254.000; -276.000
324.402; -158.625; -960.000; -983.000
324.538;  -58.150; -279.000; -104.000
324.674;  -27.375;  164.000;   77.000
324.810;  -21.925;  226.000;  308.000
324.946;  -81.875; -810.000; -658.000
325.082;  -95.075; -568.000; -475.000
325.217;  -42.325;  -62.000;   16.000
325.353; -119.450; -764.000; -659.000
325.489; -103.550; -540.000; -506.000
325.625;  -91.675; -579.000; -525.000
325.760;   -6.925;  517.000;  376.000
325.896;  -96.800; -515.000; -702.000
326.032;  -74.900; -403.000; -352.000
326.168;  -81.600; -462.000; -369.000
326.303;  -85.450; -352.000; -461.000
326.439;  -53.925; -336.000; -276.000
326.575;  -38.550; -190.000;  -29.000
326.710;  -35.500; -156.000;  -30.000
326.846;  -24.300;  146.000;  103.000
326.982; -104.475; -530.000; -548.000
327.117; -100.675; -481.000; -442.000
327.253; -114.825; -745.000; -742.000
327.388; -200.600;-1137.000;-1153.000
327.524; -109.675; -811.000; -578.000
327.659;  -52.825;  -58.000;  -22.000
327.795;  -25.750;   69.000;   45.000
327.931; -115.475; -723.000; -499.000
328.066;  -66.000; -417.000; -276.000
328.202;  -56.950;   12.000; -129.000
328.337;   59.075;  957.000;  713.000
328.473;    7.825;  -12.000;  -74.000
328.608;  -50.850; -256.000; -267.000
328.743; -123.625; -799.000; -664.000
328.879;  -16.750;  214.000;  114.000
329.014;  -46.575; -102.000; -122.000
329.150; -103.575; -358.000; -483.000
329.285;  -92.400; -465.000; -466.000
329.421;  -77.025; -548.000; -246.000
329.556;  -49.250;  -36.000;   85.000
329.691; -106.450; -633.000; -615.000
329.827; -104.775; -626.000; -480.000
329.962;  -80.575;  131.000; -301.000
330.097; -115.625; -673.000; -585.000
330.233;  -75.275; -410.000; -223.000
330.368; -129.825; -839.000; -628.000
330.503;  -37.850;    3.000;   98.000
330.638;  -41.950;  -93.000; -125.000
330.774; -109.650; -609.000; -530.000
330.909;  -57.450; -434.000; -244.000
331.044; -120.475; -714.000; -708.000
331.179; -178.700;-1217.000;-1109.000
331.315;  -21.350;   77.000;   20.000
331.450;  -18.325;  157.000;  285.000
331.585; -114.100; -805.000; -706.000
331.720; -105.200; -510.000; -460.000
331.855;  -50.675;  -35.000; -102.000
331.990;  -26.625;   62.000;  138.000
332.126;  -43.500; -110.000;   71.000
332.261;  -81.250; -379.000; -265.000
332.396;  -61.900; -135.000; -242.000
332.531; -162.775;-1074.000;-1031.000
332.666;  -89.650; -519.000; -363.000
332.801; -135.750; -726.000; -807.000
332.936;  -43.075; -192.000; -122.000
333.071; -137.575; -870.000; -817.000
333.206;   -5.500;  307.000;  379.000
333.341;   -6.400;  344.000;  418.000
333.476; -116.275; -627.000; -623.000
333.611;  -61.025; -251.000; -173.000
333.746;  -80.475; -381.000; -464.000
333.881; -142.350; -973.000; -935.000
334.016; -152.175; -936.000; -917.000
334.151; -143.300; -746.000; -702.000
334.286;  -21.050;  152.000;  186.000
334.421;  -44.650; -125.000; -178.000
334.556; -106.200; -611.000; -567.000
334.690; -112.150; -631.000; -577.000
334.825;    8.750;  381.000;   83.000
334.960; -101.675; -285.000; -413.000
335.095;  -20.450;  135.000;  -91.000
335.230; -122.775; -722.000; -738.000
335.365; -156.175;-1084.000; -990.000
335.499; -163.775;-1108.000;-1037.000
335.634;  -28.250;    9.000;  534.000
335.769; -142.600; -755.000; -720.000
335.904; -111.550; -603.000; -561.000
336.038; -133.075; -735.000; -657.000
336.173; -192.750;-1206.000;-1194.000
336.308;  -62.675; -116.000; -189.000
336.443;  -88.950; -544.000; -634.000
336.577; -147.475; -936.000; -787.000
336.712;  -37.325;   -4.000;  -12.000
336.847; -122.625; -724.000; -607.000
336.981;  -78.950; -272.000; -208.000
337.116;   15.425;  615.000;  501.000
337.250;  -89.000; -434.000; -421.000
337.385;  -81.275; -297.000; -208.000
337.520; -110.800; -632.000; -603.000
337.654;  -74.100; -215.000; -126.000
337.789; -157.900; -989.000; -933.000
337.923;  -71.425; -104.000; -205.000
338.058; -133.700; -673.000; -738.000
338.192; -101.675; -611.000; -488.000
338.327;  -49.850;  -18.000; -155.000
338.461; -126.075; -299.000; -469.000
338.596; -115.875; -780.000; -638.000
338.730; -127.125; -767.000; -803.000
338.865;  -38.925;  -46.000; -140.000
338.999; -144.975; -846.000; -702.000
339.134; -110.100; -634.000; -536.000
339.268; -118.875; -741.000; -603.000
339.403; -135.625; -740.000; -775.000
339.537; -139.625; -894.000; -820.000
339.671; -136.950; -829.000; -813.000
339.806; -111.375; -556.000; -512.000
339.940;  -59.475; -261.000; -235.000
340.074; -120.300; -685.000; -510.000
340.209;  -58.425; -351.000; -230.000
340.343; -111.025; -517.000; -573.000
340.477;   86.525;  998.000; 1036.000
340.612; -133.850;-1033.000; -900.000
340.746;  -83.875; -199.000; -243.000
340.880; -142.175; -924.000; -785.000
341.014;  -51.550;  -45.000; -154.000
341.149; -121.375; -756.000; -718.000
341.283; -133.775; -839.000; -754.000
341.417; -161.725;-1124.000; -938.000
341.551; -126.950; -768.000; -708.000
341.685; -112.975; -633.000; -611.000
341.820;  -98.050; -562.000; -493.000
341.954;  -82.600; -218.000; -349.000
342.088; -157.975;-1102.000;-1019.000
342.222;   23.400;  565.000;  618.000
342.356;  -98.000; -395.000; -335.000
342.490; -139.775; -880.000; -841.000
342.624;  -82.325; -339.000; -242.000
342.758;  -78.900; -364.000; -312.000
342.892; -110.200; -710.000; -585.000
343.026;  -56.600;  -58.000; -116.000
343.160;  -79.300; -426.000; -376.000
343.294; -101.000; -474.000; -337.000
343.428; -107.425; -488.000; -448.000
343.562;  -46.725; -172.000;  -23.000
343.696;  -67.750; -385.000; -314.000
343.830;  -85.050; -362.000; -356.000
343.964;  -53.900; -231.000; -168.000
344.098;  -17.950;  199.000;   70.000
344.232;  -51.450; -266.000; -127.000
344.366; -106.425; -567.000; -453.000
344.500; -122.075; -665.000; -744.000
344.634;  -70.500; -324.000; -164.000
344.768;  -92.525; -531.000; -341.000
344.902;  -17.300;  278.000;  256.000
345.035;  -83.800; -556.000; -496.000
345.169; -144.700; -933.000; -656.000
345.303;  -90.800; -308.000; -482.000
345.437; -133.550; -826.000; -717.000
345.571; -118.475; -675.000; -594.000
345.704;  -92.600; -309.000; -532.000
345.838;  -75.225; -331.000; -284.000
345.972; -107.375; -543.000; -495.000
346.106;  -35.800; -179.000; -190.000
346.239;  -68.700; -312.000; -243.000
346.373;  -76.225; -343.000; -302.000
346.507; -165.775; -950.000; -962.000
346.640;  -49.650;  -30.000;   13.000
346.774; -122.325; -650.000; -797.000
346.908;  -37.675; -138.000;  -11.000
347.041; -126.400; -646.000; -593.000
347.175;  -22.250;  259.000;   27.000
347.309; -128.475; -698.000; -628.000
347.442; -136.375; -883.000; -732.000
347.576;   33.400;  670.000;  668.000
347.709;  -61.500; -123.000;  -52.000
347.843; -150.575; -933.000; -825.000
347.976;   -1.600;  235.000;  294.000
348.110; -185.075;-1268.000;-1186.000
348.243; -122.600; -679.000; -772.000
348.377;  -30.150;  -26.000;   60.000
348.510;   11.675;  403.000;  540.000
348.644;  -67.050;  -37.000; -159.000
348.777;  -21.075;  180.000;  191.000
348.911;  -66.750; -142.000; -112.000
349.044;   -0.300;  471.000;  448.000
349.178; -162.375;-1069.000;-1006.000
349.311;   -9.800;  141.000;  255.000
349.444; -156.075; -927.000; -813.000
349.578;  -61.850; -347.000; -200.000
349.711; -151.850; -959.000; -862.000
349.845; -119.850; -661.000; -591.000
349.978; -194.550;-1224.000;-1137.000
350.111; -119.575; -546.000; -612.000
350.244; -123.950; -596.000; -700.000
350.378;  -91.925; -392.000; -393.000
350.511;  -86.800; -393.000; -426.000
350.644; -132.775; -808.000; -806.000
350.778;  -35.250;  168.000;  104.000
350.911;  -27.000;  134.000;  140.000
351.044; -121.675; -685.000; -615.000
351.177;  -74.475; -321.000; -281.000
351.310;  -39.700;    3.000; -131.000
351.444; -133.800; -888.000; -788.000
351.577;  -38.700;  140.000;   90.000
351.710;   29.725;  593.000;  417.000
351.843;  -61.975; -165.000;  -77.000
351.976;  -44.150;  149.000;  -79.000
352.109; -130.150; -621.000; -612.000
352.242;  -78.600; -464.000; -419.000
352.376; -127.175; -580.000; -636.000
352.509;  -85.575; -437.000; -356.000
352.642; -164.750; -654.000; -604.000
352.775;  -52.125; -141.000;  -98.000
352.908; -163.150; -933.000; -904.000
353.041; -134.175; -814.000; -824.000
353.174; -102.000; -551.000; -424.000
353.307; -128.675; -753.000; -764.000
353.440;   11.575;  541.000;  453.000
353.573; -160.275; -957.000;-1008.000
353.706; -124.125; -384.000; -558.000
353.839;  -65.250; -264.000; -220.000
353.971; -123.050; -657.000; -512.000
354.104; -137.525; -896.000; -835.000
354.237; -118.550; -627.000; -662.000
354.370; -129.825; -846.000; -879.000
354.503; -189.775;-1231.000;-1308.000
354.636;  -97.325; -529.000; -348.000
354.769; -160.575; -937.000; -860.000
354.902;  -72.150; -230.000; -139.000
355.034;  -54.175; -164.000; -220.000
355.167;  -62.775; -262.000; -162.000
355.300; -179.575;-1061.000; -880.000
355.433;  -50.675;  -71.000;  -14.000
355.565;  -96.350; -402.000; -384.000
355.698;  -90.300; -356.000; -296.000
355.831; -151.525; -882.000; -801.000
355.964;  -59.175; -285.000; -170.000
356.096; -144.225; -856.000; -843.000
356.229; -112.675; -523.000; -530.000
356.362;  -93.400; -373.000; -266.000
356.494;  -58.425; -229.000; -162.000
356.627;   -6.300;  269.000;  377.000
356.760;  -34.775;  120.000;   53.000
356.892;  -76.425; -286.000; -601.000
357.025;   12.400;  403.000;  389.000
357.157;  -60.200; -167.000; -179.000
357.290; -145.075; -856.000; -713.000
357.423; -124.450; -667.000; -556.000
357.555;  -65.375; -217.000; -228.000
357.688; -107.500; -483.000; -364.000
357.820; -152.775; -870.000; -877.000
357.953; -114.700; -563.000; -589.000
358.085; -123.700; -632.000; -612.000
358.218; -171.125;-1131.000; -932.000
358.350;  -38.850;  -58.000;  312.000
358.483; -200.175;-1300.000;-1187.000
358.615; -170.375;-1182.000;-1078.000
358.747; -197.900;-1187.000;-1058.000
358.880; -141.725; -810.000; -744.000
359.012;  -83.375; -376.000; -202.000
359.145; -105.150; -480.000; -511.000
359.277; -168.725; -962.000; -913.000
359.409;    8.550;  536.000;  231.000
359.542; -137.775; -738.000; -688.000
359.674;  -49.075;   46.000;   13.000
359.806; -105.250; -565.000; -438.000
359.939; -104.450; -617.000; -516.000
360.071; -116.125; -583.000; -579.000
360.203;  -80.850; -411.000; -364.000
360.335;  -36.000;  164.000;  -16.000
360.468;  -66.275; -249.000; -307.000
360.600; -101.025; -547.000; -454.000
360.732; -108.425; -546.000; -423.000
360.864; -190.675;-1216.000;-1044.000
360.996;  -87.100; -516.000; -554.000
361.129; -115.500; -389.000; -598.000
361.261;  -44.750;  110.000; -113.000
361.393;  -81.175; -252.000; -214.000
361.525;  -22.000;   94.000;  244.000
361.657; -139.950; -821.000; -703.000
361.789;  -60.750; -139.000; -155.000
361.921; -130.650; -642.000; -593.000
362.053;   19.300;  524.000;  541.000
362.185;  -29.900;  288.000;   72.000
362.318; -124.525; -709.000; -705.000
362.450;   -4.575;  294.000;  444.000
362.582; -149.450; -913.000; -870.000
362.714;  -73.100; -353.000; -332.000
362.846; -112.775; -606.000; -490.000
362.978; -164.550; -941.000; -811.000
363.109;  -73.700; -161.000; -260.000
363.241; -134.100; -739.000; -749.000
363.373; -115.450; -649.000; -564.000
363.505;  -52.175; -186.000;  -91.000
363.637; -124.575; -787.000; -601.000
363.769; -177.900;-1067.000;-1080.000
363.901; -105.425; -596.000; -654.000
364.033; -191.575;-1103.000;-1062.000
364.165;  -66.225; -283.000; -283.000
364.296;  -91.075; -316.000; -177.000
364.428; -197.300;-1344.000;-1220.000
364.560; -115.750; -679.000; -661.000
364.692; -120.425; -738.000; -835.000
364.824; -117.400; -588.000; -456.000
364.955;  -83.650; -402.000; -564.000
365.087; -174.100;-1097.000; -852.000
365.219; -134.025; -686.000; -816.000
365.351; -121.225; -526.000; -572.000
365.482;  -15.350;  300.000;  240.000
365.614; -101.025; -402.000; -314.000
365.746; -128.900; -729.000; -752.000
365.877; -132.900; -706.000; -672.000
366.009;  -42.500;  -35.000;  -62.000
366.141; -190.125;-1249.000;-1134.000
366.272; -135.500; -803.000; -719.000
366.404; -138.625;-1005.000; -874.000
366.535;  -51.925; -139.000;  -12.000
366.667; -134.000; -644.000; -649.000
366.799;   -8.150;  353.000;  203.000
366.930; -165.800; -862.000; -996.000
367.062; -125.425; -639.000; -613.000
367.193; -149.350; -872.000; -842.000
367.325; -106.525; -580.000; -684.000
367.456;  -82.875; -246.000;   31.000
367.588;  -88.550; -371.000; -318.000
367.719;  -60.800;  -44.000;  -45.000
367.851;  -81.200; -222.000; -241.000
367.982; -146.375; -875.000; -732.000
368.113;  -92.325; -475.000; -358.000
368.245; -162.375; -960.000; -841.000
368.376;  -69.550; -254.000; -302.000
368.508;  -85.200; -188.000; -263.000
368.639; -183.575;-1166.000;-1034.000
368.770; -132.850; -670.000; -589.000
368.902; -152.625; -836.000; -926.000
369.033; -157.175; -906.000; -855.000
369.164; -126.050; -720.000; -653.000
369.296; -125.125; -452.000; -601.000
369.427;  -59.700; -209.000; -144.000
369.558; -101.500; -593.000; -377.000
369.689; -125.875; -721.000; -569.000
369.821; -163.425; -951.000; -845.000
369.952;  -40.025;   42.000; -108.000
370.083;  -70.900; -229.000; -108.000
370.214; -128.675; -735.000; -650.000
370.345;  -45.300;   65.000;   81.000
370.477; -147.600; -810.000; -790.000
370.608;  -75.875; -328.000; -264.000
370.739; -187.575;-1233.000;-1292.000
370.870; -166.825;-1102.000; -923.000
371.001;  -83.325; -378.000; -467.000
371.132; -125.425; -754.000; -735.000
371.263;  -60.075;  -42.000; -148.000
371.394; -149.825; -841.000; -748.000
371.525;   -8.300;  345.000;  225.000
371.657; -153.000; -808.000; -670.000
371.788;  -23.825;  103.000;  199.000
371.919;  -75.850; -384.000; -304.000
372.050;  -36.450;  -91.000; -156.000
372.181;  -54.350; -188.000; -294.000
372.311;  -69.825;   42.000; -127.000
372.442;  -91.950; -457.000; -451.000
372.573;  -72.850; -444.000; -340.000
372.704; -183.775;-1008.000; -980.000
372.835;  -83.425; -228.000; -289.000
372.966; -124.975; -646.000; -554.000
373.097; -143.750; -575.000; -711.000
373.228; -123.975; -717.000; -542.000
373.359; -132.300; -824.000; -536.000
373.490; -144.600; -881.000; -727.000
373.620; -151.375;-1001.000; -803.000
373.751;  -91.425; -332.000; -396.000
373.882; -122.150; -663.000; -733.000
374.013;  -88.250; -449.000; -262.000
374.143; -124.650; -581.000; -659.000
374.274; -159.900; -987.000; -908.000
374.405;  -71.975; -388.000; -276.000
374.536; -111.475; -526.000; -387.000
374.666; -141.450; -759.000; -807.000
374.797; -144.950; -817.000; -868.000
374.928; -121.000; -710.000; -560.000
375.058;  -97.175; -535.000; -500.000
375.189;  -73.325;  -59.000;  -93.000
375.320; -160.400; -928.000;-1034.000
375.450; -123.350; -625.000; -616.000
375.581; -111.350; -526.000; -436.000
375.712;  -84.975; -574.000; -250.000
375.842; -103.975; -438.000; -415.000
375.973; -117.125; -554.000; -513.000
376.103; -126.800; -665.000; -648.000
376.234; -110.575; -531.000; -552.000
376.364; -158.450; -944.000; -867.000
376.495;   44.250;  925.000;  529.000
376.625; -112.825; -472.000; -485.000
376.756; -123.600; -709.000; -678.000
376.886; -188.425;-1178.000;-1026.000
377.017; -174.925;-1048.000;-1061.000
377.147; -145.600; -786.000; -782.000
377.278;  -31.025;  174.000;  228.000
377.408; -150.325; -801.000; -815.000
377.538; -130.550; -707.000; -693.000
377.669; -120.925; -537.000; -613.000
377.799; -132.425; -645.000; -635.000
377.929; -118.825; -610.000; -428.000
378.060; -150.475; -781.000; -847.000
378.190; -152.550; -726.000; -531.000
378.320; -103.275; -401.000; -406.000
378.451;  -53.575; -131.000;  -22.000
378.581;  -71.775;  -67.000; -110.000
378.711;   57.975; 1035.000;  866.000
378.841; -120.975; -533.000; -675.000
378.972; -155.675; -871.000; -751.000
379.102; -127.700; -652.000; -579.000
379.232;  -73.475; -126.000;  -73.000
379.362; -173.650;-1001.000; -885.000
379.492; -106.200; -373.000; -424.000
379.623;  -38.500;    0.000;  111.000
379.753; -169.525;-1107.000; -974.000
379.883;  -34.200;   59.000;  156.000
380.013; -176.200;-1081.000;-1017.000
380.143; -189.450;-1097.000;-1056.000
380.273; -160.000; -985.000; -861.000
380.403;  -74.150; -344.000; -257.000
380.533; -139.150; -651.000; -664.000
380.663;  -28.500;  173.000;  128.000
380.793; -193.025;-1027.000;-1074.000
380.923;  -63.600; -103.000;  -34.000
381.053; -133.425; -613.000; -623.000
381.183;  -71.100; -106.000; -248.000
381.313; -117.450; -656.000; -470.000
381.443; -112.125; -692.000; -473.000
381.573; -106.850; -402.000; -409.000
381.703; -190.500;-1249.000;-1095.000
381.833; -237.200;-1454.000;-1336.000
381.963;  -52.675; -134.000;  -87.000
382.093; -152.350; -925.000; -909.000
382.223; -125.225; -713.000; -602.000
382.353; -140.200; -801.000; -608.000
382.482; -178.875;-1091.000; -964.000
382.612; -139.525; -872.000; -644.000
382.742; -123.000; -695.000; -622.000
382.872; -111.550; -565.000; -551.000
383.002;  -25.325;  347.000; -132.000
383.131;  -83.750; -226.000; -160.000
383.261; -132.350; -706.000; -768.000
383.391; -107.050; -552.000; -377.000
383.521;    0.450;  451.000;  263.000
383.650; -159.075; -947.000; -904.000
383.780; -128.100; -783.000; -656.000
383.910;   44.075;  880.000;  802.000
384.039; -150.275; -794.000; -656.000
384.169; -200.450;-1205.000;-1017.000
384.299; -129.850; -650.000; -662.000
384.428; -129.950; -764.000; -680.000
384.558;  -85.000; -308.000; -275.000
384.687;  -96.475; -414.000; -334.000
384.817;  -56.275;   75.000;   -2.000
384.947;  -72.800; -234.000; -141.000
385.076;   66.825;  982.000;  912.000
385.206;   13.375;  369.000;  480.000
385.335;  -99.225; -549.000; -417.000
385.465; -126.900; -655.000; -663.000
385.594;  -54.450;  -53.000;  -44.000
385.724; -161.725; -868.000; -838.000
385.853;  -97.150; -296.000; -270.000
385.982; -156.650; -743.000; -787.000
386.112; -162.000;-1052.000; -871.000
386.241;  -90.825; -307.000; -312.000
386.371;  -72.250; -174.000;  -87.000
386.500; -147.475; -825.000; -789.000
386.629; -132.950; -874.000; -817.000
386.759;  -60.725;  -43.000;   68.000
386.888;  -69.850; -170.000; -250.000
387.017; -116.400; -648.000; -620.000
387.147; -142.125; -771.000; -798.000
387.276; -126.425; -410.000; -397.000
387.405;  -87.300; -398.000; -342.000
387.535; -105.675; -452.000; -361.000
387.664; -113.775; -692.000; -620.000
387.793;  -79.250; -198.000; -113.000
387.922;  -38.300;  255.000;  200.000
388.052; -112.150; -576.000; -423.000
388.181;  -97.275; -342.000; -472.000
388.310; -138.625; -889.000; -710.000
388.439; -155.425; -749.000; -742.000
388.568;  -24.600;  365.000;  244.000
388.697; -133.800; -756.000; -653.000
388.826; -130.150; -768.000; -666.000
388.956;  -80.775; -285.000; -307.000
389.085;  -95.525; -347.000; -287.000
389.214; -139.000; -842.000; -872.000
389.343; -108.375; -645.000; -413.000
389.472;  -22.325;  126.000;  149.000
389.601;  -50.225;   91.000;    0.000
389.730; -117.325; -568.000; -687.000
389.859;  -25.100;  226.000;   46.000
389.988;  -84.000; -423.000; -408.000
390.117;  -77.875; -168.000; -146.000
390.246;  -92.500; -331.000; -320.000
390.375; -125.600; -673.000; -626.000
390.504; -121.300; -703.000; -621.000
390.633; -148.300; -672.000; -726.000
390.761; -130.725; -732.000; -645.000
390.890;  -62.275;   -4.000; -130.000
391.019; -102.075; -421.000; -441.000
391.148; -145.825; -826.000; -855.000
391.277; -120.175; -576.000; -493.000
391.406; -161.575; -821.000; -805.000
391.534;  -11.525;  574.000; -301.000
391.663; -126.325; -583.000; -645.000
391.792; -128.425; -673.000; -701.000
391.921;  -52.325;   -3.000;   15.000
392.050;  -79.200; -287.000; -228.000
392.178; -196.350;-1206.000;-1061.000
392.307; -132.500; -758.000; -712.000
392.436; -136.975; -427.000; -641.000
392.564;  -46.100;  166.000;   -6.000
392.693; -150.225; -860.000; -682.000
392.822; -123.825; -529.000; -534.000
392.950; -153.900; -880.000; -714.000
393.079; -106.700; -188.000; -328.000
393.208; -115.250; -488.000; -511.000
393.336;  -80.375; -170.000; -145.000
393.465;  -81.300; -317.000; -199.000
393.593;  -37.825;   62.000;   79.000
393.722; -180.175;-1121.000; -916.000
393.850;  -67.075; -188.000;  -61.000
393.979; -169.250; -926.000; -805.000
394.107; -118.450; -517.000; -537.000
394.236; -123.800; -570.000; -507.000
394.364;  -27.100;  383.000;  206.000
394.493; -157.600; -911.000; -767.000
394.621; -154.600; -955.000; -916.000
394.750; -146.600; -873.000; -923.000
394.878;  -89.525; -247.000; -149.000
395.007; -154.225; -721.000; -807.000
395.135; -139.025; -790.000; -721.000
395.263; -180.275;-1038.000;-1040.000
395.392;  -55.150;  -25.000; -107.000
395.520; -161.175; -818.000; -679.000
395.648; -153.800; -865.000; -915.000
395.777; -108.650; -366.000; -405.000
395.905; -115.475; -449.000; -564.000
396.033;  -39.425;  217.000;  172.000
396.162;  -96.575; -399.000; -453.000
396.290;  -61.250;  -17.000;   -2.000
396.418; -110.975; -555.000; -514.000
396.546; -117.950; -571.000; -466.000
396.674; -148.525; -850.000; -878.000
396.803;  -62.825;  -72.000;  -23.000
396.931;  -81.025; -179.000; -199.000
397.059; -188.025;-1026.000; -989.000
397.187; -165.700;-1026.000; -975.000
397.315; -137.750; -884.000; -649.000
397.443; -119.550; -592.000; -443.000
397.572; -108.200; -578.000; -424.000
397.700; -128.375; -607.000; -614.000
397.828;  -67.875;  120.000;  -90.000
397.956; -118.275; -508.000; -478.000
398.084; -143.050; -767.000; -626.000
398.212;  -54.225;  137.000;  124.000
398.340;  -51.750;  -56.000;  159.000
398.468;  -89.125; -390.000; -169.000
398.596; -170.950; -993.000; -953.000
398.724; -147.000; -762.000; -767.000
398.852; -175.775;-1024.000; -976.000
398.980; -110.075; -560.000; -560.000
399.108; -140.775; -982.000; -735.000
399.236;  -52.700;   13.000;    8.000
399.363;  -40.825;  222.000;  196.000
399.491; -112.425; -404.000; -398.000
399.619; -147.750; -829.000; -800.000
399.747; -151.875; -859.000; -771.000
399.875;  -17.050;  220.000;  234.000
400.003;  -98.975; -359.000; -284.000
400.130; -122.425; -421.000; -341.000
400.258;  -45.525;  -83.000;   38.000
400.386;  -89.050; -352.000; -168.000
400.514; -121.175; -526.000; -587.000
400.641; -176.775; -928.000; -802.000
400.769; -180.425; -979.000; -888.000
400.897; -135.925; -838.000; -793.000
401.025;  -67.500; -166.000; -152.000
401.152;  -23.525;  220.000;   38.000
401.280; -107.175; -430.000; -429.000
401.408; -134.575; -712.000; -576.000
401.535; -137.800; -735.000; -758.000
401.663; -201.300;-1134.000;-1054.000
401.790; -113.375; -514.000; -525.000
401.918;    9.225;  436.000;  405.000
402.046;  -34.425;  134.000;  122.000
402.173;  -71.650;  -18.000;    7.000
402.301; -120.700; -519.000; -397.000
402.428;   -8.350;  528.000;  383.000
402.556; -178.550;-1188.000; -913.000
402.683;  -74.225;  -20.000;   -1.000
402.811;  -56.825;  -37.000; -206.000
402.938;  -52.950;   20.000;   27.000
403.066; -127.775; -574.000; -558.000
403.193;  -46.075;  299.000;  239.000
403.321; -102.050; -396.000; -574.000
403.448;  -45.100;   83.000;   27.000
403.575;  -60.275;  -90.000;  -46.000
403.703; -140.300; -732.000; -557.000
403.830; -109.925; -531.000; -496.000
403.957; -202.250;-1117.000;-1023.000
404.085;  -79.950;  -61.000; -172.000
404.212;  -66.725;  -50.000;   63.000
404.339; -103.375; -566.000; -306.000
404.467; -117.275; -612.000; -524.000
404.594;  -93.500; -287.000; -227.000
404.721; -144.625; -869.000; -764.000
404.848;  -62.175; -113.000; -202.000
404.976; -180.325; -856.000; -783.000
405.103;  -50.975;  -14.000;  -82.000
405.230;  -31.525;  190.000;  226.000
405.357;  -64.700;  117.000;   44.000
405.484;  -82.475;  -49.000;    5.000
405.612; -127.275; -548.000; -563.000
405.739; -117.050; -488.000; -243.000
405.866;   17.700;  669.000;  385.000
405.993;  -80.150; -398.000; -102.000
406.120; -145.100; -801.000; -887.000
406.247; -100.425; -323.000; -342.000
406.374;   10.400;  540.000;  629.000
406.501; -143.400; -632.000; -702.000
406.628; -109.975; -621.000; -589.000
406.755; -136.175; -803.000; -620.000
406.882;  -96.850; -228.000; -277.000
407.009; -134.850; -719.000; -628.000
407.136; -103.725; -480.000; -401.000
407.263; -168.725; -939.000; -829.000
407.390; -136.325; -692.000; -614.000
407.517; -202.350;-1139.000;-1187.000
407.644; -102.200; -332.000; -256.000
407.771; -163.375; -249.000; -287.000
407.898;  -40.000;  168.000;  328.000
408.025; -111.600; -421.000; -313.000
408.151;  -41.125;   82.000;  153.000
408.278; -103.500; -267.000; -216.000
408.405; -164.550; -931.000; -899.000
408.532; -128.850; -549.000; -542.000
408.659; -147.225; -677.000; -648.000
408.785; -215.925;-1298.000;-1170.000
408.912;  -88.050; -412.000; -296.000
409.039; -127.225; -610.000; -686.000
409.166; -133.550; -591.000; -555.000
409.292; -121.850; -571.000; -534.000
409.419; -133.100; -665.000; -649.000
409.546; -100.225; -431.000; -192.000
409.672; -131.350; -713.000; -545.000
409.799;  -68.375;  -36.000;   34.000
409.926;  -81.300; -180.000; -179.000
410.052; -204.825;-1127.000;-1091.000
410.179; -113.675; -368.000; -392.000
410.305; -112.325; -375.000; -493.000
410.432;  -79.325; -220.000; -333.000
410.558; -115.550; -305.000; -380.000
410.685; -122.050; -688.000; -431.000
410.812; -120.300; -409.000; -588.000
410.938; -163.450; -964.000; -808.000
411.065; -127.600; -671.000; -645.000
411.191;  -95.900; -189.000; -174.000
411.317; -151.175; -823.000; -742.000
411.444;  -94.775; -317.000; -246.000
411.570;  -83.125; -339.000; -294.000
411.697; -129.000; -758.000; -752.000
411.823; -191.450; -989.000; -999.000
411.949;  -72.975;  -56.000;   17.000
412.076; -129.150; -539.000; -519.000
412.202; -146.025; -758.000; -757.000
412.329; -154.575; -798.000; -752.000
412.455; -146.750; -821.000; -657.000
412.581;  -50.625;  -15.000;  172.000
412.707; -124.725; -540.000; -457.000
412.834;  -31.675;  156.000;  219.000
412.960; -152.500; -785.000; -784.000
413.086; -150.275; -743.000; -701.000
413.212;   10.650;  604.000;  578.000
413.339; -162.225; -685.000; -701.000
413.465; -107.425; -364.000; -310.000
413.591; -153.475; -757.000; -474.000
413.717;  -78.250; -358.000; -366.000
413.843; -163.200; -839.000; -861.000
413.969;  -97.450;  -47.000; -292.000
414.096; -134.525; -679.000; -679.000
414.222;  -50.675;  -33.000;   85.000
414.348; -133.525; -652.000; -385.000
414.474;  -59.975;   38.000;  -52.000
414.600;  -65.825; -126.000; -144.000
414.726;  -62.600;  -96.000;  -55.000
414.852; -109.450; -365.000; -342.000
414.978;  -56.875;  104.000;  -18.000
415.104;  -68.850;   38.000;   80.000
415.230;  -94.750; -329.000; -330.000
415.356; -129.550; -409.000; -514.000
415.482;  -65.050;   13.000;  -35.000
415.608;  -85.575; -247.000; -323.000
415.734;  -53.075;   67.000;   38.000
415.860; -146.700; -875.000; -767.000
415.986; -137.375; -685.000; -607.000
416.111; -146.125; -798.000; -652.000
416.237; -109.750; -424.000; -571.000
416.363; -153.475; -765.000; -733.000
416.489;  -88.925; -324.000; -251.000
416.615; -162.275; -707.000; -742.000
416.741; -136.275; -677.000; -784.000
416.866; -145.375; -673.000; -736.000
416.992; -162.175; -801.000; -818.000
417.118;  -88.225;  -41.000;  -80.000
417.244; -147.650; -798.000; -531.000
417.369; -150.100; -801.000; -612.000
417.495; -108.375; -325.000; -254.000
417.621; -181.275;-1015.000; -803.000
417.746; -123.600; -579.000; -572.000
417.872;  -64.850; -254.000; -144.000
417.998; -116.400; -515.000; -530.000
418.123; -177.775;-1073.000; -845.000
418.249; -130.500; -512.000; -601.000
418.374; -165.275; -916.000; -824.000
418.500; -118.075; -383.000; -482.000
418.626;  -42.350;   70.000;  -59.000
418.751; -108.400; -549.000; -448.000
418.877; -141.450; -637.000; -643.000
419.002; -134.600; -688.000; -560.000
419.128; -164.050; -930.000; -721.000
419.253; -172.200; -967.000; -837.000
419.379; -143.875; -391.000; -338.000
419.504;  -24.700;  325.000;  415.000
419.629;  -94.200; -393.000; -212.000
419.755;  -79.450; -317.000; -254.000
419.880;  -83.200;  -98.000;   67.000
420.006;  -92.775; -280.000; -221.000
420.131; -138.175; -662.000; -775.000
420.256;  -82.450; -315.000; -316.000
420.382; -139.025; -665.000; -687.000
420.507; -136.000; -649.000; -778.000
420.632; -107.775; -337.000; -339.000
420.758;  -77.975; -251.000; -425.000
420.883; -150.875; -876.000; -672.000
421.008; -155.250; -775.000; -619.000
421.133; -130.875; -509.000; -467.000
421.259;  -87.200; -325.000; -259.000
421.384; -145.950; -834.000; -693.000
421.509; -161.775;-1052.000; -862.000
421.634; -183.625; -936.000; -820.000
421.759;  -91.700; -359.000; -327.000
421.885; -133.200; -717.000; -656.000
422.010; -118.700; -673.000; -542.000
422.135; -168.625; -695.000; -727.000
422.260;  -18.800;  340.000;  280.000
422.385;  -70.000;   12.000;  -98.000
422.510;  -46.875;  151.000;  -26.000
422.635;  -64.150;  -87.000;  -43.000
422.760; -128.125; -766.000; -791.000
422.885;  -62.825;  -57.000;  -80.000
423.010;  -74.650; -112.000; -169.000
423.135; -139.450; -481.000; -561.000
423.260;  -81.325; -150.000; -245.000
423.385;  -25.425;  476.000;  222.000
423.510;  -45.650;   71.000;  -22.000
423.635;  -54.775;  133.000;   45.000
423.760;  -30.425;  383.000;  328.000
423.885;  -26.450;  336.000;  391.000
424.010;  -73.325;  -68.000;  -13.000
424.135;  -72.650;    5.000;  -33.000
424.259; -124.650; -654.000; -457.000
424.384; -105.925; -279.000; -272.000
424.509;  -95.600; -260.000; -186.000
424.634; -154.625; -761.000; -623.000
424.759; -122.875; -688.000; -544.000
424.883; -128.775; -506.000; -527.000
425.008; -121.450; -502.000; -410.000
425.133; -152.150; -679.000; -653.000
425.258; -119.450; -517.000; -381.000
425.382; -140.950; -867.000; -774.000
425.507; -123.925; -487.000; -543.000
425.632; -160.700; -802.000; -663.000
425.756;  -92.800; -256.000; -146.000
425.881; -157.375; -831.000; -857.000
426.006; -107.050; -604.000; -355.000
426.130; -151.625; -696.000; -508.000
426.255; -125.550; -611.000; -491.000
426.379;  -84.650; -189.000; -577.000
426.504;   16.000;  660.000;  544.000
426.629; -141.850; -519.000; -466.000
426.753;  -58.600;   64.000;  -46.000
426.878;  -87.925; -252.000; -288.000
427.002; -121.300; -651.000; -668.000
427.127;  -84.900;  -35.000; -158.000
427.251;   -6.100;  372.000;  401.000
427.375;  -87.525; -191.000; -173.000
427.500; -139.550; -616.000; -610.000
427.624; -111.275; -234.000; -400.000
427.749;  -94.375; -216.000; -225.000
427.873; -119.175; -499.000; -412.000
427.997;  -93.025; -222.000; -230.000
428.122;   17.900;  795.000;  703.000
428.246;    6.575;  433.000;  434.000
428.371; -168.550; -869.000; -773.000
428.495; -139.000; -624.000; -646.000
428.619;  -81.750; -186.000; -117.000
428.743;  -54.500;   65.000;  132.000
428.868; -156.225; -732.000; -643.000
428.992; -105.225; -219.000; -326.000
429.116; -111.250; -329.000; -357.000
429.240;  -16.425;  419.000;  426.000
429.365; -125.200; -454.000; -574.000
429.489; -121.750; -638.000; -647.000
429.613;  -85.175; -236.000; -177.000
429.737; -126.600; -563.000; -432.000
429.861;  -96.150; -247.000; -133.000
429.985; -115.725; -425.000; -305.000
430.109; -174.475; -770.000; -908.000
430.234;  -41.350;   76.000;  -50.000
430.358;  -88.225; -250.000; -160.000
430.482; -147.000; -672.000; -564.000
430.606; -121.725; -655.000; -375.000
430.730; -134.450; -437.000; -388.000
430.854; -156.075; -909.000; -835.000
430.978; -159.500; -795.000; -764.000
431.102; -134.725; -499.000; -422.000
431.226; -172.100; -874.000; -815.000
431.350;  -16.125;  345.000;  422.000
431.474; -123.350; -661.000; -373.000
431.597; -181.425;-1060.000; -848.000
431.721; -108.025; -276.000; -267.000
431.845; -151.200; -704.000; -472.000
431.969; -107.750; -304.000; -349.000
432.093; -118.975; -395.000; -317.000
432.217;  -46.050;   32.000;   82.000
432.341; -120.150; -523.000; -518.000
432.464;  -77.650;   96.000;   40.000
432.588; -127.250; -401.000; -329.000
432.712;  -63.650;  -52.000;  -52.000
432.836;  -28.575;  213.000;  263.000
432.959;  -99.850; -372.000; -311.000
433.083;  -70.150;   11.000;    2.000
433.207;   -9.975;  285.000;  930.000
433.330;  -89.375; -391.000; -200.000
433.454; -135.775; -654.000; -638.000
433.578;    2.375;  583.000;  278.000
433.701; -147.375; -623.000; -675.000
433.825; -111.025; -292.000; -299.000
433.949;  -72.825;   28.000;  -72.000
434.072;  -97.075; -410.000; -323.000
434.196;  -76.075; -309.000; -117.000
434.319; 3244.575;25482.000;25124.000
434.443; -139.450; -656.000; -603.000
434.566;  -43.600;  281.000;   62.000
434.690; -132.925; -637.000; -383.000
434.813;  -90.500; -251.000; -173.000
434.937; -144.100; -569.000; -696.000
435.060; -114.650; -423.000; -332.000
435.184; -104.375; -492.000; -217.000
435.307;  -71.450;  159.000;  102.000
435.431;  -61.450;  -40.000;   24.000
435.554;  -88.575; -399.000; -240.000
435.677; -100.500; -350.000; -258.000
435.801;  -64.700;  -25.000;   49.000
435.924;  -75.500;    1.000;  -67.000
436.048; -165.625;-1019.000; -732.000
436.171; -107.875; -240.000;  -66.000
436.294;  -98.500; -248.000; -229.000
436.417; -179.100; -963.000; -849.000
436.541; -158.950; -814.000; -840.000
436.664;  -71.300; -242.000; -316.000
436.787;  -61.300;   13.000;  113.000
436.910; -152.450; -792.000; -422.000
437.034;  -51.400;  142.000;  143.000
437.157;  -53.075;  -11.000;    0.000
437.280; -109.175; -392.000; -292.000
437.403; -176.900; -982.000; -869.000
437.526; -177.100; -903.000; -865.000
437.649; -111.700; -505.000; -332.000
437.772; -151.475; -692.000; -540.000
437.896;  -14.775;  700.000;  544.000
438.019; -151.450; -758.000; -503.000
438.142; -133.350; -596.000; -506.000
438.265; -157.600; -639.000; -670.000
438.388; -119.600; -520.000; -410.000
438.511; -138.500; -597.000; -394.000
438.634; -111.075; -247.000; -125.000
438.757; -146.325; -693.000; -619.000
438.880;  -72.575;  -34.000;  -57.000
439.003; -112.300; -417.000; -437.000
439.126;  -82.975; -287.000; -167.000
439.248;  -92.125;  -98.000; -139.000
439.371;  -66.150;    9.000;  -53.000
439.494;   11.750;  510.000;  439.000
439.617;  -63.700;   65.000;  -88.000
439.740; -189.700; -968.000; -816.000
439.863; -153.525; -755.000; -595.000
439.986; -137.275; -476.000; -431.000
440.108;  -92.850; -161.000; -112.000
440.231; -185.625; -950.000; -836.000
440.354;  -80.975;  -64.000; -150.000
440.477; -135.825; -566.000; -542.000
440.599; -114.425; -200.000; -225.000
440.722; -143.350; -709.000; -586.000
440.845;   35.825;  751.000;  928.000
440.968; -117.425; -415.000; -311.000
441.090;  -89.300; -199.000;  -33.000
441.213; -185.150;-1021.000; -825.000
441.336;  -69.775; -159.000;   -5.000
441.458; -116.975; -549.000; -396.000
441.581; -148.975; -628.000; -629.000
441.703;  -98.025; -152.000;   13.000
441.826; -134.200; -557.000; -400.000
441.948;  -64.850;   56.000;   51.000
442.071;    4.450;  555.000;  424.000
442.193; -136.125; -531.000; -485.000
442.316;  -42.625;  152.000;   97.000
442.438; -105.050; -233.000;  -10.000
442.561;  -49.625;  272.000;  262.000
442.683; -150.875; -809.000; -522.000
442.806;  -72.700;   -8.000;   74.000
442.928; -172.650; -859.000; -604.000
443.051; -128.700; -577.000; -373.000
443.173; -116.425; -341.000; -339.000
443.295; -115.300; -263.000; -371.000
443.418; -103.775; -321.000;  -29.000
443.540;  -69.750; -106.000;   -4.000
443.662; -138.250; -563.000; -465.000
443.785;  -26.950;  335.000;  199.000
443.907; -106.875; -362.000; -208.000
444.029; -138.750; -767.000; -494.000
444.152; -171.425; -644.000; -554.000
444.274;  -57.925;  -18.000;  -24.000
444.396; -141.650; -461.000; -221.000
444.518; -137.975; -691.000; -454.000
444.640; -120.775; -268.000; -111.000
444.763;  -37.675;  388.000;  249.000
444.885; -124.325; -432.000; -392.000
445.007;  -52.225;   35.000;   86.000
445.129; -123.700; -610.000; -515.000
445.251; -124.150; -372.000; -439.000
445.373; -145.200; -537.000; -386.000
445.495;  -38.300;  242.000;  350.000
445.617;   14.175;  853.000;  753.000
445.739;  -99.775; -215.000;  -97.000
445.861;  -88.925; -245.000; -112.000
445.984;  -98.250; -267.000; -101.000
446.105; -113.425; -418.000; -251.000
446.227;  -79.625; -176.000;  -19.000
446.349; -143.000; -358.000; -249.000
446.471; -134.925; -615.000; -448.000
446.593; -113.525; -316.000;   19.000
446.715;  -72.250;  -67.000;   41.000
446.837;   18.875;  697.000;  832.000
446.959; -125.450; -457.000; -478.000
447.081; -154.400; -628.000; -518.000
447.203;   50.350;  862.000;  834.000
447.325;  -99.500; -270.000;   42.000
447.446;  -30.675;  286.000;  530.000
447.568; -177.800; -921.000; -803.000
447.690; -105.400; -236.000; -245.000
447.812; -153.625; -798.000; -519.000
447.933;  -69.175;  155.000;  127.000
448.055; -105.525; -306.000; -261.000
448.177;  -59.700;   31.000;   79.000
448.299; -194.125; -935.000; -727.000
448.420;  -47.175;  -25.000;  159.000
448.542;  -81.975;   -3.000;   33.000
448.664;  -47.075;  109.000;  322.000
448.785;  -57.650;  265.000;   83.000
448.907; -127.250; -614.000; -353.000
449.028; -163.600; -771.000; -471.000
449.150;   -1.600;  492.000;  589.000
449.272; -189.700;-1044.000; -913.000
449.393;   -2.850;  612.000;  694.000
449.515; -171.200; -634.000; -581.000
449.636;  -95.375; -264.000; -155.000
449.758;   -6.400;  763.000;  622.000
449.879; -119.675; -498.000; -396.000
450.001;  -98.150; -149.000;  -49.000
450.122;  -63.375;  -95.000;  162.000
450.244;  -66.600;   37.000;  364.000
450.365; -128.650; -495.000; -301.000
450.486;  -83.450;   80.000;  268.000
450.608;  -19.025;  393.000;  326.000
450.729;  -10.325;  578.000;  645.000
450.850; -132.325; -574.000; -466.000
450.972; -158.400; -552.000; -389.000
451.093;  -32.750;  190.000;  588.000
451.214; -126.325; -516.000; -337.000
451.336;   21.500;  773.000;  579.000
451.457;  -36.775;  264.000;  393.000
451.578;  -83.175; -118.000;  -74.000
451.699; -134.375; -546.000; -540.000
451.821;  -97.900; -284.000;  -50.000
451.942;  -51.300;  278.000;  285.000
452.063;  -29.100;  228.000;  419.000
452.184; -100.400;  -54.000;  -49.000
452.305;  -50.175;  103.000;  170.000
452.427; -133.950; -549.000; -301.000
452.548;  -81.175;   23.000;   79.000
452.669; -113.575; -257.000;  -89.000
452.790;  -83.925;    3.000;  -18.000
452.911;  -53.975;  195.000;  259.000
453.032;  -97.000; -289.000;  -60.000
453.153;  -81.925;  -29.000;   81.000
453.274;   33.975;  737.000;  868.000
453.395;  -84.125;  -51.000;  175.000
453.516;   64.625; 1317.000; 1388.000
453.637; -103.175; -205.000; -150.000
453.758;  -72.625;   15.000;   69.000
453.879; -134.850; -462.000; -250.000
454.000;   43.050; 1086.000;  948.000
454.121; -147.525; -554.000; -326.000
454.242; -143.500; -599.000; -383.000
454.362;  -76.425;  -99.000;  114.000
454.483; -105.675; -309.000; -229.000
454.604;  -18.625;  512.000;  580.000
454.725; -147.625; -627.000; -555.000
454.846; -135.450; -474.000; -406.000
454.967;  -44.325;  230.000;  539.000
455.087;  -55.300;  179.000;  153.000
455.208;   -5.275;  554.000;  856.000
455.329;  -78.550;  -22.000;   82.000
455.450;  -11.775;  473.000;  633.000
455.570; -102.000; -234.000; -211.000
455.691;  -74.975;  201.000;  407.000
455.812; -116.800; -270.000;  -92.000
455.932;  -61.000;  107.000;  -97.000
456.053;  -76.625;   36.000;   24.000
456.173; -119.850; -433.000; -355.000
456.294; -130.100; -476.000; -303.000
456.415;  -64.450;  -73.000;   70.000
456.535;  -39.125;  297.000;  273.000
456.656;  -49.925;  132.000;  240.000
456.776;  -83.300;    3.000;  298.000
456.897;  -25.950;  308.000;  513.000
457.017;  -94.525; -153.000;   -3.000
457.138; -126.400; -402.000; -249.000
457.258;  -61.225;  263.000;  224.000
457.379;  -19.700;  509.000;  521.000
457.499;  -42.425;  443.000;  432.000
457.620; -133.950; -407.000; -231.000
457.740;  -93.975; -132.000;  -11.000
457.860;  -79.325;   87.000;   44.000
457.981;  -92.025;  132.000;  124.000
458.101;  -96.375;  -89.000;   40.000
458.221;  -25.575;  336.000;  402.000
458.342;  -76.525;   -4.000;  -37.000
458.462;  -38.025;  617.000;  352.000
458.582; -105.850; -302.000; -294.000
458.703;  -68.950;  303.000;  154.000
458.823;  -67.500;   22.000;  163.000
458.943;  -37.500;  341.000;  467.000
459.063;  -68.575; 1124.000;  192.000
459.183;  -64.125;  328.000;  313.000
459.304;  -26.075;  315.000;  517.000
459.424; -101.150; -246.000;  -89.000
459.544;  -20.475;  388.000;  764.000
459.664;  -20.450;  499.000;  506.000
459.784;   24.750; 1004.000; 1175.000
459.904;    3.575;  867.000;  744.000
460.024;   20.675;  867.000;  684.000
460.144;  -34.625;  449.000;  554.000
460.264;  -30.275;  515.000;  327.000
460.385;  -96.175; -145.000; -119.000
460.505;   19.850;  905.000;  858.000
460.625; -108.075;  -17.000;  -68.000
460.745;  -35.650;  396.000;  541.000
460.864;  -46.150;  153.000;  469.000
460.984;  -14.850;  499.000;  573.000
461.104;  110.550; 1656.000; 1775.000
461.224;    1.175;  657.000;  650.000
461.344;  -39.325;  431.000;  360.000
461.464;  -35.125;  258.000;  513.000
461.584;  -39.300;  283.000;  466.000
461.704;  -62.575;   58.000;  108.000
461.824;  -66.725;  238.000;  259.000
461.943;  -55.175;  191.000;  130.000
462.063;  -76.775;    2.000;  324.000
462.183;   -3.700;  639.000;  717.000
462.303;   68.025; 1678.000; 1230.000
462.422;    9.400;  781.000;  840.000
462.542;  -59.700;  271.000;  391.000
462.662;  -32.925;  353.000;  380.000
462.782;   -2.575;  833.000;  572.000
462.901;  -21.800;  545.000;  717.000
463.021;  105.200; 1702.000; 1638.000
463.141;  -39.925;  337.000;  770.000
463.260;  -30.200;  614.000;  474.000
463.380;   -5.925;  902.000;  884.000
463.499;  -45.050;  342.000;  332.000
463.619;  -49.125;  581.000;  559.000
463.738;   70.350; 1644.000;  903.000
463.858;   -4.475;  657.000;  811.000
463.978;  -47.125;  542.000;  396.000
464.097;   39.425;  921.000; 1114.000
464.217;   47.575; 1196.000; 1143.000
464.336;   53.600; 1068.000; 1130.000
464.455;  -53.100;  328.000;  659.000
464.575;   -2.125;  597.000;  602.000
464.694;   37.750; 1204.000; 1179.000
464.814;   33.225; 1190.000; 1138.000
464.933;   34.300; 1095.000; 1027.000
465.052;   57.525; 1412.000; 1054.000
465.172;    6.750;  922.000;  799.000
465.291;   54.800; 1376.000; 1320.000
465.410;   11.775;  462.000;  735.000
465.530;   55.550; 1355.000; 1310.000
465.649;   39.225; 1209.000; 1273.000
465.768;   89.300; 1673.000; 1508.000
465.888;   32.650;  941.000; 1174.000
466.007;   80.325; 1335.000; 1440.000
466.126;   -6.675;  721.000;  641.000
466.245;   32.125; 1176.000; 1187.000
466.364;   -0.025;  950.000; 1060.000
466.484;   23.675; 1024.000; 1213.000
466.603;   29.600; 1101.000; 1222.000
466.722;   84.675; 1490.000; 1769.000
466.841;   56.200; 1151.000; 1401.000
466.960;   34.075; 1069.000;  972.000
467.079;  123.225; 1971.000; 1786.000
467.198;   47.100; 1238.000; 1181.000
467.317;   66.800; 1768.000; 1162.000
467.436;   61.825; 1709.000; 1261.000
467.555;  115.425; 1796.000; 1746.000
467.674;   62.875; 1227.000; 1329.000
467.793;   42.925; 1376.000; 1374.000
467.912;   71.550; 1658.000; 1539.000
468.031;  114.100; 2038.000; 1930.000
468.150;  108.300; 1842.000; 1837.000
468.269;  161.325; 2313.000; 2090.000
468.388;  158.175; 2168.000; 2339.000
468.507;  238.400; 2884.000; 2903.000
468.626;  223.150; 2555.000; 2541.000
468.744;  138.325; 2018.000; 2174.000
468.863;  184.425; 2312.000; 2523.000
468.982;   84.600; 1503.000; 1555.000
469.101;  199.100; 2788.000; 2692.000
469.220;  143.675; 2333.000; 2176.000
469.338;  228.150; 2935.000; 3051.000
469.457;  184.975; 2719.000; 2545.000
469.576;  332.375; 3953.000; 3784.000
469.695;  218.200; 2877.000; 3066.000
469.813;  378.550; 4148.000; 4192.000
469.932;  371.775; 4255.000; 4485.000
470.051;  338.750; 4075.000; 4161.000
470.169;  399.925; 4470.000; 4338.000
470.288;  413.375; 4700.000; 4809.000
470.406;  454.050; 5059.000; 5194.000
470.525;  538.525; 6101.000; 5787.000
470.644;  605.375; 6847.000; 6794.000
470.762;  770.025; 8397.000; 7873.000
470.881;  826.425; 8651.000; 8464.000
470.999;  923.375; 9685.000; 9151.000
471.118; 1041.250;11174.000;10711.000

