
Integration time [ms]: 100.000
Averaging Nr. [scans]: 40
Smoothing Nr. [pixels]: 0
Data measured with spectrometer [name]: 2101012U2
Wave   ;Sample   ;Dark     ;Reference
[nm]   ;[counts] ;[counts] ;[counts] 

197.733;   68.625;  516.000;  404.000
197.879;  -73.550; -610.000; -634.000
198.025;  -33.200; -475.000; -420.000
198.171;  -79.675; -602.000; -612.000
198.317;  -18.375; -401.000; -316.000
198.463;  -55.600; -655.000; -404.000
198.609;   18.875;  181.000; -137.000
198.755;  -70.750; -644.000; -410.000
198.901;  -60.375; -505.000; -424.000
199.047;  -58.850; -615.000; -488.000
199.193;  -40.075; -230.000; -468.000
199.339;  -44.900; -222.000; -369.000
199.485;   51.350;  330.000;  271.000
199.631;   10.450;  227.000;  310.000
199.777;  -46.000; -466.000; -398.000
199.923;  -63.700; -610.000; -424.000
200.069;    5.250; -141.000;  -58.000
200.215;   51.250;  128.000;  453.000
200.361;   47.850;  243.000;  477.000
200.507;  -59.500; -600.000; -373.000
200.653;  -28.600; -371.000; -194.000
200.798;  -22.500; -215.000; -125.000
200.944;   -8.300; -146.000;  -41.000
201.090;   21.575;   61.000;  222.000
201.236;  -11.375; -116.000; -158.000
201.382;  115.900;  874.000;  903.000
201.528;   -0.225;  -58.000;  -48.000
201.674;  -41.200; -386.000; -293.000
201.819;  -43.750; -540.000; -439.000
201.965;  -82.125; -699.000; -447.000
202.111;  -20.625; -273.000; -226.000
202.257;  -37.075; -250.000; -238.000
202.402;    3.475;   13.000;  -36.000
202.548;  -30.825; -169.000; -116.000
202.694;   72.850;  410.000; -183.000
202.840;  -79.525; -603.000; -531.000
202.985;  -56.700; -681.000; -639.000
203.131; -108.650; -832.000; -666.000
203.277;  -17.400; -199.000; -262.000
203.423;  -59.000; -434.000; -520.000
203.568;  -37.750; -462.000; -237.000
203.714;  -50.300; -535.000; -542.000
203.860;  -69.550; -682.000; -641.000
204.005;   13.400;  112.000;  167.000
204.151;   76.650;  561.000;  556.000
204.296;  -46.575; -354.000; -221.000
204.442;  -59.075; -600.000; -547.000
204.588;  -77.450; -592.000; -579.000
204.733;   24.900;  178.000;  168.000
204.879; -129.525;-1018.000; -822.000
205.025;   13.050;  -99.000;  126.000
205.170;   -5.150;  -17.000;   94.000
205.316;   87.475;  438.000;  661.000
205.461;  -67.575; -698.000; -554.000
205.607;   89.300;  609.000;  665.000
205.752;  -77.500; -626.000; -551.000
205.898;  -54.075; -501.000; -391.000
206.043;  -47.350; -578.000; -506.000
206.189;  -40.825; -243.000; -285.000
206.334;   68.150;  554.000;  606.000
206.480;   85.975;  409.000;  239.000
206.625;  -67.650; -529.000; -552.000
206.771;  -23.100; -451.000; -373.000
206.916;  -30.400; -210.000; -537.000
207.062;  -69.550; -545.000; -591.000
207.207;  -55.350; -546.000; -443.000
207.353;   38.700;  185.000;  460.000
207.498;   21.925;  196.000;   85.000
207.643;  -43.425; -501.000; -370.000
207.789; -124.500;-1069.000; -910.000
207.934;  -81.475; -665.000; -713.000
208.080;  -23.100; -154.000;   66.000
208.225;   -9.150;  -22.000;  -57.000
208.370;  -88.950; -727.000; -619.000
208.516;  -71.900; -741.000; -487.000
208.661;  -15.375; -127.000;  -69.000
208.806;  -13.550; -165.000; -171.000
208.952; -118.375;-1044.000; -731.000
209.097;   70.100;  378.000;  349.000
209.242;  -47.700; -307.000; -382.000
209.387;   83.225;  392.000;  350.000
209.533;  -51.375; -321.000; -350.000
209.678;   79.275;  472.000;  543.000
209.823;  -52.325; -408.000; -310.000
209.969;  -91.550; -860.000; -757.000
210.114; -104.425; -907.000; -719.000
210.259; -101.350; -939.000; -889.000
210.404;  -10.100; -171.000;  103.000
210.549;   16.300;  108.000;    3.000
210.695;  -25.425;   -3.000;  -95.000
210.840;   30.025;   94.000;   67.000
210.985;  -71.200; -484.000; -303.000
211.130;   66.350;  268.000;  406.000
211.275;    4.625;  207.000;  199.000
211.420;  -50.750; -300.000; -289.000
211.566;  -66.175; -536.000; -489.000
211.711;   29.850;  218.000;  157.000
211.856;  -58.325; -545.000; -519.000
212.001;   13.200;  151.000;   44.000
212.146;   23.025;  153.000;   49.000
212.291;  -12.575; -210.000; -186.000
212.436;  -33.150; -280.000;   -6.000
212.581;  -79.850; -685.000; -653.000
212.726;  -73.625; -487.000; -538.000
212.871;  -53.225; -552.000; -217.000
213.016; -140.300;-1172.000;-1029.000
213.161;   64.625;  406.000;  291.000
213.306;  -71.650; -435.000; -577.000
213.451;  -93.625; -778.000; -689.000
213.596;  -52.450; -455.000; -347.000
213.741;  -51.225; -448.000; -538.000
213.886;  -82.775; -498.000; -517.000
214.031;  -29.775; -294.000; -124.000
214.176;  -48.700; -408.000; -341.000
214.321;  -15.325; -296.000; -157.000
214.466;  -31.850; -163.000;  -43.000
214.611;   -9.500;  -61.000;  -10.000
214.756; -112.125; -948.000; -858.000
214.901;  -18.425; -388.000; -226.000
215.046; -117.725; -797.000; -825.000
215.191;    6.125;  128.000;   35.000
215.336;   -6.875; -157.000;  -19.000
215.480;  -71.800; -684.000; -505.000
215.625;   -9.200; -175.000;  -19.000
215.770;  -72.575; -757.000; -662.000
215.915;   -4.700;   -5.000;  -97.000
216.060;    1.375; -113.000;  -21.000
216.205; -110.700; -731.000; -779.000
216.349;  -69.950; -470.000; -533.000
216.494; -118.175; -939.000; -867.000
216.639; -103.325; -823.000; -888.000
216.784;  -95.575; -577.000; -525.000
216.929;   44.625;  392.000;  281.000
217.073;  -21.200; -244.000;  -31.000
217.218;   11.625;   78.000;  -47.000
217.363;  -67.275; -656.000; -618.000
217.507;  -64.200; -623.000; -588.000
217.652; -126.775; -845.000; -874.000
217.797;  -77.600; -708.000; -659.000
217.942; -112.150; -856.000; -720.000
218.086;   73.425;  608.000;  539.000
218.231;  -11.375; -174.000;  -26.000
218.376;  -36.950; -337.000; -229.000
218.520;    6.850;  -41.000;   96.000
218.665;  -25.325; -338.000; -204.000
218.810;  -46.825; -275.000; -233.000
218.954;    8.350;  201.000;   35.000
219.099;  -98.450; -713.000; -963.000
219.243;  -59.775; -589.000; -554.000
219.388;  -41.675; -264.000; -136.000
219.532;   -6.950; -116.000; -116.000
219.677;  -80.750; -564.000; -521.000
219.822;   12.325;   33.000;   89.000
219.966;    0.425;   17.000;  -99.000
220.111;  -35.500; -328.000;  -40.000
220.255;  -89.075; -797.000; -750.000
220.400;  -18.750; -180.000; -146.000
220.544;  -69.550; -516.000; -450.000
220.689;  -38.250; -422.000; -451.000
220.833;  -22.300; -123.000;  -58.000
220.978;  -38.475; -393.000; -563.000
221.122;   30.250;  319.000;  307.000
221.267; -109.050; -906.000; -837.000
221.411;  -58.425; -478.000; -394.000
221.555;   -6.450; -104.000;  -23.000
221.700;  -51.425; -329.000; -222.000
221.844;   30.650;  255.000;  272.000
221.989;  -50.925; -328.000; -311.000
222.133;  -27.350; -289.000; -307.000
222.277;  -11.725;    5.000;   78.000
222.422;   13.400;  227.000;  113.000
222.566;  -37.425; -381.000; -214.000
222.711;  -54.350; -414.000; -479.000
222.855;  -82.325; -643.000; -586.000
222.999;  -63.950; -642.000; -717.000
223.144;  -28.375; -195.000; -194.000
223.288;   59.350;  423.000;  251.000
223.432;   25.050;  184.000;  230.000
223.576;   12.475;  152.000;  -21.000
223.721;   35.600;  364.000;  273.000
223.865;  -61.575; -472.000; -475.000
224.009;  249.150; 1673.000; 1631.000
224.153;  -80.675; -660.000; -671.000
224.298;  -73.050; -531.000; -489.000
224.442;   -1.450;  -74.000;  -33.000
224.586;  -15.550; -169.000; -106.000
224.730;  -85.400; -858.000; -670.000
224.875; -107.675; -739.000; -688.000
225.019;   21.525;  102.000;  188.000
225.163;   46.975;  208.000;  341.000
225.307;   18.175;   97.000;  -91.000
225.451;   29.675;  360.000;  481.000
225.595;   40.675;  264.000;  176.000
225.739;  -15.125; -170.000;  -94.000
225.884;    6.125;   86.000;    5.000
226.028;  -97.425; -760.000; -626.000
226.172;  -29.025; -260.000; -273.000
226.316; -132.125; -941.000; -902.000
226.460;  -70.025; -645.000; -493.000
226.604;  -56.850; -406.000; -400.000
226.748;  -90.100; -836.000; -733.000
226.892;  -32.200; -227.000; -181.000
227.036;  -35.975; -537.000; -447.000
227.180;  -49.575; -551.000; -375.000
227.324;  -54.425; -561.000; -580.000
227.468; -114.125; -819.000; -717.000
227.612;   15.400;  242.000;  -28.000
227.756; -102.575; -845.000; -698.000
227.900;   44.200;  342.000;  441.000
228.044;  -56.275; -509.000; -290.000
228.188;   52.675;  448.000;  568.000
228.332;  -85.375; -546.000; -472.000
228.476;  -22.050; -223.000; -149.000
228.620;  -34.350; -210.000; -150.000
228.764;   63.500;  431.000;  349.000
228.908;  -18.850; -155.000;   30.000
229.052;  -56.100; -615.000; -528.000
229.195;  -22.200; -172.000;   13.000
229.339;  -13.100; -235.000; -305.000
229.483;  -44.950;    5.000; -162.000
229.627;    3.800; -156.000;  139.000
229.771;  -56.125; -218.000; -294.000
229.915;   10.475;  230.000;   79.000
230.059;  -93.275; -648.000; -663.000
230.202;  -18.025; -370.000; -317.000
230.346;  -14.675; -107.000;  107.000
230.490;  -55.975; -489.000; -521.000
230.634; -103.900; -736.000; -553.000
230.777;   81.925;  478.000;  509.000
230.921;  -49.950; -450.000; -359.000
231.065;  -35.325; -246.000; -286.000
231.209;   20.825;  261.000;  265.000
231.352;   27.550;   54.000;   40.000
231.496;   11.025;  568.000;  188.000
231.640;  -82.225; -693.000; -621.000
231.783;   54.375;  546.000;  525.000
231.927;  -28.825; -294.000; -365.000
232.071; -121.000; -962.000; -736.000
232.214; -102.800; -980.000; -764.000
232.358; -103.300; -683.000; -599.000
232.502;    8.850;  -19.000;    7.000
232.645; -125.950;-1090.000; -927.000
232.789;  -16.500; -257.000; -218.000
232.933;  -48.525; -407.000; -224.000
233.076; -127.375;-1038.000; -897.000
233.220;  -99.475; -752.000; -777.000
233.363;  -80.750; -669.000; -477.000
233.507;   50.400;  371.000;  129.000
233.650;  -87.850; -764.000; -834.000
233.794;   29.425;  438.000;  461.000
233.938;  -61.150; -530.000; -362.000
234.081;  -18.925;  -93.000;   31.000
234.225;  -60.175; -631.000; -539.000
234.368; -105.700; -773.000; -723.000
234.512;  -42.200; -385.000; -299.000
234.655;  -77.750; -582.000; -555.000
234.798;  -66.100; -493.000; -466.000
234.942; -120.325; -884.000;-1002.000
235.085;  -68.750; -651.000; -443.000
235.229;  -68.675; -405.000; -410.000
235.372;  -42.775; -247.000; -191.000
235.516;  -61.375; -397.000; -321.000
235.659;   22.250;   92.000;  121.000
235.802;   -8.650;  -38.000;  -22.000
235.946;   37.500;  335.000;  215.000
236.089;   17.175;  126.000;  250.000
236.233;   46.125;  275.000;  298.000
236.376;  -44.525; -235.000; -378.000
236.519;  -52.925; -297.000; -319.000
236.663;  -28.075; -215.000; -117.000
236.806; -132.675;-1029.000; -999.000
236.949;   53.725;  543.000;  431.000
237.092;   52.800;  412.000;  391.000
237.236;  -81.075; -589.000; -502.000
237.379;   62.700;  352.000;  428.000
237.522; -108.700; -879.000; -768.000
237.666;   -6.025; -271.000;   18.000
237.809; -115.125; -851.000; -823.000
237.952;   29.750;  469.000;  271.000
238.095;  -65.575; -447.000; -442.000
238.238;   72.500;  688.000;  700.000
238.382;  -16.525;  166.000;  103.000
238.525;  -64.050; -598.000; -511.000
238.668; -145.125;-1060.000; -985.000
238.811;  -79.275; -638.000; -643.000
238.954;  -69.175; -483.000; -334.000
239.097;   94.075;  617.000;  664.000
239.241;   15.675;  394.000;  326.000
239.384;  -24.325; -254.000; -214.000
239.527;  -55.125; -424.000; -224.000
239.670; -127.550; -994.000;-1091.000
239.813; -103.050; -696.000; -658.000
239.956;   78.800;  579.000;  473.000
240.099; -116.950; -778.000; -725.000
240.242;   58.775;  428.000;  432.000
240.385;   39.800;  466.000;  450.000
240.528;  -70.075; -706.000; -473.000
240.671;   13.100;  189.000;  134.000
240.814;  -23.800; -441.000; -158.000
240.957;  -95.325; -767.000; -578.000
241.100;  -82.450; -779.000; -755.000
241.243; -140.250;-1234.000; -893.000
241.386;  -52.825; -508.000; -379.000
241.529;  -96.825; -735.000; -547.000
241.672;  -49.275; -566.000; -495.000
241.815; -109.325; -832.000; -808.000
241.958;  -27.450; -125.000; -182.000
242.101;  -79.925; -545.000; -390.000
242.244;  -41.500; -270.000; -325.000
242.387;  -52.050; -304.000; -246.000
242.530;   58.650;  470.000;  134.000
242.673;  -39.900; -381.000; -309.000
242.815; -106.575; -925.000; -899.000
242.958;  -61.525; -482.000; -381.000
243.101;   12.875;  132.000;  187.000
243.244;  -75.350; -564.000; -521.000
243.387;  -44.975; -313.000; -316.000
243.530;  -90.650; -657.000; -674.000
243.672;   -3.075;   43.000;  -92.000
243.815;  -52.975; -355.000; -283.000
243.958;   -5.100;   98.000;  -26.000
244.101;   -3.150;   59.000;  -16.000
244.243;   -9.000;  -47.000;  101.000
244.386; -104.400; -761.000; -630.000
244.529;  -27.900; -132.000; -139.000
244.672; -141.825;-1154.000; -951.000
244.814;  -95.275; -621.000; -794.000
244.957;  -56.300; -380.000; -304.000
245.100;  -74.625; -489.000; -489.000
245.242;  -48.800; -387.000; -374.000
245.385;   -4.075;  -59.000;  -39.000
245.528; -117.850; -871.000; -705.000
245.670;   88.375;  612.000;  634.000
245.813;  -90.200; -599.000; -547.000
245.956;  -30.575; -324.000; -275.000
246.098;  -81.575; -508.000; -650.000
246.241;   10.575;  194.000;   48.000
246.383;   -1.675; -119.000;  -73.000
246.526;  -72.200; -454.000; -525.000
246.669; -107.975; -889.000; -780.000
246.811;   11.725;  172.000;   -1.000
246.954;  -68.950; -512.000; -426.000
247.096;  -34.000;  -84.000;   -6.000
247.239;  -71.125; -482.000; -445.000
247.381;  -66.525; -647.000; -488.000
247.524;   70.500;  645.000;  679.000
247.666;   -6.850;   58.000;   11.000
247.809; -112.125; -887.000; -691.000
247.951;   -4.875;  -75.000;  138.000
248.094;   21.750;  432.000;  308.000
248.236; -147.100;-1262.000;-1238.000
248.378;   -6.475; -356.000;  -81.000
248.521;  -47.375; -334.000; -337.000
248.663;  -48.025; -236.000; -267.000
248.806;  -33.625; -300.000; -266.000
248.948;  -99.475; -886.000; -763.000
249.090;  -52.425; -428.000; -398.000
249.233;  -65.700; -344.000; -381.000
249.375;  -58.975; -474.000; -451.000
249.518;  -16.050;  -83.000; -133.000
249.660;    5.375; -103.000;    3.000
249.802; -168.450;-1303.000;-1189.000
249.945;  -71.250; -612.000; -540.000
250.087; -103.250; -834.000; -768.000
250.229;  -38.975; -362.000; -480.000
250.371;  -79.850; -494.000; -439.000
250.514;  -47.325; -310.000; -244.000
250.656;  -81.650;   69.000;  102.000
250.798; -104.825; -849.000; -800.000
250.940;  -62.850; -322.000; -322.000
251.083;  -23.825; -335.000; -111.000
251.225;   45.000;  338.000;  310.000
251.367;  -33.875; -274.000; -373.000
251.509;  -33.950; -265.000; -210.000
251.651; -103.075; -731.000; -671.000
251.794;   34.075;  538.000;  632.000
251.936; -108.150; -821.000; -747.000
252.078;  -83.400; -540.000; -461.000
252.220;  -70.350; -645.000; -477.000
252.362;   45.625;  344.000;  462.000
252.504;  -66.950; -677.000; -584.000
252.646; -114.525; -875.000; -722.000
252.788;  -14.275;   14.000; -128.000
252.931;  -49.425; -257.000; -253.000
253.073;  -44.500; -376.000; -317.000
253.215;  -21.375;  141.000;  122.000
253.357;    2.125;   82.000; -153.000
253.499;  -45.400; -374.000; -234.000
253.641;  -82.125; -749.000; -594.000
253.783;  -97.625; -609.000; -527.000
253.925;  -77.125; -586.000; -591.000
254.067; -119.525; -744.000; -667.000
254.209;  -35.375; -391.000; -259.000
254.351; -135.775; -865.000; -883.000
254.493;  -66.925; -441.000; -417.000
254.635; -129.625; -936.000; -818.000
254.777;  -92.625; -752.000; -687.000
254.918;  -65.800; -512.000; -430.000
255.060;  -63.000; -551.000; -395.000
255.202;  -61.125; -473.000; -261.000
255.344;  -76.325; -658.000; -455.000
255.486;  -87.875; -471.000; -406.000
255.628;  -97.650; -780.000; -781.000
255.770;  -83.175; -676.000; -536.000
255.912;  -56.500; -559.000; -468.000
256.053;  -89.225; -730.000; -508.000
256.195;  130.375; 1008.000;  903.000
256.337;  -92.950; -861.000; -595.000
256.479;   66.200;  532.000;  416.000
256.621;  -52.000; -394.000; -212.000
256.762;  -93.100; -789.000; -742.000
256.904;   48.100;  485.000;  487.000
257.046;  -50.475; -381.000; -271.000
257.188;  -37.000; -351.000; -264.000
257.329;  -58.650; -525.000; -464.000
257.471; -128.000; -939.000; -807.000
257.613;  -68.150; -584.000; -498.000
257.755; -154.750;-1073.000; -982.000
257.896;   35.800;  286.000;  392.000
258.038;  -74.325; -403.000; -352.000
258.180;  -34.375; -354.000; -279.000
258.321;  -79.350; -581.000; -457.000
258.463;    0.425;  -71.000;  133.000
258.605; -102.325; -562.000; -570.000
258.746;  -95.125; -886.000; -772.000
258.888; -136.000;-1026.000;-1020.000
259.029;   10.225;  121.000;   -8.000
259.171;  -99.925; -614.000; -550.000
259.313;    7.600;  -49.000;  -47.000
259.454;  -73.900; -536.000; -414.000
259.596;  -50.625; -483.000; -390.000
259.737;  -86.175; -590.000; -474.000
259.879;   48.550;  217.000;  311.000
260.020;   65.300;  901.000;  636.000
260.162;  -23.775; -146.000; -253.000
260.303; -118.400; -768.000; -687.000
260.445;  -63.100; -609.000; -613.000
260.586;   19.875;  392.000;  157.000
260.728;  -46.050; -360.000; -248.000
260.869;  -76.550; -350.000; -343.000
261.011;   91.150;  706.000;  537.000
261.152;  -67.725; -479.000; -319.000
261.293;  -72.175; -576.000; -595.000
261.435;  -34.100; -219.000; -184.000
261.576;  -39.650; -455.000; -325.000
261.718;   42.300;  420.000;  470.000
261.859; -130.575; -940.000; -949.000
262.000; -140.075; -951.000;-1016.000
262.142;  -23.700;  -52.000;  -60.000
262.283; -112.150; -808.000; -691.000
262.424;  -73.450; -666.000; -625.000
262.566; -148.275;-1161.000; -983.000
262.707; -118.200; -840.000; -830.000
262.848; -112.825; -769.000; -726.000
262.990;  -37.550; -362.000; -345.000
263.131;   71.825;  650.000;  681.000
263.272;    0.400;  -61.000;  -41.000
263.413;  -96.500; -589.000; -561.000
263.555;  -64.600; -669.000; -143.000
263.696;  -79.200; -550.000; -641.000
263.837;  -65.450; -449.000; -551.000
263.978;   -9.750;   -5.000;  -77.000
264.119;  -36.175; -283.000; -264.000
264.261; -107.025; -847.000; -630.000
264.402;   -5.625;   33.000;   40.000
264.543;  -86.250; -509.000; -524.000
264.684;  -16.275;   61.000;  -50.000
264.825;  -92.875; -816.000; -538.000
264.966;   -9.825;  -84.000;  -67.000
265.107; -118.375; -646.000; -670.000
265.248; -117.350; -825.000; -812.000
265.390;  -13.975;  152.000;   -9.000
265.531;  -22.125; -238.000; -107.000
265.672;  -97.125; -557.000; -630.000
265.813;   60.900;  563.000;  439.000
265.954; -144.125; -959.000; -940.000
266.095;  -32.225; -372.000; -322.000
266.236; -100.175; -686.000; -548.000
266.377;  -53.025; -243.000; -297.000
266.518;  -80.100; -619.000; -547.000
266.659;   21.325;  170.000;  268.000
266.800;  -10.050;   83.000;   85.000
266.941;  -69.650; -487.000; -478.000
267.082;   14.700;  354.000;   99.000
267.223;  -51.525; -344.000; -273.000
267.364; -107.675; -892.000; -686.000
267.504;  -16.825;    3.000;  135.000
267.645;   -7.825;  160.000;   67.000
267.786;  -37.350; -147.000;  -86.000
267.927;  -69.950; -473.000; -379.000
268.068;  -26.125; -186.000;  -61.000
268.209;  -51.550; -175.000; -413.000
268.350;  -56.225; -388.000; -532.000
268.490;  -88.600; -648.000; -521.000
268.631;   37.400;  127.000;  225.000
268.772;  -98.675; -874.000; -647.000
268.913;  -49.675; -328.000; -476.000
269.054;  -25.500; -117.000;   12.000
269.194;  -48.200; -418.000; -402.000
269.335; -161.725;-1137.000;-1074.000
269.476;  -23.450;   33.000;  -35.000
269.617;  -61.275; -347.000; -392.000
269.757;  -82.600; -713.000; -646.000
269.898;  -97.775; -856.000; -613.000
270.039;  -67.800; -415.000; -405.000
270.180; -138.075; -952.000; -816.000
270.320;  -18.275; -190.000; -250.000
270.461;  -32.275; -277.000; -249.000
270.602;  -13.425; -186.000; -156.000
270.742; -133.050; -868.000; -943.000
270.883;  -60.925; -442.000; -390.000
271.023;  -64.625; -358.000; -357.000
271.164;  -68.450; -607.000; -528.000
271.305; -104.900; -666.000; -654.000
271.445;  -84.575; -722.000; -683.000
271.586;  -73.375; -462.000; -283.000
271.726;  -54.300; -397.000; -322.000
271.867;  -74.250; -594.000; -534.000
272.008;   52.725; -473.000; -285.000
272.148;   67.800;  462.000;  468.000
272.289;    1.925; -113.000; -181.000
272.429;  -14.300;   19.000;  185.000
272.570; -101.850; -633.000; -737.000
272.710; -102.575; -825.000; -775.000
272.851;  -24.975;  113.000; -130.000
272.991; -153.275;-1173.000;-1077.000
273.131;  -63.075; -419.000; -459.000
273.272; -101.425; -683.000; -723.000
273.412;   -7.650; -143.000;  -31.000
273.553;  -68.725; -488.000; -507.000
273.693;   97.450;  913.000;  858.000
273.834; -115.625; -894.000; -692.000
273.974;  -84.500; -664.000; -615.000
274.114;  -99.800; -772.000; -560.000
274.255;   57.400;  414.000;  373.000
274.395;  -25.425; -180.000; -125.000
274.535;   24.400;  199.000;  350.000
274.676;   15.175;  225.000;   94.000
274.816;   -1.850;  110.000;   34.000
274.956;  -96.325; -624.000; -690.000
275.097;  -88.650;-1014.000; -922.000
275.237; -125.550; -913.000; -803.000
275.377;  -96.175; -778.000; -689.000
275.517; -153.225; -878.000; -937.000
275.658;  -70.200; -590.000; -555.000
275.798;  -90.900; -606.000; -413.000
275.938;   21.125;  215.000;  323.000
276.078;  -85.075; -626.000; -395.000
276.218;   -1.450;   99.000;  104.000
276.359; -130.400;-1026.000;-1024.000
276.499;  -68.275; -605.000; -446.000
276.639;  -35.100; -305.000; -151.000
276.779;  -52.325; -475.000; -357.000
276.919; -110.875; -783.000; -624.000
277.059;  -26.125; -261.000; -212.000
277.199;  -58.950; -357.000; -259.000
277.340;   32.275;  287.000;  175.000
277.480; -124.025; -840.000; -693.000
277.620;   28.200;  192.000;   16.000
277.760; -208.425;-1533.000;-1294.000
277.900;    0.125;  113.000;   33.000
278.040;  -19.075;  137.000;  159.000
278.180;   24.075;  270.000;  170.000
278.320;   -7.550;   21.000;   56.000
278.460;  -73.150; -443.000; -469.000
278.600;  -88.325; -708.000; -598.000
278.740;   55.150;  448.000;  224.000
278.880; -110.125; -768.000; -791.000
279.020;  -23.550; -194.000; -144.000
279.160; -104.175; -672.000; -595.000
279.300; -117.600; -926.000; -873.000
279.440; -102.375; -709.000; -622.000
279.579;  -82.800;-1014.000; -929.000
279.719;  -60.100; -410.000; -394.000
279.859;   26.475;   -4.000;   41.000
279.999;  -13.400; -208.000;  101.000
280.139;  -39.625; -435.000; -387.000
280.279;  -95.775; -708.000; -745.000
280.419;  -17.500; -229.000; -147.000
280.559;  -47.600; -259.000; -180.000
280.698;  -94.000; -790.000; -639.000
280.838; -106.400; -778.000; -800.000
280.978;  -92.650; -846.000; -790.000
281.118; -114.675; -811.000; -704.000
281.257;    1.550;   24.000;    6.000
281.397; -147.675;-1094.000; -960.000
281.537;  -95.025; -599.000; -712.000
281.677;  -33.900; -150.000; -101.000
281.816;  -83.850; -700.000; -630.000
281.956;  -40.175; -193.000; -257.000
282.096;  -70.575; -539.000; -396.000
282.235; -101.825; -672.000; -638.000
282.375;  -30.225; -243.000;  -98.000
282.515; -115.425; -715.000; -707.000
282.654;   10.325;   29.000;  106.000
282.794;   19.000;  388.000;  244.000
282.934;  -44.050; -530.000; -491.000
283.073; -136.500;-1030.000; -857.000
283.213;  -57.575; -460.000; -467.000
283.353;  -61.450; -408.000; -349.000
283.492;  -33.450; -264.000; -296.000
283.632;  -45.675; -254.000; -168.000
283.771;  -83.875; -859.000; -730.000
283.911;  -58.600; -369.000; -260.000
284.050; -109.550; -794.000; -748.000
284.190; -149.225;-1229.000;-1096.000
284.329; -129.350;-1055.000; -964.000
284.469; -101.225; -516.000; -591.000
284.608;  -66.000; -559.000; -598.000
284.748;  -92.100; -614.000; -570.000
284.887;  -16.825;  -87.000;  -20.000
285.027; -131.500; -844.000; -892.000
285.166;  -38.175; -192.000; -249.000
285.306;  -14.675; -116.000;  -33.000
285.445;  -41.950; -229.000; -343.000
285.584;  -99.850; -630.000; -494.000
285.724;  -41.050; -282.000; -322.000
285.863; -127.675; -857.000; -507.000
286.002;  -55.525; -366.000; -276.000
286.142; -108.825; -715.000; -622.000
286.281;  -72.475; -525.000; -493.000
286.420;  -90.500; -554.000; -417.000
286.560;   67.300;  653.000;  623.000
286.699; -139.750; -958.000; -912.000
286.838;  -89.225; -590.000; -591.000
286.978;  -82.800; -533.000; -537.000
287.117; -132.975;-1085.000; -950.000
287.256;  -51.350; -228.000; -211.000
287.395;  -41.400; -197.000; -378.000
287.535;  -59.925; -370.000; -298.000
287.674;  -82.175; -509.000; -484.000
287.813;   39.300;  661.000;  533.000
287.952; -131.700;-1010.000; -871.000
288.091; -150.700;-1049.000; -915.000
288.231;   -6.475;   13.000;   15.000
288.370; -171.800;-1217.000;-1200.000
288.509;  -93.750; -728.000; -645.000
288.648; -103.825; -770.000; -548.000
288.787;  -40.675; -243.000;  -87.000
288.926;  -71.525; -454.000; -475.000
289.065;  102.475;  859.000;  672.000
289.204;  -57.875; -377.000; -217.000
289.344; -105.550; -791.000; -690.000
289.483;    3.475;  416.000;  304.000
289.622;  -39.025; -291.000; -149.000
289.761;  -20.325; -309.000; -166.000
289.900; -104.525; -785.000; -626.000
290.039;  -27.000;  -12.000;  -95.000
290.178;  -37.325; -274.000; -180.000
290.317;  -91.475; -618.000; -479.000
290.456;  -53.450; -463.000; -451.000
290.595; -136.200; -961.000; -833.000
290.734; -127.525; -904.000; -891.000
290.873;  -78.450; -456.000; -420.000
291.011; -106.225; -833.000; -843.000
291.150; -110.175; -770.000; -682.000
291.289;  -29.225; -343.000; -110.000
291.428;  -96.100; -599.000; -480.000
291.567;  -55.800; -370.000; -442.000
291.706;  -13.600;  109.000;  154.000
291.845;  -88.225; -597.000; -505.000
291.984; -174.025;-1234.000;-1061.000
292.122;   60.350;  602.000;  582.000
292.261;   30.150;  620.000;  463.000
292.400;   -2.775; -144.000;  211.000
292.539; -131.000; -959.000; -813.000
292.678;  -38.050; -325.000; -300.000
292.816; -159.425;-1136.000; -965.000
292.955;  -91.800; -844.000; -684.000
293.094;  -29.575; -173.000; -337.000
293.233;  -51.950; -556.000; -400.000
293.371;  -38.500; -225.000;  -84.000
293.510; -103.850; -866.000; -780.000
293.649; -134.225; -959.000; -924.000
293.787; -120.850;-1083.000;-1012.000
293.926;  -32.850; -113.000;  -32.000
294.065;  -52.125; -379.000; -290.000
294.203;   36.800;  298.000;  406.000
294.342;   14.725;   74.000;  156.000
294.481; 5600.625;51180.000; -836.000
294.619;  -22.775; -425.000; -582.000
294.758; -169.575;-1230.000;-1137.000
294.896;   16.175; -125.000;    5.000
295.035; -131.525;-1040.000;-1006.000
295.174; -127.200;-1082.000; -954.000
295.312;  -52.525; -323.000; -203.000
295.451;  -35.300; -307.000; -428.000
295.589;  -78.700; -389.000; -518.000
295.728;   10.000; -292.000; -165.000
295.866;  -29.550;  -36.000;  -51.000
296.005;  -71.150; -584.000; -341.000
296.143;  -88.725; -558.000; -596.000
296.282; -101.025; -957.000; -881.000
296.420;  -90.500; -657.000; -557.000
296.559;  -95.375; -892.000; -633.000
296.697;  -69.925; -847.000; -665.000
296.835;  -86.700;-1141.000;-1002.000
296.974;    3.550;  -23.000;   39.000
297.112;  -48.450; -443.000; -504.000
297.251;  -99.150; -815.000; -755.000
297.389;  -22.225; -576.000; -438.000
297.527;  -10.650; -145.000;  -83.000
297.666;  -55.275; -486.000; -438.000
297.804;  -62.250; -404.000; -264.000
297.942;  -14.100; -136.000; -161.000
298.081;  -19.000; -183.000;   63.000
298.219;    3.475;  -17.000;  -19.000
298.357;  -17.350; -144.000;  -71.000
298.495;  -68.125; -810.000; -812.000
298.634;   19.750;  245.000;  219.000
298.772;  -32.875; -220.000; -338.000
298.910;  -76.650; -309.000; -182.000
299.048;  -18.250; -130.000; -153.000
299.187;  -53.375; -350.000; -250.000
299.325;    6.075;   52.000;  122.000
299.463;  -31.100; -389.000; -299.000
299.601;    3.100; -327.000; -271.000
299.739; -138.450; -908.000; -883.000
299.877;  -87.200; -791.000; -703.000
300.016; -108.425;-1095.000; -935.000
300.154;   22.325;  -19.000; -161.000
300.292;  -43.300; -428.000; -348.000
300.430;  -25.625; -408.000; -291.000
300.568; -126.200; -940.000; -874.000
300.706;  -67.475; -366.000; -469.000
300.844; -134.275;-1108.000; -979.000
300.982;   77.900;  246.000;  282.000
301.120; -135.175; -965.000; -866.000
301.258;  -85.925; -812.000; -705.000
301.396;   -2.350;  104.000;  -41.000
301.534;  -26.025; -218.000; -293.000
301.672;  -89.425; -664.000; -521.000
301.810;  -63.325; -613.000; -545.000
301.948;    1.425;   53.000;  149.000
302.086;  185.750; -250.000;  -32.000
302.224;  220.150; -610.000; -585.000
302.362;  -66.225; -558.000; -622.000
302.500; -104.250; -923.000; -893.000
302.638;   39.375;  128.000;  245.000
302.776;  -38.925; -352.000; -408.000
302.913;   30.400;  447.000;  236.000
303.051;  -21.275;  -86.000;  -23.000
303.189;   13.575;   90.000;  118.000
303.327;  -47.250; -341.000; -256.000
303.465;  -77.100; -832.000; -588.000
303.603; -108.975; -805.000; -604.000
303.740;   36.425;  417.000;  241.000
303.878;  -85.350; -800.000; -759.000
304.016; -109.650; -915.000; -790.000
304.154; -160.100;-1123.000;-1152.000
304.291;  -61.400; -505.000; -554.000
304.429;   -8.900;  102.000;   74.000
304.567; -123.350; -908.000; -893.000
304.705;  -66.850; -408.000; -515.000
304.842;  -25.125; -616.000; -540.000
304.980;   14.900;  215.000;   35.000
305.118;  -24.525; -367.000; -365.000
305.255; -117.575; -945.000; -927.000
305.393;   32.250;  178.000;  239.000
305.531; -130.800;-1173.000; -956.000
305.668;  -77.825; -663.000; -582.000
305.806;  -16.800; -358.000; -439.000
305.943;  -21.350; -629.000; -637.000
306.081;  -28.100; -378.000; -267.000
306.219; -103.500; -863.000; -748.000
306.356;    4.050;  158.000;   27.000
306.494;  110.675;  981.000;  761.000
306.631;   -7.650;  -11.000;  -55.000
306.769;  -12.725; -613.000; -485.000
306.906;  -36.950; -284.000; -258.000
307.044;  -61.175; -473.000; -488.000
307.181;  -69.675; -410.000; -332.000
307.319;   18.750;  112.000;   87.000
307.456; -167.100;-1191.000;-1153.000
307.594; -116.300; -980.000; -727.000
307.731;  -26.950; -371.000; -164.000
307.868;  -16.025;  -15.000;   20.000
308.006; -142.800; -961.000; -847.000
308.143;  -67.475; -618.000; -330.000
308.281;   17.250;  -37.000; -254.000
308.418;  -66.350; -748.000; -640.000
308.555;  -78.975; -400.000; -250.000
308.693;  -78.600; -577.000; -573.000
308.830;  -94.250; -712.000; -657.000
308.967;  -20.200; -215.000;  -95.000
309.105;  -46.025; -507.000; -396.000
309.242;  -19.400; -468.000; -367.000
309.379;   25.950; -577.000; -655.000
309.517;  -98.625; -936.000; -948.000
309.654; -103.350; -910.000; -734.000
309.791;  -72.625; -662.000; -580.000
309.928; -111.425; -977.000; -914.000
310.065;  113.425;  819.000;  697.000
310.203;  -90.500; -825.000; -850.000
310.340;  -33.300; -465.000; -321.000
310.477;  -88.525; -412.000; -516.000
310.614;  -54.725; -383.000; -473.000
310.751;  -77.200; -427.000; -518.000
310.889;  -24.675;    1.000;   11.000
311.026; -151.550;-1161.000; -939.000
311.163;  -42.775; -386.000; -380.000
311.300;  -80.925; -512.000; -479.000
311.437;  -67.500; -658.000; -619.000
311.574; -155.450;-1226.000; -985.000
311.711;  -58.850; -595.000; -433.000
311.848;  -40.600; -380.000; -388.000
311.985;   -3.025;  270.000;   93.000
312.122; -123.225; -932.000; -762.000
312.259; -124.950; -941.000; -994.000
312.396;  -76.550; -508.000; -551.000
312.533;  -76.700; -812.000; -790.000
312.670; -141.950;-1070.000; -898.000
312.807;  -25.275; -352.000; -367.000
312.944;  -71.700; -513.000; -611.000
313.081;  -34.175; -150.000; -415.000
313.218;  -98.475;-1111.000; -867.000
313.355;  -21.825; -531.000; -449.000
313.492;  -18.400; -455.000; -292.000
313.629;  121.825;  815.000;  735.000
313.766; -157.450;-1176.000;-1008.000
313.902;  -14.800; -186.000;   21.000
314.039;  -56.125; -372.000; -289.000
314.176;   39.475;  286.000;  192.000
314.313;  -83.350; -569.000; -473.000
314.450;  -74.600; -788.000; -684.000
314.587;  -58.225; -468.000; -480.000
314.723;   -1.975;  -78.000;  130.000
314.860;   22.100;  318.000;  332.000
314.997;   36.375;  223.000;  142.000
315.134;  -27.775; -385.000; -368.000
315.270;  -31.800; -480.000; -496.000
315.407; -123.475;-1094.000; -967.000
315.544;  -52.825; -657.000; -538.000
315.681;  -61.800; -681.000; -565.000
315.817;   42.325; -133.000; -176.000
315.954;   26.750; -613.000; -392.000
316.091; -126.525;-1045.000;-1023.000
316.227;  -29.850;  -71.000; -179.000
316.364;   -9.725;   23.000;    6.000
316.500;  -50.175; -113.000; -300.000
316.637;  -43.600; -181.000; -302.000
316.774;  -80.925; -625.000; -358.000
316.910;  -86.050; -598.000; -629.000
317.047;  -80.900; -487.000; -351.000
317.183;  -53.375; -435.000; -566.000
317.320;   22.900; -367.000; -321.000
317.456;  -34.375; -733.000; -805.000
317.593;  -96.600; -598.000; -641.000
317.729;   -2.225;  168.000;  -67.000
317.866; -196.800;-1434.000;-1285.000
318.002;  -89.850; -708.000; -948.000
318.139; -129.200; -883.000; -867.000
318.275; -115.150;-1003.000; -738.000
318.412;  -77.450; -517.000; -336.000
318.548;  -88.850; -751.000; -720.000
318.685; -102.400; -985.000; -888.000
318.821;  -98.350; -762.000; -735.000
318.957;  -29.925;   34.000;  -23.000
319.094;   32.475;  297.000;  154.000
319.230; -102.525; -756.000; -742.000
319.367;   -6.575; -471.000; -520.000
319.503;  -26.450; -538.000; -436.000
319.639; -106.950; -877.000; -793.000
319.775;  -80.750; -750.000; -685.000
319.912;  -60.225; -424.000; -519.000
320.048; -105.850;-1184.000;-1184.000
320.184;   91.650;   59.000;   70.000
320.321;  -59.500; -497.000; -467.000
320.457;   67.875;  475.000;  662.000
320.593;  -76.325; -375.000; -382.000
320.729; -103.425; -732.000; -734.000
320.866;  -77.325; -577.000; -635.000
321.002; -105.700; -759.000; -809.000
321.138;  -49.925; -135.000; -211.000
321.274;   13.950; -148.000; -115.000
321.410;  -64.900; -585.000; -353.000
321.546; -107.250;-1011.000; -911.000
321.683;   10.100;  400.000;  185.000
321.819;  -15.200;  -48.000; -117.000
321.955; -121.275; -743.000; -722.000
322.091;  -79.025; -585.000; -540.000
322.227;  -50.525; -382.000; -202.000
322.363;  -38.250; -320.000; -215.000
322.499;  -64.025; -343.000; -331.000
322.635;   88.825;  636.000;  443.000
322.771;  -13.725; -139.000;   12.000
322.907;   33.625;  129.000;  327.000
323.043;  -50.250; -115.000; -206.000
323.179;  -55.950; -394.000; -363.000
323.315;  -57.025; -401.000; -371.000
323.451;   15.475; -328.000; -236.000
323.587;   35.875;  -60.000;  -77.000
323.723;  -70.925; -682.000; -601.000
323.859;  -41.350; -258.000;  -76.000
323.995;  -60.025; -467.000; -409.000
324.131; -131.950; -967.000; -892.000
324.267;  -52.525; -254.000; -276.000
324.402; -133.050; -960.000; -983.000
324.538;  -34.975; -279.000; -104.000
324.674;  -15.150;  164.000;   77.000
324.810;   32.950;  226.000;  308.000
324.946;  -63.375; -810.000; -658.000
325.082;  -70.425; -568.000; -475.000
325.217;  -13.575;  -62.000;   16.000
325.353; -111.425; -764.000; -659.000
325.489; -100.800; -540.000; -506.000
325.625;  -74.650; -579.000; -525.000
325.760;   74.825;  517.000;  376.000
325.896;   12.000; -515.000; -702.000
326.032;  -58.825; -403.000; -352.000
326.168;  -76.925; -462.000; -369.000
326.303;  -69.850; -352.000; -461.000
326.439;  -18.125; -336.000; -276.000
326.575;  -27.425; -190.000;  -29.000
326.710;   -8.950; -156.000;  -30.000
326.846;  -22.775;  146.000;  103.000
326.982;  -96.950; -530.000; -548.000
327.117;  -75.775; -481.000; -442.000
327.253;  -83.375; -745.000; -742.000
327.388; -144.975;-1137.000;-1153.000
327.524;  -84.975; -811.000; -578.000
327.659;  -36.525;  -58.000;  -22.000
327.795;  -14.200;   69.000;   45.000
327.931;  -73.200; -723.000; -499.000
328.066;  -23.925; -417.000; -276.000
328.202;  -48.325;   12.000; -129.000
328.337;   97.600;  957.000;  713.000
328.473;   19.925;  -12.000;  -74.000
328.608;  -22.425; -256.000; -267.000
328.743; -122.900; -799.000; -664.000
328.879;    4.900;  214.000;  114.000
329.014;  -34.175; -102.000; -122.000
329.150;  -91.250; -358.000; -483.000
329.285;  -76.350; -465.000; -466.000
329.421;  -58.700; -548.000; -246.000
329.556;  -26.800;  -36.000;   85.000
329.691;  -89.050; -633.000; -615.000
329.827;  -89.100; -626.000; -480.000
329.962;  -48.525;  131.000; -301.000
330.097;  -94.925; -673.000; -585.000
330.233;  -54.050; -410.000; -223.000
330.368; -123.325; -839.000; -628.000
330.503;  -27.500;    3.000;   98.000
330.638;  -20.500;  -93.000; -125.000
330.774;  -93.675; -609.000; -530.000
330.909;  -36.725; -434.000; -244.000
331.044;  -83.650; -714.000; -708.000
331.179; -179.175;-1217.000;-1109.000
331.315;    5.000;   77.000;   20.000
331.450;   19.000;  157.000;  285.000
331.585;  -92.150; -805.000; -706.000
331.720;  -84.750; -510.000; -460.000
331.855;    2.475;  -35.000; -102.000
331.990;  430.100;   62.000;  138.000
332.126;  214.350; -110.000;   71.000
332.261;   18.250; -379.000; -265.000
332.396;    8.975; -135.000; -242.000
332.531;  -62.650;-1074.000;-1031.000
332.666;   86.800; -519.000; -363.000
332.801;  -92.700; -726.000; -807.000
332.936;  -34.475; -192.000; -122.000
333.071; -124.475; -870.000; -817.000
333.206;   16.000;  307.000;  379.000
333.341;    7.350;  344.000;  418.000
333.476;  -92.225; -627.000; -623.000
333.611;  -49.800; -251.000; -173.000
333.746;  -51.250; -381.000; -464.000
333.881; -117.625; -973.000; -935.000
334.016; -132.500; -936.000; -917.000
334.151; -134.550; -746.000; -702.000
334.286;   24.225;  152.000;  186.000
334.421;  -23.800; -125.000; -178.000
334.556;  -78.925; -611.000; -567.000
334.690; -102.350; -631.000; -577.000
334.825;   40.225;  381.000;   83.000
334.960;  -65.600; -285.000; -413.000
335.095;   -0.800;  135.000;  -91.000
335.230;  -94.375; -722.000; -738.000
335.365; -113.625;-1084.000; -990.000
335.499; -143.450;-1108.000;-1037.000
335.634;   20.600;    9.000;  534.000
335.769;  -99.375; -755.000; -720.000
335.904;  -67.675; -603.000; -561.000
336.038;  -39.825; -735.000; -657.000
336.173; -107.200;-1206.000;-1194.000
336.308;    7.825; -116.000; -189.000
336.443;   48.250; -544.000; -634.000
336.577;  -55.350; -936.000; -787.000
336.712;   61.100;   -4.000;  -12.000
336.847;  -36.450; -724.000; -607.000
336.981;   48.750; -272.000; -208.000
337.116;  282.500;  615.000;  501.000
337.250;  109.400; -434.000; -421.000
337.385;  480.000; -297.000; -208.000
337.520;  214.225; -632.000; -603.000
337.654;  -44.675; -215.000; -126.000
337.789; -122.375; -989.000; -933.000
337.923;  -55.275; -104.000; -205.000
338.058;  -98.000; -673.000; -738.000
338.192;  -71.750; -611.000; -488.000
338.327;   -4.425;  -18.000; -155.000
338.461;  -65.700; -299.000; -469.000
338.596;  -83.475; -780.000; -638.000
338.730;  -91.950; -767.000; -803.000
338.865;  157.325;  -46.000; -140.000
338.999;    8.875; -846.000; -702.000
339.134;    1.575; -634.000; -536.000
339.268;   26.800; -741.000; -603.000
339.403;  573.075; -740.000; -775.000
339.537;  269.500; -894.000; -820.000
339.671; -106.425; -829.000; -813.000
339.806;  -27.700; -556.000; -512.000
339.940;   40.900; -261.000; -235.000
340.074; -114.700; -685.000; -510.000
340.209;  -49.800; -351.000; -230.000
340.343;  -93.850; -517.000; -573.000
340.477;  143.425;  998.000; 1036.000
340.612;    6.725;-1033.000; -900.000
340.746;  234.725; -199.000; -243.000
340.880;  -98.150; -924.000; -785.000
341.014;  -14.775;  -45.000; -154.000
341.149; -119.925; -756.000; -718.000
341.283; -104.250; -839.000; -754.000
341.417; -148.600;-1124.000; -938.000
341.551;  -33.225; -768.000; -708.000
341.685;  -62.825; -633.000; -611.000
341.820;  -52.125; -562.000; -493.000
341.954;  -64.450; -218.000; -349.000
342.088; -150.625;-1102.000;-1019.000
342.222;   36.525;  565.000;  618.000
342.356;  -68.900; -395.000; -335.000
342.490; -125.875; -880.000; -841.000
342.624;  -57.525; -339.000; -242.000
342.758;  -52.975; -364.000; -312.000
342.892;  -82.900; -710.000; -585.000
343.026;  -44.475;  -58.000; -116.000
343.160;  -57.300; -426.000; -376.000
343.294; -100.050; -474.000; -337.000
343.428;  -63.775; -488.000; -448.000
343.562;  -51.175; -172.000;  -23.000
343.696;  -59.325; -385.000; -314.000
343.830;  -57.675; -362.000; -356.000
343.964;  -11.250; -231.000; -168.000
344.098;  263.300;  199.000;   70.000
344.232;  235.600; -266.000; -127.000
344.366;   73.075; -567.000; -453.000
344.500;  -32.100; -665.000; -744.000
344.634;  -48.325; -324.000; -164.000
344.768;  -59.025; -531.000; -341.000
344.902;    3.775;  278.000;  256.000
345.035;  -87.850; -556.000; -496.000
345.169; -140.900; -933.000; -656.000
345.303;  -41.150; -308.000; -482.000
345.437; -115.550; -826.000; -717.000
345.571;  -62.050; -675.000; -594.000
345.704;  -76.175; -309.000; -532.000
345.838;  -26.775; -331.000; -284.000
345.972;  -65.800; -543.000; -495.000
346.106;  266.975; -179.000; -190.000
346.239;  461.100; -312.000; -243.000
346.373;  -11.300; -343.000; -302.000
346.507; -144.125; -950.000; -962.000
346.640;   20.125;  -30.000;   13.000
346.774; -103.100; -650.000; -797.000
346.908;  -33.775; -138.000;  -11.000
347.041;  -98.775; -646.000; -593.000
347.175;  -12.425;  259.000;   27.000
347.309; -111.825; -698.000; -628.000
347.442; -115.150; -883.000; -732.000
347.576;  124.025;  670.000;  668.000
347.709;   22.150; -123.000;  -52.000
347.843; -119.625; -933.000; -825.000
347.976;   14.225;  235.000;  294.000
348.110; -184.425;-1268.000;-1186.000
348.243; -104.475; -679.000; -772.000
348.377;   -9.800;  -26.000;   60.000
348.510;   33.800;  403.000;  540.000
348.644;  -53.675;  -37.000; -159.000
348.777;   -1.125;  180.000;  191.000
348.911;  -65.050; -142.000; -112.000
349.044;   70.650;  471.000;  448.000
349.178;  -56.725;-1069.000;-1006.000
349.311;  110.200;  141.000;  255.000
349.444;   29.750; -927.000; -813.000
349.578;  -24.375; -347.000; -200.000
349.711; -131.650; -959.000; -862.000
349.845;  -74.250; -661.000; -591.000
349.978; -164.650;-1224.000;-1137.000
350.111;  -88.175; -546.000; -612.000
350.244; -104.950; -596.000; -700.000
350.378;  -53.375; -392.000; -393.000
350.511;  -84.550; -393.000; -426.000
350.644;  -98.025; -808.000; -806.000
350.778;    8.275;  168.000;  104.000
350.911;   -2.800;  134.000;  140.000
351.044; -112.575; -685.000; -615.000
351.177;  -42.200; -321.000; -281.000
351.310;  -24.175;    3.000; -131.000
351.444; -101.675; -888.000; -788.000
351.577;   32.000;  140.000;   90.000
351.710;   71.725;  593.000;  417.000
351.843;  -40.050; -165.000;  -77.000
351.976;  -11.225;  149.000;  -79.000
352.109; -105.150; -621.000; -612.000
352.242;  -58.850; -464.000; -419.000
352.376;  -83.200; -580.000; -636.000
352.509;   10.500; -437.000; -356.000
352.642;  -88.500; -654.000; -604.000
352.775;   12.850; -141.000;  -98.000
352.908; -124.825; -933.000; -904.000
353.041; -117.475; -814.000; -824.000
353.174;  -70.200; -551.000; -424.000
353.307; -101.075; -753.000; -764.000
353.440;   46.075;  541.000;  453.000
353.573;  -98.925; -957.000;-1008.000
353.706;  -53.450; -384.000; -558.000
353.839;  -35.100; -264.000; -220.000
353.971;  -95.100; -657.000; -512.000
354.104; -122.775; -896.000; -835.000
354.237;  -81.925; -627.000; -662.000
354.370;  -94.700; -846.000; -879.000
354.503; -175.350;-1231.000;-1308.000
354.636;  -35.600; -529.000; -348.000
354.769; -128.175; -937.000; -860.000
354.902;  -39.875; -230.000; -139.000
355.034;  -27.825; -164.000; -220.000
355.167;  -11.850; -262.000; -162.000
355.300;  -70.275;-1061.000; -880.000
355.433; 1431.300;  -71.000;  -14.000
355.565; 2234.750; -402.000; -384.000
355.698;  566.150; -356.000; -296.000
355.831;   -8.225; -882.000; -801.000
355.964;   22.175; -285.000; -170.000
356.096;  -85.450; -856.000; -843.000
356.229;  -11.500; -523.000; -530.000
356.362;  529.150; -373.000; -266.000
356.494;  932.325; -229.000; -162.000
356.627;  307.375;  269.000;  377.000
356.760;  903.775;  120.000;   53.000
356.892; 1496.925; -286.000; -601.000
357.025;  330.225;  403.000;  389.000
357.157;  234.025; -167.000; -179.000
357.290; 1251.750; -856.000; -713.000
357.423;  370.825; -667.000; -556.000
357.555;   97.875; -217.000; -228.000
357.688;  107.825; -483.000; -364.000
357.820;  149.975; -870.000; -877.000
357.953; 1438.525; -563.000; -589.000
358.085;  227.125; -632.000; -612.000
358.218;   92.300;-1131.000; -932.000
358.350;   47.325;  -58.000;  312.000
358.483; -172.950;-1300.000;-1187.000
358.615; -133.725;-1182.000;-1078.000
358.747; -155.925;-1187.000;-1058.000
358.880;  -46.025; -810.000; -744.000
359.012;  -51.400; -376.000; -202.000
359.145;  -66.475; -480.000; -511.000
359.277;  -59.625; -962.000; -913.000
359.409; 1236.275;  536.000;  231.000
359.542;  258.625; -738.000; -688.000
359.674;   11.225;   46.000;   13.000
359.806;  -84.700; -565.000; -438.000
359.939;  -48.150; -617.000; -516.000
360.071;   34.550; -583.000; -579.000
360.203;  -34.825; -411.000; -364.000
360.335;   29.300;  164.000;  -16.000
360.468;   89.650; -249.000; -307.000
360.600; 1324.475; -547.000; -454.000
360.732; 4273.400; -546.000; -423.000
360.864;  652.400;-1216.000;-1044.000
360.996;   69.450; -516.000; -554.000
361.129;  -37.475; -389.000; -598.000
361.261;  -27.750;  110.000; -113.000
361.393;  -57.575; -252.000; -214.000
361.525;   -2.875;   94.000;  244.000
361.657; -113.700; -821.000; -703.000
361.789;  -18.725; -139.000; -155.000
361.921;  -67.375; -642.000; -593.000
362.053;   87.050;  524.000;  541.000
362.185;   -3.750;  288.000;   72.000
362.318; -119.225; -709.000; -705.000
362.450;   23.050;  294.000;  444.000
362.582;  -85.750; -913.000; -870.000
362.714;  -59.375; -353.000; -332.000
362.846;  -96.075; -606.000; -490.000
362.978; -150.075; -941.000; -811.000
363.109;  -43.425; -161.000; -260.000
363.241;  143.000; -739.000; -749.000
363.373;  627.700; -649.000; -564.000
363.505; 1037.350; -186.000;  -91.000
363.637;  241.950; -787.000; -601.000
363.769; -128.500;-1067.000;-1080.000
363.901;  -70.675; -596.000; -654.000
364.033; -145.525;-1103.000;-1062.000
364.165;  -29.100; -283.000; -283.000
364.296;   96.175; -316.000; -177.000
364.428;  209.200;-1344.000;-1220.000
364.560;  -58.250; -679.000; -661.000
364.692;  -74.850; -738.000; -835.000
364.824;   -4.350; -588.000; -456.000
364.955;  512.050; -402.000; -564.000
365.087; 1736.725;-1097.000; -852.000
365.219;  126.150; -686.000; -816.000
365.351;  -66.700; -526.000; -572.000
365.482;   23.800;  300.000;  240.000
365.614;  -63.800; -402.000; -314.000
365.746;  -97.225; -729.000; -752.000
365.877;  -93.625; -706.000; -672.000
366.009;  417.200;  -35.000;  -62.000
366.141;  -27.125;-1249.000;-1134.000
366.272; -105.825; -803.000; -719.000
366.404; -126.775;-1005.000; -874.000
366.535;  -16.300; -139.000;  -12.000
366.667; -106.750; -644.000; -649.000
366.799;   14.775;  353.000;  203.000
366.930; -142.675; -862.000; -996.000
367.062;  203.700; -639.000; -613.000
367.193;  349.950; -872.000; -842.000
367.325;  -45.525; -580.000; -684.000
367.456;   -5.600; -246.000;   31.000
367.588;  264.175; -371.000; -318.000
367.719;   43.500;  -44.000;  -45.000
367.851;  -38.450; -222.000; -241.000
367.982; -124.025; -875.000; -732.000
368.113;   -4.450; -475.000; -358.000
368.245; -155.000; -960.000; -841.000
368.376;  -39.775; -254.000; -302.000
368.508;  -60.350; -188.000; -263.000
368.639; -166.625;-1166.000;-1034.000
368.770; -105.625; -670.000; -589.000
368.902; -121.100; -836.000; -926.000
369.033; -135.250; -906.000; -855.000
369.164;  -38.400; -720.000; -653.000
369.296;  -98.575; -452.000; -601.000
369.427;  -39.775; -209.000; -144.000
369.558;  -80.225; -593.000; -377.000
369.689;  -90.600; -721.000; -569.000
369.821; -153.075; -951.000; -845.000
369.952;  -13.200;   42.000; -108.000
370.083;  -63.225; -229.000; -108.000
370.214; -115.600; -735.000; -650.000
370.345;  -34.000;   65.000;   81.000
370.477; -110.775; -810.000; -790.000
370.608;   27.075; -328.000; -264.000
370.739; -133.400;-1233.000;-1292.000
370.870; -127.200;-1102.000; -923.000
371.001;  -12.800; -378.000; -467.000
371.132; -104.650; -754.000; -735.000
371.263;  -16.550;  -42.000; -148.000
371.394; -145.950; -841.000; -748.000
371.525;   22.225;  345.000;  225.000
371.657; -111.050; -808.000; -670.000
371.788;   19.700;  103.000;  199.000
371.919;   -4.325; -384.000; -304.000
372.050; 1201.475;  -91.000; -156.000
372.181;  351.225; -188.000; -294.000
372.311;   89.475;   42.000; -127.000
372.442;  -54.375; -457.000; -451.000
372.573;  -46.325; -444.000; -340.000
372.704; -144.700;-1008.000; -980.000
372.835;  -30.975; -228.000; -289.000
372.966;  -92.825; -646.000; -554.000
373.097;  -98.575; -575.000; -711.000
373.228;  -96.350; -717.000; -542.000
373.359;  -37.200; -824.000; -536.000
373.490;  158.925; -881.000; -727.000
373.620;  230.950;-1001.000; -803.000
373.751;  486.825; -332.000; -396.000
373.882;  195.025; -663.000; -733.000
374.013;  -42.050; -449.000; -262.000
374.143;  -86.100; -581.000; -659.000
374.274; -132.000; -987.000; -908.000
374.405;   44.075; -388.000; -276.000
374.536;   97.350; -526.000; -387.000
374.666;  237.950; -759.000; -807.000
374.797;  -34.800; -817.000; -868.000
374.928;  155.775; -710.000; -560.000
375.058;  172.325; -535.000; -500.000
375.189;   -7.300;  -59.000;  -93.000
375.320; -129.700; -928.000;-1034.000
375.450;  -48.150; -625.000; -616.000
375.581;  -56.325; -526.000; -436.000
375.712;  -45.750; -574.000; -250.000
375.842;   -1.350; -438.000; -415.000
375.973;  -25.175; -554.000; -513.000
376.103; -119.075; -665.000; -648.000
376.234;  -93.975; -531.000; -552.000
376.364; -130.400; -944.000; -867.000
376.495;  139.600;  925.000;  529.000
376.625;  -69.875; -472.000; -485.000
376.756;  -55.450; -709.000; -678.000
376.886; -151.300;-1178.000;-1026.000
377.017;  152.175;-1048.000;-1061.000
377.147;  652.525; -786.000; -782.000
377.278;   79.575;  174.000;  228.000
377.408; -123.900; -801.000; -815.000
377.538; -108.900; -707.000; -693.000
377.669; -101.725; -537.000; -613.000
377.799; -108.025; -645.000; -635.000
377.929;  -97.375; -610.000; -428.000
378.060; -126.400; -781.000; -847.000
378.190;  -56.275; -726.000; -531.000
378.320;  -38.675; -401.000; -406.000
378.451;  -32.725; -131.000;  -22.000
378.581;  -37.900;  -67.000; -110.000
378.711;   79.250; 1035.000;  866.000
378.841;  -78.300; -533.000; -675.000
378.972; -123.975; -871.000; -751.000
379.102;  -79.875; -652.000; -579.000
379.232;  -53.775; -126.000;  -73.000
379.362; -118.975;-1001.000; -885.000
379.492;  -68.100; -373.000; -424.000
379.623;   18.450;    0.000;  111.000
379.753; -124.900;-1107.000; -974.000
379.883;   69.550;   59.000;  156.000
380.013;  -97.475;-1081.000;-1017.000
380.143; -135.525;-1097.000;-1056.000
380.273; -121.225; -985.000; -861.000
380.403;  -10.575; -344.000; -257.000
380.533;  -60.900; -651.000; -664.000
380.663;   19.425;  173.000;  128.000
380.793; -156.475;-1027.000;-1074.000
380.923;  -36.125; -103.000;  -34.000
381.053; -108.500; -613.000; -623.000
381.183;  -46.850; -106.000; -248.000
381.313;  -70.725; -656.000; -470.000
381.443;  -57.125; -692.000; -473.000
381.573;  -45.075; -402.000; -409.000
381.703;  -97.825;-1249.000;-1095.000
381.833; -199.775;-1454.000;-1336.000
381.963;   10.625; -134.000;  -87.000
382.093;  372.525; -925.000; -909.000
382.223;   75.850; -713.000; -602.000
382.353; -101.775; -801.000; -608.000
382.482;    0.225;-1091.000; -964.000
382.612;  163.725; -872.000; -644.000
382.742;   67.800; -695.000; -622.000
382.872;  -28.925; -565.000; -551.000
383.002;   12.725;  347.000; -132.000
383.131;  -35.925; -226.000; -160.000
383.261;  -46.350; -706.000; -768.000
383.391;  329.875; -552.000; -377.000
383.521; 5120.600;  451.000;  263.000
383.650; 1517.650; -947.000; -904.000
383.780;   40.525; -783.000; -656.000
383.910;   85.375;  880.000;  802.000
384.039;  -88.675; -794.000; -656.000
384.169;  -93.050;-1205.000;-1017.000
384.299;  -80.575; -650.000; -662.000
384.428; -125.825; -764.000; -680.000
384.558;  -56.600; -308.000; -275.000
384.687;  -82.350; -414.000; -334.000
384.817;  -17.300;   75.000;   -2.000
384.947;  -42.900; -234.000; -141.000
385.076;  144.475;  982.000;  912.000
385.206;   40.500;  369.000;  480.000
385.335;  -66.250; -549.000; -417.000
385.465; -118.325; -655.000; -663.000
385.594;   18.075;  -53.000;  -44.000
385.724;   16.300; -868.000; -838.000
385.853;   -8.750; -296.000; -270.000
385.982;  310.375; -743.000; -787.000
386.112;  629.025;-1052.000; -871.000
386.241;  -10.700; -307.000; -312.000
386.371;  -29.075; -174.000;  -87.000
386.500;  -53.400; -825.000; -789.000
386.629;  -14.950; -874.000; -817.000
386.759;   76.775;  -43.000;   68.000
386.888;  -22.925; -170.000; -250.000
387.017; -102.625; -648.000; -620.000
387.147; -105.900; -771.000; -798.000
387.276;  -65.600; -410.000; -397.000
387.405;  -47.200; -398.000; -342.000
387.535;  -92.075; -452.000; -361.000
387.664;  -69.075; -692.000; -620.000
387.793;  -20.050; -198.000; -113.000
387.922;  136.625;  255.000;  200.000
388.052;  -86.950; -576.000; -423.000
388.181;  -71.850; -342.000; -472.000
388.310; -101.050; -889.000; -710.000
388.439; -113.125; -749.000; -742.000
388.568;   50.950;  365.000;  244.000
388.697;  234.075; -756.000; -653.000
388.826;  -23.300; -768.000; -666.000
388.956;  -23.475; -285.000; -307.000
389.085;  -59.150; -347.000; -287.000
389.214; -114.450; -842.000; -872.000
389.343;  -73.775; -645.000; -413.000
389.472;  529.900;  126.000;  149.000
389.601;  625.900;   91.000;    0.000
389.730;  -34.625; -568.000; -687.000
389.859;   12.425;  226.000;   46.000
389.988;    5.225; -423.000; -408.000
390.117;   23.575; -168.000; -146.000
390.246;  -56.225; -331.000; -320.000
390.375;  -74.375; -673.000; -626.000
390.504;  -97.125; -703.000; -621.000
390.633; -139.900; -672.000; -726.000
390.761; -104.300; -732.000; -645.000
390.890;  -44.275;   -4.000; -130.000
391.019;  -77.050; -421.000; -441.000
391.148; -143.425; -826.000; -855.000
391.277; -101.175; -576.000; -493.000
391.406; -125.250; -821.000; -805.000
391.534;    5.625;  574.000; -301.000
391.663; -108.275; -583.000; -645.000
391.792; -105.775; -673.000; -701.000
391.921;  -30.675;   -3.000;   15.000
392.050;   -4.100; -287.000; -228.000
392.178; -146.950;-1206.000;-1061.000
392.307;  -40.450; -758.000; -712.000
392.436;  -55.100; -427.000; -641.000
392.564;   -4.000;  166.000;   -6.000
392.693; -112.975; -860.000; -682.000
392.822;  -10.125; -529.000; -534.000
392.950;  -65.650; -880.000; -714.000
393.079;   55.000; -188.000; -328.000
393.208;  -69.850; -488.000; -511.000
393.336;  -13.550; -170.000; -145.000
393.465;  -63.375; -317.000; -199.000
393.593;   -7.825;   62.000;   79.000
393.722; -161.050;-1121.000; -916.000
393.850;  -22.600; -188.000;  -61.000
393.979; -147.075; -926.000; -805.000
394.107;  -67.100; -517.000; -537.000
394.236;  -62.050; -570.000; -507.000
394.364;   97.150;  383.000;  206.000
394.493;   52.200; -911.000; -767.000
394.621;    6.025; -955.000; -916.000
394.750; 1142.350; -873.000; -923.000
394.878; 4452.125; -247.000; -149.000
395.007; 6461.625; -721.000; -807.000
395.135;  572.725; -790.000; -721.000
395.263;  -65.950;-1038.000;-1040.000
395.392;   -5.550;  -25.000; -107.000
395.520; -131.875; -818.000; -679.000
395.648; -126.075; -865.000; -915.000
395.777;  -81.350; -366.000; -405.000
395.905;  -93.025; -449.000; -564.000
396.033;  -15.375;  217.000;  172.000
396.162;   96.150; -399.000; -453.000
396.290;   98.775;  -17.000;   -2.000
396.418;  -63.475; -555.000; -514.000
396.546; -102.750; -571.000; -466.000
396.674; -137.325; -850.000; -878.000
396.803;  -32.400;  -72.000;  -23.000
396.931;  -40.100; -179.000; -199.000
397.059; -147.400;-1026.000; -989.000
397.187; -125.925;-1026.000; -975.000
397.315; -138.400; -884.000; -649.000
397.443; -103.275; -592.000; -443.000
397.572; -107.250; -578.000; -424.000
397.700;  -98.125; -607.000; -614.000
397.828;  -44.500;  120.000;  -90.000
397.956;  -34.675; -508.000; -478.000
398.084;  -35.125; -767.000; -626.000
398.212;   -1.625;  137.000;  124.000
398.340;  -28.400;  -56.000;  159.000
398.468;  -49.575; -390.000; -169.000
398.596; -158.100; -993.000; -953.000
398.724; -131.850; -762.000; -767.000
398.852; -159.100;-1024.000; -976.000
398.980;  -94.550; -560.000; -560.000
399.108; -113.000; -982.000; -735.000
399.236;  -16.300;   13.000;    8.000
399.363;    0.500;  222.000;  196.000
399.491;  -71.350; -404.000; -398.000
399.619; -127.375; -829.000; -800.000
399.747; -114.300; -859.000; -771.000
399.875;   17.575;  220.000;  234.000
400.003;  -68.825; -359.000; -284.000
400.130; -100.100; -421.000; -341.000
400.258;  -39.225;  -83.000;   38.000
400.386;  -68.025; -352.000; -168.000
400.514;  -89.325; -526.000; -587.000
400.641; -159.625; -928.000; -802.000
400.769; -140.175; -979.000; -888.000
400.897; -127.700; -838.000; -793.000
401.025;  -36.875; -166.000; -152.000
401.152;  -18.225;  220.000;   38.000
401.280;  -86.550; -430.000; -429.000
401.408; -134.425; -712.000; -576.000
401.535; -110.700; -735.000; -758.000
401.663; -195.475;-1134.000;-1054.000
401.790; -100.750; -514.000; -525.000
401.918;   20.950;  436.000;  405.000
402.046;  -20.550;  134.000;  122.000
402.173;  -54.150;  -18.000;    7.000
402.301;  -64.900; -519.000; -397.000
402.428;   26.075;  528.000;  383.000
402.556; -152.800;-1188.000; -913.000
402.683;  -51.575;  -20.000;   -1.000
402.811;  -32.500;  -37.000; -206.000
402.938;  -23.500;   20.000;   27.000
403.066;  -12.500; -574.000; -558.000
403.193;   94.450;  299.000;  239.000
403.321;   52.575; -396.000; -574.000
403.448;   98.300;   83.000;   27.000
403.575;   27.100;  -90.000;  -46.000
403.703; -106.425; -732.000; -557.000
403.830;  -54.950; -531.000; -496.000
403.957; -121.650;-1117.000;-1023.000
404.085;   18.950;  -61.000; -172.000
404.212;   97.950;  -50.000;   63.000
404.339;  440.325; -566.000; -306.000
404.467; 8931.875; -612.000; -524.000
404.594; 5445.825; -287.000; -227.000
404.721;  923.100; -869.000; -764.000
404.848;  104.175; -113.000; -202.000
404.976; -106.400; -856.000; -783.000
405.103;  -23.450;  -14.000;  -82.000
405.230;   -1.275;  190.000;  226.000
405.357;   37.450;  117.000;   44.000
405.484;  433.625;  -49.000;    5.000
405.612;  108.325; -548.000; -563.000
405.739;  -68.800; -488.000; -243.000
405.866;   72.925;  669.000;  385.000
405.993;  -69.250; -398.000; -102.000
406.120; -134.725; -801.000; -887.000
406.247; -102.700; -323.000; -342.000
406.374;  114.250;  540.000;  629.000
406.501;  -81.850; -632.000; -702.000
406.628; -105.750; -621.000; -589.000
406.755; -117.900; -803.000; -620.000
406.882;  -75.525; -228.000; -277.000
407.009; -130.600; -719.000; -628.000
407.136;  -55.225; -480.000; -401.000
407.263;  -67.525; -939.000; -829.000
407.390; -108.375; -692.000; -614.000
407.517; -192.725;-1139.000;-1187.000
407.644;  -80.350; -332.000; -256.000
407.771;  -73.875; -249.000; -287.000
407.898;  -12.000;  168.000;  328.000
408.025;  -70.000; -421.000; -313.000
408.151;  -22.450;   82.000;  153.000
408.278;  -95.875; -267.000; -216.000
408.405; -139.900; -931.000; -899.000
408.532; -107.500; -549.000; -542.000
408.659; -126.850; -677.000; -648.000
408.785; -193.925;-1298.000;-1170.000
408.912;  -58.825; -412.000; -296.000
409.039; -125.175; -610.000; -686.000
409.166; -104.750; -591.000; -555.000
409.292; -107.425; -571.000; -534.000
409.419; -116.250; -665.000; -649.000
409.546;  -96.100; -431.000; -192.000
409.672; -114.675; -713.000; -545.000
409.799;  -56.450;  -36.000;   34.000
409.926;  -64.975; -180.000; -179.000
410.052; -176.000;-1127.000;-1091.000
410.179;  -71.875; -368.000; -392.000
410.305;  -98.700; -375.000; -493.000
410.432;  -35.075; -220.000; -333.000
410.558;  -86.500; -305.000; -380.000
410.685; -114.175; -688.000; -431.000
410.812; -119.900; -409.000; -588.000
410.938; -143.925; -964.000; -808.000
411.065; -119.775; -671.000; -645.000
411.191;  -55.200; -189.000; -174.000
411.317; -133.350; -823.000; -742.000
411.444;  -62.525; -317.000; -246.000
411.570;  -79.975; -339.000; -294.000
411.697; -122.175; -758.000; -752.000
411.823; -181.775; -989.000; -999.000
411.949;  -62.625;  -56.000;   17.000
412.076; -125.650; -539.000; -519.000
412.202; -134.325; -758.000; -757.000
412.329; -145.700; -798.000; -752.000
412.455; -125.100; -821.000; -657.000
412.581;  -28.700;  -15.000;  172.000
412.707;  -97.525; -540.000; -457.000
412.834;  -14.125;  156.000;  219.000
412.960; -108.325; -785.000; -784.000
413.086; -125.275; -743.000; -701.000
413.212;   95.075;  604.000;  578.000
413.339;  -97.725; -685.000; -701.000
413.465;  -61.025; -364.000; -310.000
413.591; -111.225; -757.000; -474.000
413.717;  -54.075; -358.000; -366.000
413.843; -135.050; -839.000; -861.000
413.969;  -53.800;  -47.000; -292.000
414.096;  -97.825; -679.000; -679.000
414.222;  -14.450;  -33.000;   85.000
414.348;  -85.125; -652.000; -385.000
414.474;   -6.375;   38.000;  -52.000
414.600;  -15.650; -126.000; -144.000
414.726;  -16.250;  -96.000;  -55.000
414.852;  -46.575; -365.000; -342.000
414.978;   39.300;  104.000;  -18.000
415.104;   35.475;   38.000;   80.000
415.230;   41.000; -329.000; -330.000
415.356;   55.675; -409.000; -514.000
415.482;  216.975;   13.000;  -35.000
415.608;  388.425; -247.000; -323.000
415.734; 1306.975;   67.000;   38.000
415.860;27096.850; -875.000; -767.000
415.986;22261.850; -685.000; -607.000
416.111; 2084.700; -798.000; -652.000
416.237;  462.750; -424.000; -571.000
416.363; 1644.650; -765.000; -733.000
416.489; 6705.600; -324.000; -251.000
416.615;  902.525; -707.000; -742.000
416.741;   66.975; -677.000; -784.000
416.866;  -62.650; -673.000; -736.000
416.992;  -97.950; -801.000; -818.000
417.118;  -37.775;  -41.000;  -80.000
417.244;  -74.300; -798.000; -531.000
417.369; -114.300; -801.000; -612.000
417.495;  -16.725; -325.000; -254.000
417.621;  -84.850;-1015.000; -803.000
417.746;   -4.400; -579.000; -572.000
417.872;   55.875; -254.000; -144.000
417.998;  140.075; -515.000; -530.000
418.123; 1518.075;-1073.000; -845.000
418.249; 8491.050; -512.000; -601.000
418.374; 1426.725; -916.000; -824.000
418.500;  228.550; -383.000; -482.000
418.626;  153.475;   70.000;  -59.000
418.751;  164.675; -549.000; -448.000
418.877;  292.025; -637.000; -643.000
419.002; 2557.450; -688.000; -560.000
419.128;19377.750; -930.000; -721.000
419.253; 5489.500; -967.000; -837.000
419.379;  732.575; -391.000; -338.000
419.504;  586.425;  325.000;  415.000
419.629;  813.200; -393.000; -212.000
419.755; 5336.675; -317.000; -254.000
419.880;34682.850;  -98.000;   67.000
420.006;17422.200; -280.000; -221.000
420.131;43192.750; -662.000; -775.000
420.256; 6987.200; -315.000; -316.000
420.382;  952.700; -665.000; -687.000
420.507;  168.300; -649.000; -778.000
420.632;   32.150; -337.000; -339.000
420.758;   39.225; -251.000; -425.000
420.883;  -94.025; -876.000; -672.000
421.008; -110.525; -775.000; -619.000
421.133;  -84.800; -509.000; -467.000
421.259;  -51.225; -325.000; -259.000
421.384; -154.525; -834.000; -693.000
421.509; -122.550;-1052.000; -862.000
421.634;  119.625; -936.000; -820.000
421.759;   64.375; -359.000; -327.000
421.885; -112.175; -717.000; -656.000
422.010;  -86.875; -673.000; -542.000
422.135; -134.925; -695.000; -727.000
422.260;   15.275;  340.000;  280.000
422.385;  -57.150;   12.000;  -98.000
422.510;    1.850;  151.000;  -26.000
422.635;  -36.375;  -87.000;  -43.000
422.760;  -15.400; -766.000; -791.000
422.885;   -7.975;  -57.000;  -80.000
423.010;  -26.700; -112.000; -169.000
423.135;  -89.600; -481.000; -561.000
423.260;  -46.150; -150.000; -245.000
423.385;   19.400;  476.000;  222.000
423.510;    5.725;   71.000;  -22.000
423.635;   13.975;  133.000;   45.000
423.760;   50.325;  383.000;  328.000
423.885;   24.775;  336.000;  391.000
424.010;    4.000;  -68.000;  -13.000
424.135;  -25.500;    5.000;  -33.000
424.259;  -76.950; -654.000; -457.000
424.384;  -55.750; -279.000; -272.000
424.509;  -17.100; -260.000; -186.000
424.634;  -98.225; -761.000; -623.000
424.759;  -41.550; -688.000; -544.000
424.883;   -1.650; -506.000; -527.000
425.008;  206.550; -502.000; -410.000
425.133; 2826.175; -679.000; -653.000
425.258; 1538.175; -517.000; -381.000
425.382;  453.050; -867.000; -774.000
425.507; 1113.900; -487.000; -543.000
425.632;  374.325; -802.000; -663.000
425.756;  694.725; -256.000; -146.000
425.881;10164.500; -831.000; -857.000
426.006;31175.725; -604.000; -355.000
426.130; 5136.400; -696.000; -508.000
426.255;  704.975; -611.000; -491.000
426.379;  277.675; -189.000; -577.000
426.504;  515.875;  660.000;  544.000
426.629; 5561.200; -519.000; -466.000
426.753; 4361.875;   64.000;  -46.000
426.878;  553.375; -252.000; -288.000
427.002;  311.075; -651.000; -668.000
427.127; 2035.350;  -35.000; -158.000
427.251;17259.600;  372.000;  401.000
427.375; 5634.975; -191.000; -173.000
427.500; 1277.550; -616.000; -610.000
427.624;  376.300; -234.000; -400.000
427.749;   81.175; -216.000; -225.000
427.873;  -30.475; -499.000; -412.000
427.997;  -42.675; -222.000; -230.000
428.122;   40.250;  795.000;  703.000
428.246;   35.175;  433.000;  434.000
428.371; -151.100; -869.000; -773.000
428.495;  -95.125; -624.000; -646.000
428.619;  -48.500; -186.000; -117.000
428.743;   -5.150;   65.000;  132.000
428.868;  -75.925; -732.000; -643.000
428.992;  461.975; -219.000; -326.000
429.116;  162.750; -329.000; -357.000
429.240;  100.225;  419.000;  426.000
429.365;  -41.675; -454.000; -574.000
429.489;  -51.450; -638.000; -647.000
429.613;   20.450; -236.000; -177.000
429.737;   70.675; -563.000; -432.000
429.861;  362.175; -247.000; -133.000
429.985; 7793.775; -425.000; -305.000
430.109; 9997.550; -770.000; -908.000
430.234; 1239.700;   76.000;  -50.000
430.358;  148.600; -250.000; -160.000
430.482;  -36.200; -672.000; -564.000
430.606;  -85.825; -655.000; -375.000
430.730;  -71.125; -437.000; -388.000
430.854; -107.125; -909.000; -835.000
430.978; -100.400; -795.000; -764.000
431.102; -101.075; -499.000; -422.000
431.226; -120.025; -874.000; -815.000
431.350;    5.125;  345.000;  422.000
431.474;  -82.450; -661.000; -373.000
431.597; -173.400;-1060.000; -848.000
431.721;  -79.325; -276.000; -267.000
431.845; -139.400; -704.000; -472.000
431.969;  -75.300; -304.000; -349.000
432.093;  -79.450; -395.000; -317.000
432.217;   -9.000;   32.000;   82.000
432.341;  -87.975; -523.000; -518.000
432.464;   -8.250;   96.000;   40.000
432.588;  -38.125; -401.000; -329.000
432.712;    5.425;  -52.000;  -52.000
432.836;   42.575;  213.000;  263.000
432.959;   27.175; -372.000; -311.000
433.083;  154.975;   11.000;    2.000
433.207;  566.750;  285.000;  930.000
433.330; 7565.725; -391.000; -200.000
433.454;10514.375; -654.000; -638.000
433.578; 5805.325;  583.000;  278.000
433.701; 1274.475; -623.000; -675.000
433.825;  133.400; -292.000; -299.000
433.949;   39.600;   28.000;  -72.000
434.072;  -42.075; -410.000; -323.000
434.196;  -16.675; -309.000; -117.000
434.319; 3582.625;25482.000;25124.000
434.443;  865.200; -656.000; -603.000
434.566; 4075.900;  281.000;   62.000
434.690;  888.150; -637.000; -383.000
434.813;  133.125; -251.000; -173.000
434.937;  -53.700; -569.000; -696.000
435.060;  -83.425; -423.000; -332.000
435.184;  -13.500; -492.000; -217.000
435.307;   -4.975;  159.000;  102.000
435.431;  -33.100;  -40.000;   24.000
435.554;  -82.925; -399.000; -240.000
435.677;  -95.450; -350.000; -258.000
435.801;  -43.000;  -25.000;   49.000
435.924;  -39.375;    1.000;  -67.000
436.048; -149.200;-1019.000; -732.000
436.171;  -84.800; -240.000;  -66.000
436.294;   -3.825; -248.000; -229.000
436.417;  226.300; -963.000; -849.000
436.541;  -32.025; -814.000; -840.000
436.664;  -49.975; -242.000; -316.000
436.787;  -38.000;   13.000;  113.000
436.910; -123.225; -792.000; -422.000
437.034;  -21.125;  142.000;  143.000
437.157;   -0.225;  -11.000;    0.000
437.280;  -81.625; -392.000; -292.000
437.403; -138.775; -982.000; -869.000
437.526;  -23.675; -903.000; -865.000
437.649;  410.850; -505.000; -332.000
437.772;  -25.325; -692.000; -540.000
437.896;   63.025;  700.000;  544.000
438.019; -107.375; -758.000; -503.000
438.142; -111.475; -596.000; -506.000
438.265; -133.775; -639.000; -670.000
438.388;    5.575; -520.000; -410.000
438.511;  -84.600; -597.000; -394.000
438.634;  -82.150; -247.000; -125.000
438.757; -146.650; -693.000; -619.000
438.880;  -46.150;  -34.000;  -57.000
439.003; -109.700; -417.000; -437.000
439.126;  -66.100; -287.000; -167.000
439.248;  -73.225;  -98.000; -139.000
439.371;  -40.150;    9.000;  -53.000
439.494;   18.900;  510.000;  439.000
439.617;  -57.450;   65.000;  -88.000
439.740; -185.950; -968.000; -816.000
439.863; -138.875; -755.000; -595.000
439.986; -130.250; -476.000; -431.000
440.108;  -40.600; -161.000; -112.000
440.231; -179.000; -950.000; -836.000
440.354;  -68.925;  -64.000; -150.000
440.477; -113.950; -566.000; -542.000
440.599;  -85.500; -200.000; -225.000
440.722; -133.275; -709.000; -586.000
440.845;   62.000;  751.000;  928.000
440.968; -125.550; -415.000; -311.000
441.090;  -55.400; -199.000;  -33.000
441.213; -169.275;-1021.000; -825.000
441.336;  -69.525; -159.000;   -5.000
441.458;  -98.875; -549.000; -396.000
441.581; -126.700; -628.000; -629.000
441.703;  -83.200; -152.000;   13.000
441.826; -115.300; -557.000; -400.000
441.948;  -58.525;   56.000;   51.000
442.071;   10.150;  555.000;  424.000
442.193; -127.450; -531.000; -485.000
442.316;   -4.475;  152.000;   97.000
442.438;   60.300; -233.000;  -10.000
442.561;   58.375;  272.000;  262.000
442.683;   25.550; -809.000; -522.000
442.806;  231.700;   -8.000;   74.000
442.928; -111.275; -859.000; -604.000
443.051;  -91.725; -577.000; -373.000
443.173;  -92.900; -341.000; -339.000
443.295;  -90.850; -263.000; -371.000
443.418;  -82.200; -321.000;  -29.000
443.540;  -46.200; -106.000;   -4.000
443.662; -137.300; -563.000; -465.000
443.785;  -23.225;  335.000;  199.000
443.907; -100.625; -362.000; -208.000
444.029; -122.025; -767.000; -494.000
444.152; -152.325; -644.000; -554.000
444.274;  -39.225;  -18.000;  -24.000
444.396; -121.275; -461.000; -221.000
444.518; -135.475; -691.000; -454.000
444.640; -107.475; -268.000; -111.000
444.763;  -29.100;  388.000;  249.000
444.885; -117.400; -432.000; -392.000
445.007;  -34.600;   35.000;   86.000
445.129; -135.800; -610.000; -515.000
445.251; -106.425; -372.000; -439.000
445.373; -131.625; -537.000; -386.000
445.495;  -25.500;  242.000;  350.000
445.617;   30.550;  853.000;  753.000
445.739;  -76.125; -215.000;  -97.000
445.861;  -75.100; -245.000; -112.000
445.984;  -63.175; -267.000; -101.000
446.105;  -49.225; -418.000; -251.000
446.227;   86.900; -176.000;  -19.000
446.349;  -92.750; -358.000; -249.000
446.471; -117.475; -615.000; -448.000
446.593; -101.075; -316.000;   19.000
446.715;  -46.775;  -67.000;   41.000
446.837;   39.950;  697.000;  832.000
446.959; -110.500; -457.000; -478.000
447.081; -141.700; -628.000; -518.000
447.203;   29.750;  862.000;  834.000
447.325;  -93.850; -270.000;   42.000
447.446;  -12.825;  286.000;  530.000
447.568; -166.475; -921.000; -803.000
447.690;  -81.225; -236.000; -245.000
447.812; -154.750; -798.000; -519.000
447.933;  -43.625;  155.000;  127.000
448.055;  -73.225; -306.000; -261.000
448.177;   -4.950;   31.000;   79.000
448.299; -102.925; -935.000; -727.000
448.420;  -28.650;  -25.000;  159.000
448.542;  -58.750;   -3.000;   33.000
448.664;  -22.825;  109.000;  322.000
448.785;  -51.250;  265.000;   83.000
448.907; -107.400; -614.000; -353.000
449.028; -112.475; -771.000; -471.000
449.150;   32.950;  492.000;  589.000
449.272; -180.825;-1044.000; -913.000
449.393;   21.825;  612.000;  694.000
449.515; -142.575; -634.000; -581.000
449.636;  -60.525; -264.000; -155.000
449.758;   41.475;  763.000;  622.000
449.879; -101.700; -498.000; -396.000
450.001;  -75.650; -149.000;  -49.000
450.122;  -35.925;  -95.000;  162.000
450.244;  -30.575;   37.000;  364.000
450.365;  -74.075; -495.000; -301.000
450.486;  -11.625;   80.000;  268.000
450.608;   37.800;  393.000;  326.000
450.729;  104.950;  578.000;  645.000
450.850;  105.650; -574.000; -466.000
450.972; 1209.200; -552.000; -389.000
451.093; 7986.125;  190.000;  588.000
451.214; 4100.700; -516.000; -337.000
451.336;  664.600;  773.000;  579.000
451.457;  107.450;  264.000;  393.000
451.578;  -18.800; -118.000;  -74.000
451.699; -107.800; -546.000; -540.000
451.821;  -54.750; -284.000;  -50.000
451.942;   12.425;  278.000;  285.000
452.063;   58.550;  228.000;  419.000
452.184;  815.275;  -54.000;  -49.000
452.305; 1740.800;  103.000;  170.000
452.427;  334.950; -549.000; -301.000
452.548;   11.575;   23.000;   79.000
452.669;  -62.425; -257.000;  -89.000
452.790;  -61.300;    3.000;  -18.000
452.911;  -22.275;  195.000;  259.000
453.032;  -66.225; -289.000;  -60.000
453.153;  -65.650;  -29.000;   81.000
453.274;   48.125;  737.000;  868.000
453.395;  -81.025;  -51.000;  175.000
453.516;   -4.775; 1317.000; 1388.000
453.637;  -96.050; -205.000; -150.000
453.758;  -54.325;   15.000;   69.000
453.879; -141.000; -462.000; -250.000
454.000;   52.550; 1086.000;  948.000
454.121; -136.475; -554.000; -326.000
454.242; -117.300; -599.000; -383.000
454.362;  -49.700;  -99.000;  114.000
454.483;   -9.150; -309.000; -229.000
454.604;   60.175;  512.000;  580.000
454.725; -125.700; -627.000; -555.000
454.846; -127.925; -474.000; -406.000
454.967;  -28.825;  230.000;  539.000
455.087;  -56.100;  179.000;  153.000
455.208;   25.250;  554.000;  856.000
455.329;  -49.375;  -22.000;   82.000
455.450;   57.600;  473.000;  633.000
455.570;  -74.100; -234.000; -211.000
455.691;  -31.800;  201.000;  407.000
455.812;  -95.450; -270.000;  -92.000
455.932;  -65.050;  107.000;  -97.000
456.053;  -81.450;   36.000;   24.000
456.173; -102.925; -433.000; -355.000
456.294; -134.625; -476.000; -303.000
456.415;  -65.050;  -73.000;   70.000
456.535;  -28.825;  297.000;  273.000
456.656;  -41.450;  132.000;  240.000
456.776;  -65.800;    3.000;  298.000
456.897;   -6.600;  308.000;  513.000
457.017;  -76.150; -153.000;   -3.000
457.138; -111.475; -402.000; -249.000
457.258;  -49.975;  263.000;  224.000
457.379;  -11.600;  509.000;  521.000
457.499;  -38.025;  443.000;  432.000
457.620; -106.950; -407.000; -231.000
457.740; -107.450; -132.000;  -11.000
457.860;  -43.125;   87.000;   44.000
457.981;  -53.800;  132.000;  124.000
458.101;  -77.850;  -89.000;   40.000
458.221;  -35.500;  336.000;  402.000
458.342;  -51.425;   -4.000;  -37.000
458.462;   37.300;  617.000;  352.000
458.582;   22.200; -302.000; -294.000
458.703;   68.250;  303.000;  154.000
458.823;   15.125;   22.000;  163.000
458.943;   39.925;  341.000;  467.000
459.063;   12.800; 1124.000;  192.000
459.183;  -24.800;  328.000;  313.000
459.304;    0.175;  315.000;  517.000
459.424;  -44.750; -246.000;  -89.000
459.544;  486.675;  388.000;  764.000
459.664; 1300.600;  499.000;  506.000
459.784;  530.725; 1004.000; 1175.000
459.904;   85.925;  867.000;  744.000
460.024;   55.150;  867.000;  684.000
460.144;  -21.300;  449.000;  554.000
460.264;  -10.075;  515.000;  327.000
460.385;  -97.050; -145.000; -119.000
460.505;   29.800;  905.000;  858.000
460.625; -110.000;  -17.000;  -68.000
460.745;  -19.150;  396.000;  541.000
460.864;  -52.075;  153.000;  469.000
460.984;   34.675;  499.000;  573.000
461.104;  137.450; 1656.000; 1775.000
461.224;   15.600;  657.000;  650.000
461.344;  -30.675;  431.000;  360.000
461.464;  -44.375;  258.000;  513.000
461.584;  -49.975;  283.000;  466.000
461.704;  -61.800;   58.000;  108.000
461.824;  -49.425;  238.000;  259.000
461.943;  -34.350;  191.000;  130.000
462.063;  -88.900;    2.000;  324.000
462.183;   25.375;  639.000;  717.000
462.303;   73.125; 1678.000; 1230.000
462.422;   12.325;  781.000;  840.000
462.542;  -43.600;  271.000;  391.000
462.662;   47.150;  353.000;  380.000
462.782;  328.675;  833.000;  572.000
462.901;  718.600;  545.000;  717.000
463.021;  380.300; 1702.000; 1638.000
463.141;   12.600;  337.000;  770.000
463.260;  -19.475;  614.000;  474.000
463.380;   11.150;  902.000;  884.000
463.499;  -30.775;  342.000;  332.000
463.619;  -26.075;  581.000;  559.000
463.738;  102.000; 1644.000;  903.000
463.858;    5.525;  657.000;  811.000
463.978;  -41.550;  542.000;  396.000
464.097;   57.425;  921.000; 1114.000
464.217;  155.625; 1196.000; 1143.000
464.336;  164.375; 1068.000; 1130.000
464.455;  -28.150;  328.000;  659.000
464.575;   -2.375;  597.000;  602.000
464.694;  104.500; 1204.000; 1179.000
464.814;  155.750; 1190.000; 1138.000
464.933;   89.175; 1095.000; 1027.000
465.052;  108.975; 1412.000; 1054.000
465.172;   80.375;  922.000;  799.000
465.291;  115.825; 1376.000; 1320.000
465.410;   20.150;  462.000;  735.000
465.530;   73.250; 1355.000; 1310.000
465.649;   42.800; 1209.000; 1273.000
465.768;  139.975; 1673.000; 1508.000
465.888;   72.475;  941.000; 1174.000
466.007;   87.100; 1335.000; 1440.000
466.126;    3.225;  721.000;  641.000
466.245;   36.500; 1176.000; 1187.000
466.364;   20.850;  950.000; 1060.000
466.484;   52.600; 1024.000; 1213.000
466.603;   28.325; 1101.000; 1222.000
466.722;  110.275; 1490.000; 1769.000
466.841;   54.550; 1151.000; 1401.000
466.960;   33.575; 1069.000;  972.000
467.079;  122.875; 1971.000; 1786.000
467.198;   53.400; 1238.000; 1181.000
467.317;   74.775; 1768.000; 1162.000
467.436;   68.750; 1709.000; 1261.000
467.555;  130.350; 1796.000; 1746.000
467.674;   66.025; 1227.000; 1329.000
467.793;   34.125; 1376.000; 1374.000
467.912;   98.050; 1658.000; 1539.000
468.031;  120.825; 2038.000; 1930.000
468.150;  124.275; 1842.000; 1837.000
468.269;  163.975; 2313.000; 2090.000
468.388;  181.975; 2168.000; 2339.000
468.507;  237.375; 2884.000; 2903.000
468.626;  266.100; 2555.000; 2541.000
468.744;  144.150; 2018.000; 2174.000
468.863;  202.275; 2312.000; 2523.000
468.982;   93.750; 1503.000; 1555.000
469.101;  230.775; 2788.000; 2692.000
469.220;  145.125; 2333.000; 2176.000
469.338;  262.225; 2935.000; 3051.000
469.457;  179.150; 2719.000; 2545.000
469.576;  344.650; 3953.000; 3784.000
469.695;  230.200; 2877.000; 3066.000
469.813;  424.500; 4148.000; 4192.000
469.932;  393.700; 4255.000; 4485.000
470.051;  462.275; 4075.000; 4161.000
470.169; 1023.700; 4470.000; 4338.000
470.288; 1989.800; 4700.000; 4809.000
470.406; 1166.775; 5059.000; 5194.000
470.525;  658.350; 6101.000; 5787.000
470.644;  643.550; 6847.000; 6794.000
470.762;  805.800; 8397.000; 7873.000
470.881;  927.075; 8651.000; 8464.000
470.999; 1076.100; 9685.000; 9151.000
471.118; 1120.950;11174.000;10711.000

