
Integration time [ms]: 200.000
Averaging Nr. [scans]: 10
Smoothing Nr. [pixels]: 0
Data measured with spectrometer [name]: 2101012U2
Wave   ;Sample   ;Dark     ;Reference
[nm]   ;[counts] ;[counts] ;[counts] 

197.733;  142.800;  516.000;  404.000
197.879; -170.600; -610.000; -634.000
198.025; -100.900; -475.000; -420.000
198.171; -175.600; -602.000; -612.000
198.317;  -72.500; -401.000; -316.000
198.463; -132.000; -655.000; -404.000
198.609;   49.500;  181.000; -137.000
198.755; -191.200; -644.000; -410.000
198.901; -127.800; -505.000; -424.000
199.047; -112.400; -615.000; -488.000
199.193;  -79.200; -230.000; -468.000
199.339;  -78.900; -222.000; -369.000
199.485;   84.200;  330.000;  271.000
199.631;   13.200;  227.000;  310.000
199.777;  -91.900; -466.000; -398.000
199.923; -126.100; -610.000; -424.000
200.069;    7.700; -141.000;  -58.000
200.215;  139.100;  128.000;  453.000
200.361;  101.900;  243.000;  477.000
200.507; -172.600; -600.000; -373.000
200.653;  -45.800; -371.000; -194.000
200.798;  -92.200; -215.000; -125.000
200.944;   -6.800; -146.000;  -41.000
201.090;   70.600;   61.000;  222.000
201.236;   -4.100; -116.000; -158.000
201.382;  273.100;  874.000;  903.000
201.528;   23.200;  -58.000;  -48.000
201.674; -111.800; -386.000; -293.000
201.819; -136.200; -540.000; -439.000
201.965; -183.200; -699.000; -447.000
202.111;  -96.700; -273.000; -226.000
202.257;  -95.800; -250.000; -238.000
202.402;    7.700;   13.000;  -36.000
202.548; -110.200; -169.000; -116.000
202.694;  184.700;  410.000; -183.000
202.840; -161.100; -603.000; -531.000
202.985; -156.500; -681.000; -639.000
203.131; -254.600; -832.000; -666.000
203.277;  -52.000; -199.000; -262.000
203.423;  -90.300; -434.000; -520.000
203.568;  -63.500; -462.000; -237.000
203.714; -148.000; -535.000; -542.000
203.860; -175.800; -682.000; -641.000
204.005;   12.200;  112.000;  167.000
204.151;  179.100;  561.000;  556.000
204.296; -109.100; -354.000; -221.000
204.442; -141.000; -600.000; -547.000
204.588; -164.400; -592.000; -579.000
204.733;   37.500;  178.000;  168.000
204.879; -298.800;-1018.000; -822.000
205.025;   31.000;  -99.000;  126.000
205.170;   -6.500;  -17.000;   94.000
205.316;  182.400;  438.000;  661.000
205.461; -146.100; -698.000; -554.000
205.607;  197.600;  609.000;  665.000
205.752; -148.000; -626.000; -551.000
205.898; -111.800; -501.000; -391.000
206.043; -131.500; -578.000; -506.000
206.189;  -79.800; -243.000; -285.000
206.334;  140.800;  554.000;  606.000
206.480;  168.800;  409.000;  239.000
206.625; -187.700; -529.000; -552.000
206.771;  -92.000; -451.000; -373.000
206.916;  -70.300; -210.000; -537.000
207.062; -190.200; -545.000; -591.000
207.207; -157.400; -546.000; -443.000
207.353;  131.800;  185.000;  460.000
207.498;   43.400;  196.000;   85.000
207.643;  -88.900; -501.000; -370.000
207.789; -281.600;-1069.000; -910.000
207.934; -184.700; -665.000; -713.000
208.080;  -32.500; -154.000;   66.000
208.225;    3.700;  -22.000;  -57.000
208.370; -174.300; -727.000; -619.000
208.516; -173.900; -741.000; -487.000
208.661;  -63.000; -127.000;  -69.000
208.806;  -58.000; -165.000; -171.000
208.952; -283.700;-1044.000; -731.000
209.097;  142.000;  378.000;  349.000
209.242; -117.200; -307.000; -382.000
209.387;  130.100;  392.000;  350.000
209.533; -100.100; -321.000; -350.000
209.678;  188.000;  472.000;  543.000
209.823; -107.600; -408.000; -310.000
209.969; -219.900; -860.000; -757.000
210.114; -227.000; -907.000; -719.000
210.259; -200.400; -939.000; -889.000
210.404;  -43.700; -171.000;  103.000
210.549;   31.000;  108.000;    3.000
210.695;  -27.100;   -3.000;  -95.000
210.840;   95.400;   94.000;   67.000
210.985; -125.700; -484.000; -303.000
211.130;  175.400;  268.000;  406.000
211.275;   40.900;  207.000;  199.000
211.420; -100.400; -300.000; -289.000
211.566; -148.100; -536.000; -489.000
211.711;   45.500;  218.000;  157.000
211.856; -147.800; -545.000; -519.000
212.001;   21.400;  151.000;   44.000
212.146;   18.900;  153.000;   49.000
212.291;  -48.300; -210.000; -186.000
212.436;  -58.100; -280.000;   -6.000
212.581; -170.900; -685.000; -653.000
212.726; -168.400; -487.000; -538.000
212.871; -114.700; -552.000; -217.000
213.016; -324.200;-1172.000;-1029.000
213.161;  150.300;  406.000;  291.000
213.306; -183.500; -435.000; -577.000
213.451; -187.500; -778.000; -689.000
213.596;  -85.700; -455.000; -347.000
213.741;  -97.900; -448.000; -538.000
213.886; -154.800; -498.000; -517.000
214.031;  -33.000; -294.000; -124.000
214.176; -114.000; -408.000; -341.000
214.321;  -44.200; -296.000; -157.000
214.466;  -53.600; -163.000;  -43.000
214.611;   11.800;  -61.000;  -10.000
214.756; -271.800; -948.000; -858.000
214.901;  -24.100; -388.000; -226.000
215.046; -266.700; -797.000; -825.000
215.191;   78.000;  128.000;   35.000
215.336;  -47.100; -157.000;  -19.000
215.480; -144.200; -684.000; -505.000
215.625;  -26.800; -175.000;  -19.000
215.770; -173.700; -757.000; -662.000
215.915;  -12.800;   -5.000;  -97.000
216.060;   22.100; -113.000;  -21.000
216.205; -253.200; -731.000; -779.000
216.349; -128.400; -470.000; -533.000
216.494; -282.100; -939.000; -867.000
216.639; -244.000; -823.000; -888.000
216.784; -196.100; -577.000; -525.000
216.929;  116.300;  392.000;  281.000
217.073;   -7.200; -244.000;  -31.000
217.218;   20.600;   78.000;  -47.000
217.363; -185.200; -656.000; -618.000
217.507; -165.100; -623.000; -588.000
217.652; -238.100; -845.000; -874.000
217.797; -171.700; -708.000; -659.000
217.942; -217.900; -856.000; -720.000
218.086;  147.200;  608.000;  539.000
218.231;  -51.600; -174.000;  -26.000
218.376;  -60.700; -337.000; -229.000
218.520;   11.700;  -41.000;   96.000
218.665;  -48.600; -338.000; -204.000
218.810;  -94.700; -275.000; -233.000
218.954;   57.100;  201.000;   35.000
219.099; -230.500; -713.000; -963.000
219.243; -126.600; -589.000; -554.000
219.388;  -63.600; -264.000; -136.000
219.532;   -9.300; -116.000; -116.000
219.677; -139.300; -564.000; -521.000
219.822;    6.900;   33.000;   89.000
219.966;   33.200;   17.000;  -99.000
220.111;  -79.500; -328.000;  -40.000
220.255; -194.700; -797.000; -750.000
220.400;  -20.800; -180.000; -146.000
220.544; -111.800; -516.000; -450.000
220.689; -104.000; -422.000; -451.000
220.833;  -65.000; -123.000;  -58.000
220.978;  -59.600; -393.000; -563.000
221.122;   67.500;  319.000;  307.000
221.267; -202.800; -906.000; -837.000
221.411; -138.600; -478.000; -394.000
221.555;   -4.100; -104.000;  -23.000
221.700;  -84.400; -329.000; -222.000
221.844;  103.700;  255.000;  272.000
221.989; -106.900; -328.000; -311.000
222.133;  -87.100; -289.000; -307.000
222.277;  -41.000;    5.000;   78.000
222.422;   70.000;  227.000;  113.000
222.566; -116.000; -381.000; -214.000
222.711; -125.700; -414.000; -479.000
222.855; -181.600; -643.000; -586.000
222.999; -173.200; -642.000; -717.000
223.144;  -57.600; -195.000; -194.000
223.288;  112.500;  423.000;  251.000
223.432;   18.900;  184.000;  230.000
223.576;   24.500;  152.000;  -21.000
223.721;  108.800;  364.000;  273.000
223.865; -118.000; -472.000; -475.000
224.009;  526.300; 1673.000; 1631.000
224.153; -183.100; -660.000; -671.000
224.298; -111.000; -531.000; -489.000
224.442;  -47.900;  -74.000;  -33.000
224.586;  -13.700; -169.000; -106.000
224.730; -183.700; -858.000; -670.000
224.875; -225.100; -739.000; -688.000
225.019;   35.600;  102.000;  188.000
225.163;  107.100;  208.000;  341.000
225.307;   40.200;   97.000;  -91.000
225.451;   97.800;  360.000;  481.000
225.595;   63.400;  264.000;  176.000
225.739;  -15.400; -170.000;  -94.000
225.884;   33.200;   86.000;    5.000
226.028; -213.300; -760.000; -626.000
226.172;  -56.300; -260.000; -273.000
226.316; -250.600; -941.000; -902.000
226.460; -133.800; -645.000; -493.000
226.604;  -84.000; -406.000; -400.000
226.748; -216.600; -836.000; -733.000
226.892;  -63.400; -227.000; -181.000
227.036;  -85.000; -537.000; -447.000
227.180; -121.300; -551.000; -375.000
227.324; -137.200; -561.000; -580.000
227.468; -263.300; -819.000; -717.000
227.612;   27.500;  242.000;  -28.000
227.756; -193.500; -845.000; -698.000
227.900;  107.800;  342.000;  441.000
228.044; -167.100; -509.000; -290.000
228.188;  137.800;  448.000;  568.000
228.332; -198.700; -546.000; -472.000
228.476;  -72.600; -223.000; -149.000
228.620;  -73.700; -210.000; -150.000
228.764;  142.800;  431.000;  349.000
228.908;  -21.100; -155.000;   30.000
229.052; -131.100; -615.000; -528.000
229.195;  -44.200; -172.000;   13.000
229.339;  -33.000; -235.000; -305.000
229.483;  -80.900;    5.000; -162.000
229.627;   32.400; -156.000;  139.000
229.771; -115.000; -218.000; -294.000
229.915;   37.300;  230.000;   79.000
230.059; -199.900; -648.000; -663.000
230.202;  -80.700; -370.000; -317.000
230.346;  -36.400; -107.000;  107.000
230.490; -118.100; -489.000; -521.000
230.634; -192.000; -736.000; -553.000
230.777;  198.300;  478.000;  509.000
230.921; -111.400; -450.000; -359.000
231.065;  -72.800; -246.000; -286.000
231.209;   34.700;  261.000;  265.000
231.352;   75.600;   54.000;   40.000
231.496;   23.000;  568.000;  188.000
231.640; -155.800; -693.000; -621.000
231.783;  142.000;  546.000;  525.000
231.927;  -96.000; -294.000; -365.000
232.071; -256.400; -962.000; -736.000
232.214; -245.500; -980.000; -764.000
232.358; -216.900; -683.000; -599.000
232.502;    8.800;  -19.000;    7.000
232.645; -288.500;-1090.000; -927.000
232.789;  -52.700; -257.000; -218.000
232.933; -108.300; -407.000; -224.000
233.076; -262.500;-1038.000; -897.000
233.220; -252.600; -752.000; -777.000
233.363; -141.400; -669.000; -477.000
233.507;   90.800;  371.000;  129.000
233.650; -174.700; -764.000; -834.000
233.794;   91.400;  438.000;  461.000
233.938; -109.800; -530.000; -362.000
234.081;  -20.400;  -93.000;   31.000
234.225; -143.100; -631.000; -539.000
234.368; -242.900; -773.000; -723.000
234.512;  -72.300; -385.000; -299.000
234.655; -215.300; -582.000; -555.000
234.798; -116.400; -493.000; -466.000
234.942; -284.100; -884.000;-1002.000
235.085; -145.300; -651.000; -443.000
235.229; -149.900; -405.000; -410.000
235.372; -103.800; -247.000; -191.000
235.516; -143.200; -397.000; -321.000
235.659;   26.500;   92.000;  121.000
235.802;  -34.300;  -38.000;  -22.000
235.946;   67.900;  335.000;  215.000
236.089;   62.200;  126.000;  250.000
236.233;  128.300;  275.000;  298.000
236.376; -100.400; -235.000; -378.000
236.519;  -70.600; -297.000; -319.000
236.663;  -60.800; -215.000; -117.000
236.806; -280.600;-1029.000; -999.000
236.949;   77.100;  543.000;  431.000
237.092;  117.300;  412.000;  391.000
237.236; -166.800; -589.000; -502.000
237.379;  139.800;  352.000;  428.000
237.522; -252.400; -879.000; -768.000
237.666;  -34.800; -271.000;   18.000
237.809; -267.900; -851.000; -823.000
237.952;  100.800;  469.000;  271.000
238.095; -124.700; -447.000; -442.000
238.238;  209.500;  688.000;  700.000
238.382;    4.000;  166.000;  103.000
238.525; -128.600; -598.000; -511.000
238.668; -319.000;-1060.000; -985.000
238.811; -155.500; -638.000; -643.000
238.954; -105.800; -483.000; -334.000
239.097;  200.200;  617.000;  664.000
239.241;   62.400;  394.000;  326.000
239.384;  -37.300; -254.000; -214.000
239.527; -100.800; -424.000; -224.000
239.670; -290.700; -994.000;-1091.000
239.813; -228.600; -696.000; -658.000
239.956;  211.100;  579.000;  473.000
240.099; -211.400; -778.000; -725.000
240.242;  142.600;  428.000;  432.000
240.385;  111.700;  466.000;  450.000
240.528; -152.400; -706.000; -473.000
240.671;   37.600;  189.000;  134.000
240.814;  -97.900; -441.000; -158.000
240.957; -228.800; -767.000; -578.000
241.100; -170.900; -779.000; -755.000
241.243; -321.800;-1234.000; -893.000
241.386; -127.100; -508.000; -379.000
241.529; -175.300; -735.000; -547.000
241.672; -105.200; -566.000; -495.000
241.815; -246.600; -832.000; -808.000
241.958;  -44.800; -125.000; -182.000
242.101; -160.500; -545.000; -390.000
242.244;  -58.900; -270.000; -325.000
242.387;  -79.000; -304.000; -246.000
242.530;  160.800;  470.000;  134.000
242.673;  -90.300; -381.000; -309.000
242.815; -236.800; -925.000; -899.000
242.958; -137.600; -482.000; -381.000
243.101;   72.000;  132.000;  187.000
243.244; -173.000; -564.000; -521.000
243.387;  -89.900; -313.000; -316.000
243.530; -224.300; -657.000; -674.000
243.672;   23.700;   43.000;  -92.000
243.815;  -90.300; -355.000; -283.000
243.958;   11.300;   98.000;  -26.000
244.101;   33.300;   59.000;  -16.000
244.243;   15.200;  -47.000;  101.000
244.386; -212.200; -761.000; -630.000
244.529;  -32.800; -132.000; -139.000
244.672; -351.700;-1154.000; -951.000
244.814; -230.500; -621.000; -794.000
244.957; -141.200; -380.000; -304.000
245.100; -142.400; -489.000; -489.000
245.242; -103.400; -387.000; -374.000
245.385;  -22.000;  -59.000;  -39.000
245.528; -278.300; -871.000; -705.000
245.670;  190.000;  612.000;  634.000
245.813; -183.100; -599.000; -547.000
245.956;  -46.100; -324.000; -275.000
246.098; -153.300; -508.000; -650.000
246.241;   40.000;  194.000;   48.000
246.383;  -29.100; -119.000;  -73.000
246.526; -128.800; -454.000; -525.000
246.669; -265.600; -889.000; -780.000
246.811;   33.800;  172.000;   -1.000
246.954; -141.500; -512.000; -426.000
247.096;  -37.500;  -84.000;   -6.000
247.239; -130.300; -482.000; -445.000
247.381; -157.400; -647.000; -488.000
247.524;  201.400;  645.000;  679.000
247.666;   -0.600;   58.000;   11.000
247.809; -251.200; -887.000; -691.000
247.951;   11.600;  -75.000;  138.000
248.094;   45.700;  432.000;  308.000
248.236; -323.000;-1262.000;-1238.000
248.378;  -84.000; -356.000;  -81.000
248.521;  -98.500; -334.000; -337.000
248.663;  -74.400; -236.000; -267.000
248.806;  -61.300; -300.000; -266.000
248.948; -256.400; -886.000; -763.000
249.090; -110.100; -428.000; -398.000
249.233; -143.200; -344.000; -381.000
249.375; -123.000; -474.000; -451.000
249.518;  -37.100;  -83.000; -133.000
249.660;   27.200; -103.000;    3.000
249.802; -388.900;-1303.000;-1189.000
249.945; -164.600; -612.000; -540.000
250.087; -234.800; -834.000; -768.000
250.229; -107.400; -362.000; -480.000
250.371; -153.400; -494.000; -439.000
250.514;  -88.800; -310.000; -244.000
250.656;   -9.800;   69.000;  102.000
250.798; -233.400; -849.000; -800.000
250.940; -105.500; -322.000; -322.000
251.083;  -19.300; -335.000; -111.000
251.225;  101.000;  338.000;  310.000
251.367;  -83.100; -274.000; -373.000
251.509;  -68.500; -265.000; -210.000
251.651; -204.500; -731.000; -671.000
251.794;  120.700;  538.000;  632.000
251.936; -248.000; -821.000; -747.000
252.078; -171.400; -540.000; -461.000
252.220; -150.600; -645.000; -477.000
252.362;  103.600;  344.000;  462.000
252.504; -163.700; -677.000; -584.000
252.646; -233.700; -875.000; -722.000
252.788;  -27.300;   14.000; -128.000
252.931; -111.800; -257.000; -253.000
253.073;  -94.800; -376.000; -317.000
253.215;   10.700;  141.000;  122.000
253.357;  -33.200;   82.000; -153.000
253.499; -102.100; -374.000; -234.000
253.641; -173.500; -749.000; -594.000
253.783; -206.900; -609.000; -527.000
253.925; -191.100; -586.000; -591.000
254.067; -257.000; -744.000; -667.000
254.209;  -46.200; -391.000; -259.000
254.351; -294.500; -865.000; -883.000
254.493; -132.500; -441.000; -417.000
254.635; -242.700; -936.000; -818.000
254.777; -175.400; -752.000; -687.000
254.918; -156.700; -512.000; -430.000
255.060; -154.400; -551.000; -395.000
255.202; -142.800; -473.000; -261.000
255.344; -164.000; -658.000; -455.000
255.486; -148.900; -471.000; -406.000
255.628; -218.600; -780.000; -781.000
255.770; -178.600; -676.000; -536.000
255.912;  -92.200; -559.000; -468.000
256.053; -174.800; -730.000; -508.000
256.195;  338.000; 1008.000;  903.000
256.337; -223.300; -861.000; -595.000
256.479;  122.500;  532.000;  416.000
256.621; -129.000; -394.000; -212.000
256.762; -197.900; -789.000; -742.000
256.904;  126.000;  485.000;  487.000
257.046;  -92.500; -381.000; -271.000
257.188; -119.000; -351.000; -264.000
257.329; -152.400; -525.000; -464.000
257.471; -262.100; -939.000; -807.000
257.613; -136.600; -584.000; -498.000
257.755; -330.000;-1073.000; -982.000
257.896;   55.000;  286.000;  392.000
258.038; -139.900; -403.000; -352.000
258.180;  -58.200; -354.000; -279.000
258.321; -183.700; -581.000; -457.000
258.463;    5.200;  -71.000;  133.000
258.605; -207.000; -562.000; -570.000
258.746; -229.100; -886.000; -772.000
258.888; -332.700;-1026.000;-1020.000
259.029;   35.800;  121.000;   -8.000
259.171; -190.900; -614.000; -550.000
259.313;   25.900;  -49.000;  -47.000
259.454; -181.600; -536.000; -414.000
259.596;  -90.600; -483.000; -390.000
259.737; -148.700; -590.000; -474.000
259.879;   77.700;  217.000;  311.000
260.020;  177.400;  901.000;  636.000
260.162;  -63.600; -146.000; -253.000
260.303; -246.400; -768.000; -687.000
260.445; -165.100; -609.000; -613.000
260.586;   35.500;  392.000;  157.000
260.728;  -77.500; -360.000; -248.000
260.869; -135.500; -350.000; -343.000
261.011;  184.600;  706.000;  537.000
261.152; -127.600; -479.000; -319.000
261.293; -151.500; -576.000; -595.000
261.435;  -70.800; -219.000; -184.000
261.576;  -90.200; -455.000; -325.000
261.718;   93.300;  420.000;  470.000
261.859; -278.500; -940.000; -949.000
262.000; -311.200; -951.000;-1016.000
262.142;  -26.100;  -52.000;  -60.000
262.283; -245.900; -808.000; -691.000
262.424; -169.100; -666.000; -625.000
262.566; -315.100;-1161.000; -983.000
262.707; -254.600; -840.000; -830.000
262.848; -274.700; -769.000; -726.000
262.990;  -74.400; -362.000; -345.000
263.131;  203.300;  650.000;  681.000
263.272;   22.000;  -61.000;  -41.000
263.413; -181.800; -589.000; -561.000
263.555; -114.200; -669.000; -143.000
263.696; -172.400; -550.000; -641.000
263.837;  -88.200; -449.000; -551.000
263.978;  -14.900;   -5.000;  -77.000
264.119;  -77.000; -283.000; -264.000
264.261; -271.200; -847.000; -630.000
264.402;  -21.100;   33.000;   40.000
264.543; -155.100; -509.000; -524.000
264.684;   -5.100;   61.000;  -50.000
264.825; -140.700; -816.000; -538.000
264.966;    6.400;  -84.000;  -67.000
265.107; -240.100; -646.000; -670.000
265.248; -224.500; -825.000; -812.000
265.390;  -45.700;  152.000;   -9.000
265.531;  -36.400; -238.000; -107.000
265.672; -162.900; -557.000; -630.000
265.813;  145.400;  563.000;  439.000
265.954; -301.700; -959.000; -940.000
266.095;  -20.000; -372.000; -322.000
266.236; -214.400; -686.000; -548.000
266.377;  -68.800; -243.000; -297.000
266.518; -165.500; -619.000; -547.000
266.659;   55.400;  170.000;  268.000
266.800;    6.300;   83.000;   85.000
266.941; -160.700; -487.000; -478.000
267.082;   57.600;  354.000;   99.000
267.223;  -94.500; -344.000; -273.000
267.364; -259.100; -892.000; -686.000
267.504;    6.500;    3.000;  135.000
267.645;   23.800;  160.000;   67.000
267.786;  -95.400; -147.000;  -86.000
267.927; -161.500; -473.000; -379.000
268.068;  -25.800; -186.000;  -61.000
268.209; -138.100; -175.000; -413.000
268.350; -112.900; -388.000; -532.000
268.490; -202.000; -648.000; -521.000
268.631;   83.400;  127.000;  225.000
268.772; -216.700; -874.000; -647.000
268.913; -120.600; -328.000; -476.000
269.054;  -28.600; -117.000;   12.000
269.194; -108.600; -418.000; -402.000
269.335; -316.700;-1137.000;-1074.000
269.476;   -5.600;   33.000;  -35.000
269.617; -101.000; -347.000; -392.000
269.757; -217.700; -713.000; -646.000
269.898; -230.400; -856.000; -613.000
270.039; -140.500; -415.000; -405.000
270.180; -279.500; -952.000; -816.000
270.320;  -56.700; -190.000; -250.000
270.461;  -73.700; -277.000; -249.000
270.602;  -14.000; -186.000; -156.000
270.742; -284.600; -868.000; -943.000
270.883;  -99.400; -442.000; -390.000
271.023; -114.500; -358.000; -357.000
271.164; -151.500; -607.000; -528.000
271.305; -210.000; -666.000; -654.000
271.445; -193.500; -722.000; -683.000
271.586; -153.900; -462.000; -283.000
271.726;  -91.600; -397.000; -322.000
271.867; -175.900; -594.000; -534.000
272.008;  -77.900; -473.000; -285.000
272.148;   93.500;  462.000;  468.000
272.289;  -12.400; -113.000; -181.000
272.429;  -14.400;   19.000;  185.000
272.570; -186.100; -633.000; -737.000
272.710; -247.700; -825.000; -775.000
272.851;  -48.100;  113.000; -130.000
272.991; -337.700;-1173.000;-1077.000
273.131; -125.600; -419.000; -459.000
273.272; -205.700; -683.000; -723.000
273.412;  -49.200; -143.000;  -31.000
273.553; -151.700; -488.000; -507.000
273.693;  258.600;  913.000;  858.000
273.834; -288.000; -894.000; -692.000
273.974; -132.600; -664.000; -615.000
274.114; -237.000; -772.000; -560.000
274.255;  117.400;  414.000;  373.000
274.395;  -90.900; -180.000; -125.000
274.535;   93.300;  199.000;  350.000
274.676;   48.900;  225.000;   94.000
274.816;   22.700;  110.000;   34.000
274.956; -192.100; -624.000; -690.000
275.097; -266.900;-1014.000; -922.000
275.237; -242.000; -913.000; -803.000
275.377; -194.600; -778.000; -689.000
275.517; -322.200; -878.000; -937.000
275.658; -118.500; -590.000; -555.000
275.798; -214.000; -606.000; -413.000
275.938;   64.200;  215.000;  323.000
276.078; -202.300; -626.000; -395.000
276.218;   24.400;   99.000;  104.000
276.359; -289.300;-1026.000;-1024.000
276.499; -151.200; -605.000; -446.000
276.639;  -89.600; -305.000; -151.000
276.779; -113.400; -475.000; -357.000
276.919; -185.300; -783.000; -624.000
277.059;  -29.800; -261.000; -212.000
277.199; -132.100; -357.000; -259.000
277.340;   84.900;  287.000;  175.000
277.480; -229.600; -840.000; -693.000
277.620;   52.000;  192.000;   16.000
277.760; -416.800;-1533.000;-1294.000
277.900;   40.900;  113.000;   33.000
278.040;   24.500;  137.000;  159.000
278.180;   58.300;  270.000;  170.000
278.320;   12.400;   21.000;   56.000
278.460; -110.200; -443.000; -469.000
278.600; -189.400; -708.000; -598.000
278.740;  120.400;  448.000;  224.000
278.880; -264.500; -768.000; -791.000
279.020;  -19.100; -194.000; -144.000
279.160; -220.500; -672.000; -595.000
279.300; -243.700; -926.000; -873.000
279.440; -218.600; -709.000; -622.000
279.579; -291.200;-1014.000; -929.000
279.719; -146.500; -410.000; -394.000
279.859;   52.400;   -4.000;   41.000
279.999;  -56.600; -208.000;  101.000
280.139; -118.900; -435.000; -387.000
280.279; -220.400; -708.000; -745.000
280.419;   -4.100; -229.000; -147.000
280.559;  -93.900; -259.000; -180.000
280.698; -209.000; -790.000; -639.000
280.838; -229.200; -778.000; -800.000
280.978; -235.800; -846.000; -790.000
281.118; -237.000; -811.000; -704.000
281.257;   17.600;   24.000;    6.000
281.397; -341.200;-1094.000; -960.000
281.537; -219.600; -599.000; -712.000
281.677;  -44.200; -150.000; -101.000
281.816; -180.300; -700.000; -630.000
281.956;  -70.000; -193.000; -257.000
282.096; -118.200; -539.000; -396.000
282.235; -223.200; -672.000; -638.000
282.375;  -34.300; -243.000;  -98.000
282.515; -237.200; -715.000; -707.000
282.654;   56.600;   29.000;  106.000
282.794;   52.100;  388.000;  244.000
282.934; -115.500; -530.000; -491.000
283.073; -286.300;-1030.000; -857.000
283.213; -105.100; -460.000; -467.000
283.353; -135.900; -408.000; -349.000
283.492;  -60.800; -264.000; -296.000
283.632; -113.900; -254.000; -168.000
283.771; -197.300; -859.000; -730.000
283.911; -112.200; -369.000; -260.000
284.050; -218.600; -794.000; -748.000
284.190; -366.900;-1229.000;-1096.000
284.329; -330.100;-1055.000; -964.000
284.469; -202.500; -516.000; -591.000
284.608; -149.300; -559.000; -598.000
284.748; -200.100; -614.000; -570.000
284.887;    3.200;  -87.000;  -20.000
285.027; -276.700; -844.000; -892.000
285.166;  -80.300; -192.000; -249.000
285.306;  -52.000; -116.000;  -33.000
285.445;  -76.000; -229.000; -343.000
285.584; -194.900; -630.000; -494.000
285.724;  -72.500; -282.000; -322.000
285.863; -274.300; -857.000; -507.000
286.002; -114.800; -366.000; -276.000
286.142; -244.600; -715.000; -622.000
286.281; -128.500; -525.000; -493.000
286.420; -192.700; -554.000; -417.000
286.560;  218.000;  653.000;  623.000
286.699; -322.300; -958.000; -912.000
286.838; -171.500; -590.000; -591.000
286.978; -179.700; -533.000; -537.000
287.117; -299.000;-1085.000; -950.000
287.256;  -82.100; -228.000; -211.000
287.395; -104.600; -197.000; -378.000
287.535; -139.000; -370.000; -298.000
287.674; -179.900; -509.000; -484.000
287.813;   75.100;  661.000;  533.000
287.952; -292.000;-1010.000; -871.000
288.091; -337.100;-1049.000; -915.000
288.231;    5.500;   13.000;   15.000
288.370; -385.700;-1217.000;-1200.000
288.509; -181.400; -728.000; -645.000
288.648; -178.300; -770.000; -548.000
288.787;  -49.000; -243.000;  -87.000
288.926; -143.600; -454.000; -475.000
289.065;  255.200;  859.000;  672.000
289.204; -132.400; -377.000; -217.000
289.344; -208.900; -791.000; -690.000
289.483;    3.400;  416.000;  304.000
289.622;  -45.900; -291.000; -149.000
289.761;  -31.100; -309.000; -166.000
289.900; -214.500; -785.000; -626.000
290.039;  -29.400;  -12.000;  -95.000
290.178;  -49.600; -274.000; -180.000
290.317; -198.100; -618.000; -479.000
290.456; -151.600; -463.000; -451.000
290.595; -309.900; -961.000; -833.000
290.734; -276.100; -904.000; -891.000
290.873; -159.200; -456.000; -420.000
291.011; -249.900; -833.000; -843.000
291.150; -235.700; -770.000; -682.000
291.289;  -61.100; -343.000; -110.000
291.428; -207.200; -599.000; -480.000
291.567; -114.000; -370.000; -442.000
291.706;    0.900;  109.000;  154.000
291.845; -192.800; -597.000; -505.000
291.984; -357.300;-1234.000;-1061.000
292.122;  167.600;  602.000;  582.000
292.261;   91.100;  620.000;  463.000
292.400;   22.600; -144.000;  211.000
292.539; -285.300; -959.000; -813.000
292.678;  -61.800; -325.000; -300.000
292.816; -337.700;-1136.000; -965.000
292.955; -205.200; -844.000; -684.000
293.094;  -81.200; -173.000; -337.000
293.233; -128.400; -556.000; -400.000
293.371;  -71.900; -225.000;  -84.000
293.510; -217.100; -866.000; -780.000
293.649; -325.400; -959.000; -924.000
293.787; -292.500;-1083.000;-1012.000
293.926;  -41.500; -113.000;  -32.000
294.065;  -72.100; -379.000; -290.000
294.203;   79.100;  298.000;  406.000
294.342;   37.600;   74.000;  156.000
294.481;14854.000;51180.000; -836.000
294.619;  -68.200; -425.000; -582.000
294.758; -349.300;-1230.000;-1137.000
294.896;  -23.700; -125.000;    5.000
295.035; -306.600;-1040.000;-1006.000
295.174; -298.600;-1082.000; -954.000
295.312;  -93.400; -323.000; -203.000
295.451; -132.600; -307.000; -428.000
295.589; -158.200; -389.000; -518.000
295.728;   41.200; -292.000; -165.000
295.866;  -21.400;  -36.000;  -51.000
296.005; -152.200; -584.000; -341.000
296.143; -175.100; -558.000; -596.000
296.282; -247.000; -957.000; -881.000
296.420; -195.000; -657.000; -557.000
296.559; -210.600; -892.000; -633.000
296.697; -240.100; -847.000; -665.000
296.835; -326.700;-1141.000;-1002.000
296.974;    6.500;  -23.000;   39.000
297.112; -137.800; -443.000; -504.000
297.251; -246.900; -815.000; -755.000
297.389; -145.600; -576.000; -438.000
297.527;  -24.600; -145.000;  -83.000
297.666; -149.600; -486.000; -438.000
297.804; -152.200; -404.000; -264.000
297.942;  -26.200; -136.000; -161.000
298.081;  -54.100; -183.000;   63.000
298.219;  -14.800;  -17.000;  -19.000
298.357; -102.000; -144.000;  -71.000
298.495; -237.500; -810.000; -812.000
298.634;   22.900;  245.000;  219.000
298.772;  -60.100; -220.000; -338.000
298.910; -113.100; -309.000; -182.000
299.048;  -50.100; -130.000; -153.000
299.187;  -87.200; -350.000; -250.000
299.325;    4.900;   52.000;  122.000
299.463; -161.100; -389.000; -299.000
299.601;  -86.000; -327.000; -271.000
299.739; -293.800; -908.000; -883.000
299.877; -164.000; -791.000; -703.000
300.016; -326.200;-1095.000; -935.000
300.154;  -39.200;  -19.000; -161.000
300.292; -137.900; -428.000; -348.000
300.430;  -70.400; -408.000; -291.000
300.568; -287.700; -940.000; -874.000
300.706; -126.600; -366.000; -469.000
300.844; -314.700;-1108.000; -979.000
300.982;  112.300;  246.000;  282.000
301.120; -288.400; -965.000; -866.000
301.258; -200.100; -812.000; -705.000
301.396;  -13.100;  104.000;  -41.000
301.534;  -75.500; -218.000; -293.000
301.672; -190.400; -664.000; -521.000
301.810; -184.600; -613.000; -545.000
301.948;   38.700;   53.000;  149.000
302.086;  -55.700; -250.000;  -32.000
302.224; -191.200; -610.000; -585.000
302.362; -191.900; -558.000; -622.000
302.500; -273.700; -923.000; -893.000
302.638;   51.100;  128.000;  245.000
302.776;  -98.000; -352.000; -408.000
302.913;  103.400;  447.000;  236.000
303.051;  -77.100;  -86.000;  -23.000
303.189;   17.300;   90.000;  118.000
303.327;  -83.000; -341.000; -256.000
303.465; -195.500; -832.000; -588.000
303.603; -234.600; -805.000; -604.000
303.740;   83.000;  417.000;  241.000
303.878; -225.800; -800.000; -759.000
304.016; -240.700; -915.000; -790.000
304.154; -335.500;-1123.000;-1152.000
304.291; -165.900; -505.000; -554.000
304.429;    0.500;  102.000;   74.000
304.567; -294.600; -908.000; -893.000
304.705; -165.000; -408.000; -515.000
304.842; -200.200; -616.000; -540.000
304.980;   40.300;  215.000;   35.000
305.118;  -93.400; -367.000; -365.000
305.255; -304.700; -945.000; -927.000
305.393;   68.900;  178.000;  239.000
305.531; -326.300;-1173.000; -956.000
305.668; -187.000; -663.000; -582.000
305.806; -137.400; -358.000; -439.000
305.943; -158.000; -629.000; -637.000
306.081;  -95.500; -378.000; -267.000
306.219; -257.200; -863.000; -748.000
306.356;    0.900;  158.000;   27.000
306.494;  206.900;  981.000;  761.000
306.631;  -24.000;  -11.000;  -55.000
306.769; -122.100; -613.000; -485.000
306.906; -123.000; -284.000; -258.000
307.044; -158.600; -473.000; -488.000
307.181; -122.200; -410.000; -332.000
307.319;   61.200;  112.000;   87.000
307.456; -366.100;-1191.000;-1153.000
307.594; -239.000; -980.000; -727.000
307.731;  -88.000; -371.000; -164.000
307.868;   -6.600;  -15.000;   20.000
308.006; -316.000; -961.000; -847.000
308.143; -164.500; -618.000; -330.000
308.281;  -69.800;  -37.000; -254.000
308.418; -186.700; -748.000; -640.000
308.555; -194.600; -400.000; -250.000
308.693; -157.200; -577.000; -573.000
308.830; -238.200; -712.000; -657.000
308.967;  -50.800; -215.000;  -95.000
309.105; -135.600; -507.000; -396.000
309.242; -149.500; -468.000; -367.000
309.379; -197.600; -577.000; -655.000
309.517; -276.900; -936.000; -948.000
309.654; -264.700; -910.000; -734.000
309.791; -193.900; -662.000; -580.000
309.928; -305.000; -977.000; -914.000
310.065;  218.100;  819.000;  697.000
310.203; -269.000; -825.000; -850.000
310.340; -124.300; -465.000; -321.000
310.477; -182.200; -412.000; -516.000
310.614; -144.500; -383.000; -473.000
310.751; -151.700; -427.000; -518.000
310.889;  -36.600;    1.000;   11.000
311.026; -363.300;-1161.000; -939.000
311.163; -120.400; -386.000; -380.000
311.300; -192.100; -512.000; -479.000
311.437; -160.000; -658.000; -619.000
311.574; -358.600;-1226.000; -985.000
311.711; -137.500; -595.000; -433.000
311.848; -142.400; -380.000; -388.000
311.985;   23.900;  270.000;   93.000
312.122; -319.500; -932.000; -762.000
312.259; -254.400; -941.000; -994.000
312.396; -182.500; -508.000; -551.000
312.533; -210.000; -812.000; -790.000
312.670; -324.300;-1070.000; -898.000
312.807;  -87.600; -352.000; -367.000
312.944; -201.800; -513.000; -611.000
313.081; -121.700; -150.000; -415.000
313.218; -302.600;-1111.000; -867.000
313.355; -144.600; -531.000; -449.000
313.492; -106.800; -455.000; -292.000
313.629;  179.000;  815.000;  735.000
313.766; -348.300;-1176.000;-1008.000
313.902;  -42.500; -186.000;   21.000
314.039; -106.100; -372.000; -289.000
314.176;   42.800;  286.000;  192.000
314.313; -200.200; -569.000; -473.000
314.450; -219.600; -788.000; -684.000
314.587; -185.300; -468.000; -480.000
314.723;  -18.900;  -78.000;  130.000
314.860;   32.100;  318.000;  332.000
314.997;   32.800;  223.000;  142.000
315.134; -159.500; -385.000; -368.000
315.270; -130.500; -480.000; -496.000
315.407; -343.300;-1094.000; -967.000
315.544; -185.000; -657.000; -538.000
315.681; -204.200; -681.000; -565.000
315.817;  -61.200; -133.000; -176.000
315.954; -187.700; -613.000; -392.000
316.091; -324.900;-1045.000;-1023.000
316.227;  -75.900;  -71.000; -179.000
316.364;    7.500;   23.000;    6.000
316.500;  -94.600; -113.000; -300.000
316.637;  -74.300; -181.000; -302.000
316.774; -198.200; -625.000; -358.000
316.910; -194.800; -598.000; -629.000
317.047; -178.000; -487.000; -351.000
317.183; -165.000; -435.000; -566.000
317.320; -145.800; -367.000; -321.000
317.456; -218.800; -733.000; -805.000
317.593; -204.000; -598.000; -641.000
317.729;   65.800;  168.000;  -67.000
317.866; -404.600;-1434.000;-1285.000
318.002; -204.400; -708.000; -948.000
318.139; -276.100; -883.000; -867.000
318.275; -248.700;-1003.000; -738.000
318.412; -175.200; -517.000; -336.000
318.548; -190.200; -751.000; -720.000
318.685; -305.400; -985.000; -888.000
318.821; -221.800; -762.000; -735.000
318.957;  -44.800;   34.000;  -23.000
319.094;   73.200;  297.000;  154.000
319.230; -283.000; -756.000; -742.000
319.367; -154.300; -471.000; -520.000
319.503; -156.600; -538.000; -436.000
319.639; -244.900; -877.000; -793.000
319.775; -222.000; -750.000; -685.000
319.912; -169.700; -424.000; -519.000
320.048; -357.600;-1184.000;-1184.000
320.184;   43.300;   59.000;   70.000
320.321; -143.500; -497.000; -467.000
320.457;  113.700;  475.000;  662.000
320.593; -131.500; -375.000; -382.000
320.729; -230.100; -732.000; -734.000
320.866; -210.100; -577.000; -635.000
321.002; -211.100; -759.000; -809.000
321.138;  -94.600; -135.000; -211.000
321.274;  -71.400; -148.000; -115.000
321.410; -170.700; -585.000; -353.000
321.546; -283.600;-1011.000; -911.000
321.683;   30.400;  400.000;  185.000
321.819;  -34.900;  -48.000; -117.000
321.955; -236.500; -743.000; -722.000
322.091; -213.300; -585.000; -540.000
322.227; -112.300; -382.000; -202.000
322.363; -101.800; -320.000; -215.000
322.499; -106.100; -343.000; -331.000
322.635;  173.000;  636.000;  443.000
322.771;  -36.200; -139.000;   12.000
322.907;   82.200;  129.000;  327.000
323.043; -105.400; -115.000; -206.000
323.179; -130.000; -394.000; -363.000
323.315; -166.500; -401.000; -371.000
323.451; -118.400; -328.000; -236.000
323.587;  -72.900;  -60.000;  -77.000
323.723; -190.100; -682.000; -601.000
323.859;  -85.300; -258.000;  -76.000
323.995; -105.300; -467.000; -409.000
324.131; -305.000; -967.000; -892.000
324.267;  -97.200; -254.000; -276.000
324.402; -318.500; -960.000; -983.000
324.538;  -82.300; -279.000; -104.000
324.674;    8.900;  164.000;   77.000
324.810;   31.300;  226.000;  308.000
324.946; -123.800; -810.000; -658.000
325.082; -144.200; -568.000; -475.000
325.217;  -48.500;  -62.000;   16.000
325.353; -205.600; -764.000; -659.000
325.489; -192.700; -540.000; -506.000
325.625; -160.200; -579.000; -525.000
325.760;   54.100;  517.000;  376.000
325.896; -169.200; -515.000; -702.000
326.032;  -97.700; -403.000; -352.000
326.168; -124.700; -462.000; -369.000
326.303; -128.000; -352.000; -461.000
326.439;  -66.700; -336.000; -276.000
326.575;  -72.000; -190.000;  -29.000
326.710;  -38.900; -156.000;  -30.000
326.846;  -15.000;  146.000;  103.000
326.982; -170.300; -530.000; -548.000
327.117; -157.200; -481.000; -442.000
327.253; -226.600; -745.000; -742.000
327.388; -375.300;-1137.000;-1153.000
327.524; -187.800; -811.000; -578.000
327.659;  -24.800;  -58.000;  -22.000
327.795;  -13.100;   69.000;   45.000
327.931; -214.200; -723.000; -499.000
328.066;  -73.200; -417.000; -276.000
328.202;  -58.300;   12.000; -129.000
328.337;  223.700;  957.000;  713.000
328.473;  -41.800;  -12.000;  -74.000
328.608;  -83.000; -256.000; -267.000
328.743; -241.200; -799.000; -664.000
328.879;   11.200;  214.000;  114.000
329.014; -154.600; -102.000; -122.000
329.150; -127.900; -358.000; -483.000
329.285; -188.900; -465.000; -466.000
329.421; -107.100; -548.000; -246.000
329.556;  -29.800;  -36.000;   85.000
329.691; -198.000; -633.000; -615.000
329.827; -159.600; -626.000; -480.000
329.962;  -76.000;  131.000; -301.000
330.097; -235.000; -673.000; -585.000
330.233;  -87.500; -410.000; -223.000
330.368; -251.300; -839.000; -628.000
330.503;  -20.900;    3.000;   98.000
330.638;  -80.700;  -93.000; -125.000
330.774; -153.900; -609.000; -530.000
330.909;  -95.500; -434.000; -244.000
331.044; -206.900; -714.000; -708.000
331.179; -403.900;-1217.000;-1109.000
331.315;    7.600;   77.000;   20.000
331.450;   -2.100;  157.000;  285.000
331.585; -228.400; -805.000; -706.000
331.720; -192.400; -510.000; -460.000
331.855;  -55.700;  -35.000; -102.000
331.990;  -20.300;   62.000;  138.000
332.126;    6.400; -110.000;   71.000
332.261; -121.800; -379.000; -265.000
332.396;  -82.400; -135.000; -242.000
332.531; -324.800;-1074.000;-1031.000
332.666; -119.200; -519.000; -363.000
332.801; -230.200; -726.000; -807.000
332.936;  -64.900; -192.000; -122.000
333.071; -273.100; -870.000; -817.000
333.206;   52.800;  307.000;  379.000
333.341;   56.000;  344.000;  418.000
333.476; -159.000; -627.000; -623.000
333.611;  -87.900; -251.000; -173.000
333.746;  -86.300; -381.000; -464.000
333.881; -280.900; -973.000; -935.000
334.016; -284.900; -936.000; -917.000
334.151; -290.900; -746.000; -702.000
334.286;   18.800;  152.000;  186.000
334.421;  -68.500; -125.000; -178.000
334.556; -156.200; -611.000; -567.000
334.690; -223.100; -631.000; -577.000
334.825;   89.700;  381.000;   83.000
334.960; -151.400; -285.000; -413.000
335.095;   13.700;  135.000;  -91.000
335.230; -266.400; -722.000; -738.000
335.365; -304.200;-1084.000; -990.000
335.499; -328.900;-1108.000;-1037.000
335.634;  -10.500;    9.000;  534.000
335.769; -257.700; -755.000; -720.000
335.904; -181.000; -603.000; -561.000
336.038; -225.200; -735.000; -657.000
336.173; -360.900;-1206.000;-1194.000
336.308; -117.800; -116.000; -189.000
336.443; -113.600; -544.000; -634.000
336.577; -289.000; -936.000; -787.000
336.712;    2.000;   -4.000;  -12.000
336.847; -202.000; -724.000; -607.000
336.981; -146.100; -272.000; -208.000
337.116;  105.500;  615.000;  501.000
337.250; -148.800; -434.000; -421.000
337.385; -117.700; -297.000; -208.000
337.520; -216.200; -632.000; -603.000
337.654; -122.200; -215.000; -126.000
337.789; -257.300; -989.000; -933.000
337.923;  -59.500; -104.000; -205.000
338.058; -226.900; -673.000; -738.000
338.192; -195.200; -611.000; -488.000
338.327;  -59.100;  -18.000; -155.000
338.461; -196.700; -299.000; -469.000
338.596; -184.200; -780.000; -638.000
338.730; -243.400; -767.000; -803.000
338.865;  -15.000;  -46.000; -140.000
338.999; -274.400; -846.000; -702.000
339.134; -187.100; -634.000; -536.000
339.268; -242.700; -741.000; -603.000
339.403; -238.900; -740.000; -775.000
339.537; -284.200; -894.000; -820.000
339.671; -233.500; -829.000; -813.000
339.806; -203.300; -556.000; -512.000
339.940;  -68.200; -261.000; -235.000
340.074; -222.000; -685.000; -510.000
340.209;  -76.100; -351.000; -230.000
340.343; -197.300; -517.000; -573.000
340.477;  304.000;  998.000; 1036.000
340.612; -306.500;-1033.000; -900.000
340.746; -127.100; -199.000; -243.000
340.880; -271.200; -924.000; -785.000
341.014;  -41.200;  -45.000; -154.000
341.149; -271.000; -756.000; -718.000
341.283; -256.900; -839.000; -754.000
341.417; -313.300;-1124.000; -938.000
341.551; -229.100; -768.000; -708.000
341.685; -202.200; -633.000; -611.000
341.820; -192.200; -562.000; -493.000
341.954; -138.300; -218.000; -349.000
342.088; -335.200;-1102.000;-1019.000
342.222;   80.200;  565.000;  618.000
342.356; -144.800; -395.000; -335.000
342.490; -284.800; -880.000; -841.000
342.624; -115.100; -339.000; -242.000
342.758; -106.900; -364.000; -312.000
342.892; -199.100; -710.000; -585.000
343.026;  -69.200;  -58.000; -116.000
343.160;  -91.300; -426.000; -376.000
343.294; -153.200; -474.000; -337.000
343.428; -156.100; -488.000; -448.000
343.562;  -49.900; -172.000;  -23.000
343.696;  -82.900; -385.000; -314.000
343.830; -135.900; -362.000; -356.000
343.964;  -50.000; -231.000; -168.000
344.098;  -33.000;  199.000;   70.000
344.232;  -93.800; -266.000; -127.000
344.366; -203.800; -567.000; -453.000
344.500; -221.400; -665.000; -744.000
344.634; -110.000; -324.000; -164.000
344.768; -172.200; -531.000; -341.000
344.902;   32.700;  278.000;  256.000
345.035; -155.100; -556.000; -496.000
345.169; -316.700; -933.000; -656.000
345.303; -125.800; -308.000; -482.000
345.437; -263.700; -826.000; -717.000
345.571; -197.600; -675.000; -594.000
345.704; -169.200; -309.000; -532.000
345.838;  -68.600; -331.000; -284.000
345.972; -197.600; -543.000; -495.000
346.106;  -33.900; -179.000; -190.000
346.239; -119.200; -312.000; -243.000
346.373; -103.600; -343.000; -302.000
346.507; -338.300; -950.000; -962.000
346.640;  -20.400;  -30.000;   13.000
346.774; -227.500; -650.000; -797.000
346.908;  -28.000; -138.000;  -11.000
347.041; -226.800; -646.000; -593.000
347.175;   -9.400;  259.000;   27.000
347.309; -237.300; -698.000; -628.000
347.442; -260.100; -883.000; -732.000
347.576;  178.100;  670.000;  668.000
347.709;  -23.700; -123.000;  -52.000
347.843; -312.800; -933.000; -825.000
347.976;   61.400;  235.000;  294.000
348.110; -385.000;-1268.000;-1186.000
348.243; -227.000; -679.000; -772.000
348.377;  -27.500;  -26.000;   60.000
348.510;  106.800;  403.000;  540.000
348.644; -109.700;  -37.000; -159.000
348.777;    3.400;  180.000;  191.000
348.911;  -94.900; -142.000; -112.000
349.044;  124.400;  471.000;  448.000
349.178; -350.300;-1069.000;-1006.000
349.311;   27.900;  141.000;  255.000
349.444; -288.700; -927.000; -813.000
349.578;  -83.700; -347.000; -200.000
349.711; -283.600; -959.000; -862.000
349.845; -207.800; -661.000; -591.000
349.978; -393.900;-1224.000;-1137.000
350.111; -171.600; -546.000; -612.000
350.244; -230.200; -596.000; -700.000
350.378;  -98.800; -392.000; -393.000
350.511; -123.600; -393.000; -426.000
350.644; -236.500; -808.000; -806.000
350.778;   10.000;  168.000;  104.000
350.911;   18.400;  134.000;  140.000
351.044; -222.800; -685.000; -615.000
351.177;  -75.900; -321.000; -281.000
351.310;  -59.400;    3.000; -131.000
351.444; -242.900; -888.000; -788.000
351.577;   14.800;  140.000;   90.000
351.710;  179.400;  593.000;  417.000
351.843;  -48.800; -165.000;  -77.000
351.976;  -12.000;  149.000;  -79.000
352.109; -220.000; -621.000; -612.000
352.242; -131.700; -464.000; -419.000
352.376; -227.600; -580.000; -636.000
352.509; -125.300; -437.000; -356.000
352.642; -339.000; -654.000; -604.000
352.775;  -76.600; -141.000;  -98.000
352.908; -311.700; -933.000; -904.000
353.041; -266.500; -814.000; -824.000
353.174; -173.100; -551.000; -424.000
353.307; -229.600; -753.000; -764.000
353.440;  132.300;  541.000;  453.000
353.573; -270.000; -957.000;-1008.000
353.706; -185.500; -384.000; -558.000
353.839;  -92.100; -264.000; -220.000
353.971; -195.800; -657.000; -512.000
354.104; -268.200; -896.000; -835.000
354.237; -236.700; -627.000; -662.000
354.370; -238.000; -846.000; -879.000
354.503; -418.000;-1231.000;-1308.000
354.636; -113.900; -529.000; -348.000
354.769; -315.400; -937.000; -860.000
354.902;  -67.500; -230.000; -139.000
355.034;  -74.900; -164.000; -220.000
355.167;  -52.200; -262.000; -162.000
355.300; -323.300;-1061.000; -880.000
355.433;  -12.400;  -71.000;  -14.000
355.565; -191.800; -402.000; -384.000
355.698; -123.700; -356.000; -296.000
355.831; -295.500; -882.000; -801.000
355.964;  -99.000; -285.000; -170.000
356.096; -293.800; -856.000; -843.000
356.229; -173.200; -523.000; -530.000
356.362; -119.700; -373.000; -266.000
356.494;  -92.200; -229.000; -162.000
356.627;   31.800;  269.000;  377.000
356.760;    2.900;  120.000;   53.000
356.892; -229.100; -286.000; -601.000
357.025;  123.800;  403.000;  389.000
357.157;  -90.700; -167.000; -179.000
357.290; -289.700; -856.000; -713.000
357.423; -209.300; -667.000; -556.000
357.555;  -53.900; -217.000; -228.000
357.688; -187.100; -483.000; -364.000
357.820; -276.800; -870.000; -877.000
357.953; -222.100; -563.000; -589.000
358.085; -217.300; -632.000; -612.000
358.218; -301.500;-1131.000; -932.000
358.350;  -22.600;  -58.000;  312.000
358.483; -394.300;-1300.000;-1187.000
358.615; -317.300;-1182.000;-1078.000
358.747; -371.400;-1187.000;-1058.000
358.880; -265.700; -810.000; -744.000
359.012; -130.000; -376.000; -202.000
359.145; -157.200; -480.000; -511.000
359.277; -294.600; -962.000; -913.000
359.409;   95.700;  536.000;  231.000
359.542; -250.100; -738.000; -688.000
359.674;   -5.300;   46.000;   13.000
359.806; -179.400; -565.000; -438.000
359.939; -162.300; -617.000; -516.000
360.071; -203.900; -583.000; -579.000
360.203; -126.300; -411.000; -364.000
360.335;  -42.200;  164.000;  -16.000
360.468;  -67.900; -249.000; -307.000
360.600; -196.300; -547.000; -454.000
360.732; -179.000; -546.000; -423.000
360.864; -373.500;-1216.000;-1044.000
360.996; -133.300; -516.000; -554.000
361.129; -197.600; -389.000; -598.000
361.261;  -41.400;  110.000; -113.000
361.393; -103.100; -252.000; -214.000
361.525;   15.100;   94.000;  244.000
361.657; -264.500; -821.000; -703.000
361.789;  -61.300; -139.000; -155.000
361.921; -229.600; -642.000; -593.000
362.053;  157.700;  524.000;  541.000
362.185;  -15.400;  288.000;   72.000
362.318; -220.200; -709.000; -705.000
362.450;   58.000;  294.000;  444.000
362.582; -300.400; -913.000; -870.000
362.714; -166.600; -353.000; -332.000
362.846; -174.500; -606.000; -490.000
362.978; -290.700; -941.000; -811.000
363.109; -112.000; -161.000; -260.000
363.241; -244.000; -739.000; -749.000
363.373; -195.500; -649.000; -564.000
363.505;  -60.100; -186.000;  -91.000
363.637; -195.700; -787.000; -601.000
363.769; -350.500;-1067.000;-1080.000
363.901; -189.900; -596.000; -654.000
364.033; -372.900;-1103.000;-1062.000
364.165;  -73.200; -283.000; -283.000
364.296; -142.100; -316.000; -177.000
364.428; -371.400;-1344.000;-1220.000
364.560; -241.800; -679.000; -661.000
364.692; -204.700; -738.000; -835.000
364.824; -195.800; -588.000; -456.000
364.955; -121.300; -402.000; -564.000
365.087; -339.800;-1097.000; -852.000
365.219; -226.100; -686.000; -816.000
365.351; -212.400; -526.000; -572.000
365.482;   41.700;  300.000;  240.000
365.614; -116.100; -402.000; -314.000
365.746; -224.000; -729.000; -752.000
365.877; -260.200; -706.000; -672.000
366.009;  -28.300;  -35.000;  -62.000
366.141; -383.200;-1249.000;-1134.000
366.272; -231.700; -803.000; -719.000
366.404; -276.800;-1005.000; -874.000
366.535;  -38.000; -139.000;  -12.000
366.667; -213.300; -644.000; -649.000
366.799;  126.900;  353.000;  203.000
366.930; -319.900; -862.000; -996.000
367.062; -181.000; -639.000; -613.000
367.193; -290.500; -872.000; -842.000
367.325; -175.000; -580.000; -684.000
367.456; -115.100; -246.000;   31.000
367.588;  -92.500; -371.000; -318.000
367.719; -100.500;  -44.000;  -45.000
367.851;  -92.200; -222.000; -241.000
367.982; -296.200; -875.000; -732.000
368.113; -119.800; -475.000; -358.000
368.245; -321.000; -960.000; -841.000
368.376;  -89.400; -254.000; -302.000
368.508;  -93.900; -188.000; -263.000
368.639; -335.300;-1166.000;-1034.000
368.770; -243.200; -670.000; -589.000
368.902; -258.100; -836.000; -926.000
369.033; -285.500; -906.000; -855.000
369.164; -184.000; -720.000; -653.000
369.296; -232.600; -452.000; -601.000
369.427;  -82.700; -209.000; -144.000
369.558; -157.500; -593.000; -377.000
369.689; -185.000; -721.000; -569.000
369.821; -318.000; -951.000; -845.000
369.952;  -34.000;   42.000; -108.000
370.083; -102.700; -229.000; -108.000
370.214; -248.400; -735.000; -650.000
370.345;  -58.200;   65.000;   81.000
370.477; -253.300; -810.000; -790.000
370.608;  -93.200; -328.000; -264.000
370.739; -355.600;-1233.000;-1292.000
370.870; -301.600;-1102.000; -923.000
371.001; -146.000; -378.000; -467.000
371.132; -229.500; -754.000; -735.000
371.263;  -31.500;  -42.000; -148.000
371.394; -285.400; -841.000; -748.000
371.525;   74.000;  345.000;  225.000
371.657; -263.100; -808.000; -670.000
371.788;   47.500;  103.000;  199.000
371.919; -125.300; -384.000; -304.000
372.050;  -41.900;  -91.000; -156.000
372.181;  -88.800; -188.000; -294.000
372.311;  -18.300;   42.000; -127.000
372.442; -170.600; -457.000; -451.000
372.573;  -83.700; -444.000; -340.000
372.704; -328.400;-1008.000; -980.000
372.835; -103.800; -228.000; -289.000
372.966; -227.400; -646.000; -554.000
373.097; -223.300; -575.000; -711.000
373.228; -233.500; -717.000; -542.000
373.359; -217.900; -824.000; -536.000
373.490; -284.700; -881.000; -727.000
373.620; -291.700;-1001.000; -803.000
373.751; -159.400; -332.000; -396.000
373.882; -195.700; -663.000; -733.000
374.013; -133.800; -449.000; -262.000
374.143; -152.800; -581.000; -659.000
374.274; -350.300; -987.000; -908.000
374.405; -105.600; -388.000; -276.000
374.536; -184.300; -526.000; -387.000
374.666; -267.000; -759.000; -807.000
374.797; -288.000; -817.000; -868.000
374.928; -208.100; -710.000; -560.000
375.058; -181.000; -535.000; -500.000
375.189;  -27.900;  -59.000;  -93.000
375.320; -298.800; -928.000;-1034.000
375.450; -183.400; -625.000; -616.000
375.581; -175.400; -526.000; -436.000
375.712;  -97.700; -574.000; -250.000
375.842; -194.400; -438.000; -415.000
375.973; -178.600; -554.000; -513.000
376.103; -241.800; -665.000; -648.000
376.234; -188.200; -531.000; -552.000
376.364; -340.700; -944.000; -867.000
376.495;  214.900;  925.000;  529.000
376.625; -180.000; -472.000; -485.000
376.756; -212.700; -709.000; -678.000
376.886; -359.400;-1178.000;-1026.000
377.017; -341.900;-1048.000;-1061.000
377.147; -310.500; -786.000; -782.000
377.278;   72.900;  174.000;  228.000
377.408; -276.000; -801.000; -815.000
377.538; -222.000; -707.000; -693.000
377.669; -201.100; -537.000; -613.000
377.799; -209.900; -645.000; -635.000
377.929; -219.900; -610.000; -428.000
378.060; -257.800; -781.000; -847.000
378.190; -235.400; -726.000; -531.000
378.320; -119.100; -401.000; -406.000
378.451;  -58.000; -131.000;  -22.000
378.581;  -45.800;  -67.000; -110.000
378.711;  208.300; 1035.000;  866.000
378.841; -178.100; -533.000; -675.000
378.972; -272.400; -871.000; -751.000
379.102; -200.500; -652.000; -579.000
379.232; -113.600; -126.000;  -73.000
379.362; -292.800;-1001.000; -885.000
379.492; -187.900; -373.000; -424.000
379.623;   20.700;    0.000;  111.000
379.753; -328.000;-1107.000; -974.000
379.883;   41.400;   59.000;  156.000
380.013; -333.500;-1081.000;-1017.000
380.143; -330.600;-1097.000;-1056.000
380.273; -327.200; -985.000; -861.000
380.403; -123.800; -344.000; -257.000
380.533; -238.300; -651.000; -664.000
380.663;   -0.800;  173.000;  128.000
380.793; -358.200;-1027.000;-1074.000
380.923;  -87.400; -103.000;  -34.000
381.053; -245.000; -613.000; -623.000
381.183;  -72.700; -106.000; -248.000
381.313; -188.700; -656.000; -470.000
381.443; -157.700; -692.000; -473.000
381.573; -195.900; -402.000; -409.000
381.703; -365.800;-1249.000;-1095.000
381.833; -449.900;-1454.000;-1336.000
381.963;    3.500; -134.000;  -87.000
382.093; -343.400; -925.000; -909.000
382.223; -229.700; -713.000; -602.000
382.353; -255.300; -801.000; -608.000
382.482; -310.800;-1091.000; -964.000
382.612; -261.900; -872.000; -644.000
382.742; -193.400; -695.000; -622.000
382.872; -217.100; -565.000; -551.000
383.002;   12.300;  347.000; -132.000
383.131; -145.300; -226.000; -160.000
383.261; -236.400; -706.000; -768.000
383.391; -167.400; -552.000; -377.000
383.521;   93.300;  451.000;  263.000
383.650; -311.700; -947.000; -904.000
383.780; -192.000; -783.000; -656.000
383.910;  177.900;  880.000;  802.000
384.039; -274.800; -794.000; -656.000
384.169; -341.000;-1205.000;-1017.000
384.299; -217.000; -650.000; -662.000
384.428; -241.300; -764.000; -680.000
384.558; -124.200; -308.000; -275.000
384.687; -158.700; -414.000; -334.000
384.817;   -5.100;   75.000;   -2.000
384.947;  -93.900; -234.000; -141.000
385.076;  242.900;  982.000;  912.000
385.206;   75.100;  369.000;  480.000
385.335; -148.300; -549.000; -417.000
385.465; -227.500; -655.000; -663.000
385.594;  -14.400;  -53.000;  -44.000
385.724; -302.400; -868.000; -838.000
385.853; -126.900; -296.000; -270.000
385.982; -270.000; -743.000; -787.000
386.112; -289.200;-1052.000; -871.000
386.241; -138.400; -307.000; -312.000
386.371;  -64.100; -174.000;  -87.000
386.500; -266.400; -825.000; -789.000
386.629; -242.900; -874.000; -817.000
386.759;  -39.900;  -43.000;   68.000
386.888;  -87.000; -170.000; -250.000
387.017; -201.700; -648.000; -620.000
387.147; -244.200; -771.000; -798.000
387.276; -209.000; -410.000; -397.000
387.405; -111.300; -398.000; -342.000
387.535; -173.200; -452.000; -361.000
387.664; -192.900; -692.000; -620.000
387.793; -136.200; -198.000; -113.000
387.922;    7.100;  255.000;  200.000
388.052; -203.700; -576.000; -423.000
388.181; -173.300; -342.000; -472.000
388.310; -300.100; -889.000; -710.000
388.439; -268.400; -749.000; -742.000
388.568;   14.400;  365.000;  244.000
388.697; -234.700; -756.000; -653.000
388.826; -224.900; -768.000; -666.000
388.956; -122.700; -285.000; -307.000
389.085; -167.800; -347.000; -287.000
389.214; -265.600; -842.000; -872.000
389.343; -241.100; -645.000; -413.000
389.472;   46.800;  126.000;  149.000
389.601;  -10.500;   91.000;    0.000
389.730; -188.900; -568.000; -687.000
389.859;   18.300;  226.000;   46.000
389.988; -124.600; -423.000; -408.000
390.117;  -98.500; -168.000; -146.000
390.246; -114.500; -331.000; -320.000
390.375; -257.100; -673.000; -626.000
390.504; -203.000; -703.000; -621.000
390.633; -249.200; -672.000; -726.000
390.761; -246.600; -732.000; -645.000
390.890;  -82.700;   -4.000; -130.000
391.019; -143.200; -421.000; -441.000
391.148; -277.500; -826.000; -855.000
391.277; -196.600; -576.000; -493.000
391.406; -284.200; -821.000; -805.000
391.534;   43.100;  574.000; -301.000
391.663; -193.200; -583.000; -645.000
391.792; -226.200; -673.000; -701.000
391.921;  -24.600;   -3.000;   15.000
392.050; -107.400; -287.000; -228.000
392.178; -383.500;-1206.000;-1061.000
392.307; -261.700; -758.000; -712.000
392.436; -261.000; -427.000; -641.000
392.564;   -8.100;  166.000;   -6.000
392.693; -265.200; -860.000; -682.000
392.822; -186.800; -529.000; -534.000
392.950; -306.900; -880.000; -714.000
393.079; -135.500; -188.000; -328.000
393.208; -207.000; -488.000; -511.000
393.336;  -76.400; -170.000; -145.000
393.465;  -98.800; -317.000; -199.000
393.593;   -5.000;   62.000;   79.000
393.722; -328.600;-1121.000; -916.000
393.850;  -54.700; -188.000;  -61.000
393.979; -335.800; -926.000; -805.000
394.107; -145.200; -517.000; -537.000
394.236; -211.500; -570.000; -507.000
394.364;   82.100;  383.000;  206.000
394.493; -288.300; -911.000; -767.000
394.621; -284.900; -955.000; -916.000
394.750; -296.400; -873.000; -923.000
394.878;  -55.500; -247.000; -149.000
395.007; -287.200; -721.000; -807.000
395.135; -250.000; -790.000; -721.000
395.263; -352.100;-1038.000;-1040.000
395.392;   -9.900;  -25.000; -107.000
395.520; -289.800; -818.000; -679.000
395.648; -259.700; -865.000; -915.000
395.777; -212.300; -366.000; -405.000
395.905; -164.200; -449.000; -564.000
396.033;   -4.300;  217.000;  172.000
396.162; -149.400; -399.000; -453.000
396.290;  -59.200;  -17.000;   -2.000
396.418; -156.300; -555.000; -514.000
396.546; -275.700; -571.000; -466.000
396.674; -299.000; -850.000; -878.000
396.803;  -56.500;  -72.000;  -23.000
396.931;  -79.500; -179.000; -199.000
397.059; -330.700;-1026.000; -989.000
397.187; -287.000;-1026.000; -975.000
397.315; -323.600; -884.000; -649.000
397.443; -202.900; -592.000; -443.000
397.572; -192.400; -578.000; -424.000
397.700; -222.100; -607.000; -614.000
397.828;  -98.200;  120.000;  -90.000
397.956; -173.100; -508.000; -478.000
398.084; -254.500; -767.000; -626.000
398.212;   30.600;  137.000;  124.000
398.340;  -61.100;  -56.000;  159.000
398.468; -121.100; -390.000; -169.000
398.596; -301.300; -993.000; -953.000
398.724; -260.500; -762.000; -767.000
398.852; -333.500;-1024.000; -976.000
398.980; -201.200; -560.000; -560.000
399.108; -250.900; -982.000; -735.000
399.236;  -40.700;   13.000;    8.000
399.363;    1.400;  222.000;  196.000
399.491; -159.500; -404.000; -398.000
399.619; -274.700; -829.000; -800.000
399.747; -277.700; -859.000; -771.000
399.875;   58.400;  220.000;  234.000
400.003; -134.800; -359.000; -284.000
400.130; -203.800; -421.000; -341.000
400.258;  -24.900;  -83.000;   38.000
400.386; -113.300; -352.000; -168.000
400.514; -180.600; -526.000; -587.000
400.641; -333.600; -928.000; -802.000
400.769; -303.600; -979.000; -888.000
400.897; -256.900; -838.000; -793.000
401.025;  -83.500; -166.000; -152.000
401.152;   -9.100;  220.000;   38.000
401.280; -133.100; -430.000; -429.000
401.408; -239.200; -712.000; -576.000
401.535; -234.700; -735.000; -758.000
401.663; -398.100;-1134.000;-1054.000
401.790; -188.200; -514.000; -525.000
401.918;   79.900;  436.000;  405.000
402.046;  -10.900;  134.000;  122.000
402.173;  -71.500;  -18.000;    7.000
402.301; -154.100; -519.000; -397.000
402.428;   79.900;  528.000;  383.000
402.556; -349.000;-1188.000; -913.000
402.683;  -95.000;  -20.000;   -1.000
402.811;  -15.200;  -37.000; -206.000
402.938;  -51.800;   20.000;   27.000
403.066; -187.800; -574.000; -558.000
403.193;  -11.200;  299.000;  239.000
403.321; -160.700; -396.000; -574.000
403.448;  -25.800;   83.000;   27.000
403.575;  -29.800;  -90.000;  -46.000
403.703; -259.400; -732.000; -557.000
403.830; -152.800; -531.000; -496.000
403.957; -353.600;-1117.000;-1023.000
404.085;  -79.500;  -61.000; -172.000
404.212;  -36.000;  -50.000;   63.000
404.339; -129.500; -566.000; -306.000
404.467; -173.300; -612.000; -524.000
404.594;  -94.500; -287.000; -227.000
404.721; -273.100; -869.000; -764.000
404.848;  -73.500; -113.000; -202.000
404.976; -278.800; -856.000; -783.000
405.103;  -22.900;  -14.000;  -82.000
405.230;  -22.900;  190.000;  226.000
405.357;  -28.600;  117.000;   44.000
405.484;  -41.800;  -49.000;    5.000
405.612; -157.600; -548.000; -563.000
405.739; -175.900; -488.000; -243.000
405.866;  154.500;  669.000;  385.000
405.993; -124.700; -398.000; -102.000
406.120; -261.400; -801.000; -887.000
406.247; -160.300; -323.000; -342.000
406.374;  128.500;  540.000;  629.000
406.501; -228.800; -632.000; -702.000
406.628; -170.900; -621.000; -589.000
406.755; -268.100; -803.000; -620.000
406.882; -113.600; -228.000; -277.000
407.009; -229.500; -719.000; -628.000
407.136; -148.800; -480.000; -401.000
407.263; -315.100; -939.000; -829.000
407.390; -218.000; -692.000; -614.000
407.517; -392.500;-1139.000;-1187.000
407.644; -153.900; -332.000; -256.000
407.771; -196.200; -249.000; -287.000
407.898;   19.500;  168.000;  328.000
408.025; -162.700; -421.000; -313.000
408.151;   11.300;   82.000;  153.000
408.278; -136.200; -267.000; -216.000
408.405; -296.800; -931.000; -899.000
408.532; -240.400; -549.000; -542.000
408.659; -223.000; -677.000; -648.000
408.785; -431.000;-1298.000;-1170.000
408.912; -116.800; -412.000; -296.000
409.039; -226.500; -610.000; -686.000
409.166; -184.300; -591.000; -555.000
409.292; -219.300; -571.000; -534.000
409.419; -212.700; -665.000; -649.000
409.546; -143.900; -431.000; -192.000
409.672; -190.700; -713.000; -545.000
409.799;  -62.900;  -36.000;   34.000
409.926;  -75.000; -180.000; -179.000
410.052; -375.600;-1127.000;-1091.000
410.179; -167.200; -368.000; -392.000
410.305; -144.200; -375.000; -493.000
410.432; -123.100; -220.000; -333.000
410.558; -173.700; -305.000; -380.000
410.685; -209.500; -688.000; -431.000
410.812; -208.300; -409.000; -588.000
410.938; -283.000; -964.000; -808.000
411.065; -219.000; -671.000; -645.000
411.191;  -78.200; -189.000; -174.000
411.317; -298.800; -823.000; -742.000
411.444; -115.500; -317.000; -246.000
411.570; -166.500; -339.000; -294.000
411.697; -237.300; -758.000; -752.000
411.823; -355.600; -989.000; -999.000
411.949;  -84.600;  -56.000;   17.000
412.076; -201.200; -539.000; -519.000
412.202; -235.500; -758.000; -757.000
412.329; -278.900; -798.000; -752.000
412.455; -226.900; -821.000; -657.000
412.581;  -48.100;  -15.000;  172.000
412.707; -197.400; -540.000; -457.000
412.834;   47.200;  156.000;  219.000
412.960; -262.400; -785.000; -784.000
413.086; -267.500; -743.000; -701.000
413.212;  130.200;  604.000;  578.000
413.339; -263.800; -685.000; -701.000
413.465; -144.400; -364.000; -310.000
413.591; -254.900; -757.000; -474.000
413.717; -173.800; -358.000; -366.000
413.843; -286.000; -839.000; -861.000
413.969; -145.600;  -47.000; -292.000
414.096; -217.300; -679.000; -679.000
414.222;  -36.800;  -33.000;   85.000
414.348; -213.600; -652.000; -385.000
414.474;  -21.600;   38.000;  -52.000
414.600;  -80.200; -126.000; -144.000
414.726;  -74.800;  -96.000;  -55.000
414.852; -210.600; -365.000; -342.000
414.978;  -32.600;  104.000;  -18.000
415.104;  -46.200;   38.000;   80.000
415.230; -130.600; -329.000; -330.000
415.356; -212.100; -409.000; -514.000
415.482;  -44.200;   13.000;  -35.000
415.608; -118.000; -247.000; -323.000
415.734;  -24.200;   67.000;   38.000
415.860; -257.200; -875.000; -767.000
415.986; -227.900; -685.000; -607.000
416.111; -314.100; -798.000; -652.000
416.237; -177.200; -424.000; -571.000
416.363; -276.000; -765.000; -733.000
416.489; -149.700; -324.000; -251.000
416.615; -272.500; -707.000; -742.000
416.741; -222.200; -677.000; -784.000
416.866; -245.000; -673.000; -736.000
416.992; -265.700; -801.000; -818.000
417.118;  -98.100;  -41.000;  -80.000
417.244; -230.400; -798.000; -531.000
417.369; -259.500; -801.000; -612.000
417.495; -131.700; -325.000; -254.000
417.621; -325.100;-1015.000; -803.000
417.746; -196.100; -579.000; -572.000
417.872;  -71.900; -254.000; -144.000
417.998; -181.100; -515.000; -530.000
418.123; -334.800;-1073.000; -845.000
418.249; -219.700; -512.000; -601.000
418.374; -299.700; -916.000; -824.000
418.500; -165.600; -383.000; -482.000
418.626;  -45.100;   70.000;  -59.000
418.751; -192.200; -549.000; -448.000
418.877; -268.000; -637.000; -643.000
419.002; -180.500; -688.000; -560.000
419.128; -317.800; -930.000; -721.000
419.253; -264.500; -967.000; -837.000
419.379; -184.400; -391.000; -338.000
419.504;   37.100;  325.000;  415.000
419.629; -117.000; -393.000; -212.000
419.755; -100.300; -317.000; -254.000
419.880; -153.000;  -98.000;   67.000
420.006; -118.300; -280.000; -221.000
420.131; -245.100; -662.000; -775.000
420.256; -104.500; -315.000; -316.000
420.382; -224.800; -665.000; -687.000
420.507; -243.300; -649.000; -778.000
420.632; -145.900; -337.000; -339.000
420.758; -129.300; -251.000; -425.000
420.883; -277.400; -876.000; -672.000
421.008; -212.900; -775.000; -619.000
421.133; -201.100; -509.000; -467.000
421.259;  -82.700; -325.000; -259.000
421.384; -279.300; -834.000; -693.000
421.509; -291.200;-1052.000; -862.000
421.634; -350.900; -936.000; -820.000
421.759; -124.100; -359.000; -327.000
421.885; -230.300; -717.000; -656.000
422.010; -201.600; -673.000; -542.000
422.135; -286.400; -695.000; -727.000
422.260;   50.000;  340.000;  280.000
422.385; -107.600;   12.000;  -98.000
422.510;    4.200;  151.000;  -26.000
422.635;  -86.000;  -87.000;  -43.000
422.760; -230.000; -766.000; -791.000
422.885;  -72.300;  -57.000;  -80.000
423.010;  -92.000; -112.000; -169.000
423.135; -239.400; -481.000; -561.000
423.260;  -97.900; -150.000; -245.000
423.385;   25.900;  476.000;  222.000
423.510;  -25.000;   71.000;  -22.000
423.635;  -35.200;  133.000;   45.000
423.760;   72.100;  383.000;  328.000
423.885;   22.500;  336.000;  391.000
424.010;  -57.200;  -68.000;  -13.000
424.135;  -96.900;    5.000;  -33.000
424.259; -166.400; -654.000; -457.000
424.384; -186.900; -279.000; -272.000
424.509; -108.300; -260.000; -186.000
424.634; -275.400; -761.000; -623.000
424.759; -211.200; -688.000; -544.000
424.883; -211.000; -506.000; -527.000
425.008; -189.800; -502.000; -410.000
425.133; -245.900; -679.000; -653.000
425.258; -210.900; -517.000; -381.000
425.382; -251.900; -867.000; -774.000
425.507; -153.100; -487.000; -543.000
425.632; -261.200; -802.000; -663.000
425.756; -106.300; -256.000; -146.000
425.881; -308.100; -831.000; -857.000
426.006; -133.700; -604.000; -355.000
426.130; -250.000; -696.000; -508.000
426.255; -194.100; -611.000; -491.000
426.379; -126.400; -189.000; -577.000
426.504;  130.100;  660.000;  544.000
426.629; -234.400; -519.000; -466.000
426.753;  -41.100;   64.000;  -46.000
426.878; -152.500; -252.000; -288.000
427.002; -199.400; -651.000; -668.000
427.127; -133.000;  -35.000; -158.000
427.251;   69.700;  372.000;  401.000
427.375; -117.900; -191.000; -173.000
427.500; -207.600; -616.000; -610.000
427.624; -166.000; -234.000; -400.000
427.749;  -99.700; -216.000; -225.000
427.873; -213.400; -499.000; -412.000
427.997;  -94.800; -222.000; -230.000
428.122;  138.600;  795.000;  703.000
428.246;   62.700;  433.000;  434.000
428.371; -295.400; -869.000; -773.000
428.495; -228.500; -624.000; -646.000
428.619;  -91.100; -186.000; -117.000
428.743;  -19.600;   65.000;  132.000
428.868; -268.600; -732.000; -643.000
428.992; -147.900; -219.000; -326.000
429.116; -188.000; -329.000; -357.000
429.240;   48.200;  419.000;  426.000
429.365; -188.200; -454.000; -574.000
429.489; -207.400; -638.000; -647.000
429.613;  -52.500; -236.000; -177.000
429.737; -192.500; -563.000; -432.000
429.861; -128.600; -247.000; -133.000
429.985; -175.300; -425.000; -305.000
430.109; -327.600; -770.000; -908.000
430.234;    2.500;   76.000;  -50.000
430.358; -139.800; -250.000; -160.000
430.482; -231.700; -672.000; -564.000
430.606; -216.500; -655.000; -375.000
430.730; -169.100; -437.000; -388.000
430.854; -343.800; -909.000; -835.000
430.978; -254.400; -795.000; -764.000
431.102; -207.900; -499.000; -422.000
431.226; -295.200; -874.000; -815.000
431.350;   26.100;  345.000;  422.000
431.474; -199.300; -661.000; -373.000
431.597; -342.400;-1060.000; -848.000
431.721; -148.900; -276.000; -267.000
431.845; -236.700; -704.000; -472.000
431.969; -166.700; -304.000; -349.000
432.093; -185.200; -395.000; -317.000
432.217;  -18.900;   32.000;   82.000
432.341; -183.800; -523.000; -518.000
432.464;  -30.600;   96.000;   40.000
432.588; -208.700; -401.000; -329.000
432.712;  -73.300;  -52.000;  -52.000
432.836;   -5.400;  213.000;  263.000
432.959; -136.800; -372.000; -311.000
433.083;  -85.800;   11.000;    2.000
433.207;  120.400;  285.000;  930.000
433.330; -122.500; -391.000; -200.000
433.454; -186.800; -654.000; -638.000
433.578;   83.600;  583.000;  278.000
433.701; -233.800; -623.000; -675.000
433.825; -202.100; -292.000; -299.000
433.949;  -61.300;   28.000;  -72.000
434.072; -132.600; -410.000; -323.000
434.196;  -87.100; -309.000; -117.000
434.319; 7558.300;25482.000;25124.000
434.443; -221.300; -656.000; -603.000
434.566;  -15.900;  281.000;   62.000
434.690; -213.000; -637.000; -383.000
434.813; -160.000; -251.000; -173.000
434.937; -215.100; -569.000; -696.000
435.060; -186.800; -423.000; -332.000
435.184; -130.500; -492.000; -217.000
435.307;  -47.900;  159.000;  102.000
435.431;  -33.400;  -40.000;   24.000
435.554; -160.700; -399.000; -240.000
435.677; -179.000; -350.000; -258.000
435.801;  -82.000;  -25.000;   49.000
435.924;  -49.900;    1.000;  -67.000
436.048; -321.800;-1019.000; -732.000
436.171; -137.300; -240.000;  -66.000
436.294; -140.500; -248.000; -229.000
436.417; -331.000; -963.000; -849.000
436.541; -272.400; -814.000; -840.000
436.664;  -91.000; -242.000; -316.000
436.787;  -23.300;   13.000;  113.000
436.910; -243.300; -792.000; -422.000
437.034;  -10.900;  142.000;  143.000
437.157;   -6.600;  -11.000;    0.000
437.280; -191.100; -392.000; -292.000
437.403; -292.000; -982.000; -869.000
437.526; -311.400; -903.000; -865.000
437.649; -174.100; -505.000; -332.000
437.772; -278.100; -692.000; -540.000
437.896;  140.200;  700.000;  544.000
438.019; -259.900; -758.000; -503.000
438.142; -209.500; -596.000; -506.000
438.265; -262.700; -639.000; -670.000
438.388; -176.000; -520.000; -410.000
438.511; -229.100; -597.000; -394.000
438.634; -110.500; -247.000; -125.000
438.757; -301.900; -693.000; -619.000
438.880;  -57.800;  -34.000;  -57.000
439.003; -181.700; -417.000; -437.000
439.126;  -97.900; -287.000; -167.000
439.248; -100.600;  -98.000; -139.000
439.371;  -49.600;    9.000;  -53.000
439.494;   85.200;  510.000;  439.000
439.617;  -64.600;   65.000;  -88.000
439.740; -331.800; -968.000; -816.000
439.863; -267.600; -755.000; -595.000
439.986; -234.500; -476.000; -431.000
440.108;  -98.800; -161.000; -112.000
440.231; -351.300; -950.000; -836.000
440.354;  -67.900;  -64.000; -150.000
440.477; -271.800; -566.000; -542.000
440.599; -188.100; -200.000; -225.000
440.722; -273.900; -709.000; -586.000
440.845;  202.700;  751.000;  928.000
440.968; -192.000; -415.000; -311.000
441.090; -121.400; -199.000;  -33.000
441.213; -313.500;-1021.000; -825.000
441.336;  -83.300; -159.000;   -5.000
441.458; -179.600; -549.000; -396.000
441.581; -241.000; -628.000; -629.000
441.703; -130.700; -152.000;   13.000
441.826; -202.700; -557.000; -400.000
441.948;  -88.700;   56.000;   51.000
442.071;  112.800;  555.000;  424.000
442.193; -256.800; -531.000; -485.000
442.316;   -9.500;  152.000;   97.000
442.438; -108.500; -233.000;  -10.000
442.561;   34.700;  272.000;  262.000
442.683; -271.800; -809.000; -522.000
442.806;  -42.700;   -8.000;   74.000
442.928; -331.200; -859.000; -604.000
443.051; -204.100; -577.000; -373.000
443.173; -206.100; -341.000; -339.000
443.295; -149.100; -263.000; -371.000
443.418; -128.300; -321.000;  -29.000
443.540;  -53.600; -106.000;   -4.000
443.662; -256.800; -563.000; -465.000
443.785;   39.800;  335.000;  199.000
443.907; -180.100; -362.000; -208.000
444.029; -246.000; -767.000; -494.000
444.152; -278.100; -644.000; -554.000
444.274;  -47.000;  -18.000;  -24.000
444.396; -214.100; -461.000; -221.000
444.518; -239.400; -691.000; -454.000
444.640; -204.400; -268.000; -111.000
444.763;  -37.200;  388.000;  249.000
444.885; -228.000; -432.000; -392.000
445.007;  -43.900;   35.000;   86.000
445.129; -196.400; -610.000; -515.000
445.251; -191.400; -372.000; -439.000
445.373; -265.600; -537.000; -386.000
445.495;   32.500;  242.000;  350.000
445.617;  116.200;  853.000;  753.000
445.739; -135.800; -215.000;  -97.000
445.861;  -98.700; -245.000; -112.000
445.984; -113.800; -267.000; -101.000
446.105; -164.900; -418.000; -251.000
446.227; -109.000; -176.000;  -19.000
446.349; -196.600; -358.000; -249.000
446.471; -239.000; -615.000; -448.000
446.593; -118.200; -316.000;   19.000
446.715;  -78.700;  -67.000;   41.000
446.837;  140.200;  697.000;  832.000
446.959; -184.200; -457.000; -478.000
447.081; -271.600; -628.000; -518.000
447.203;  157.200;  862.000;  834.000
447.325; -110.700; -270.000;   42.000
447.446;   25.800;  286.000;  530.000
447.568; -316.900; -921.000; -803.000
447.690; -125.800; -236.000; -245.000
447.812; -300.300; -798.000; -519.000
447.933;  -44.100;  155.000;  127.000
448.055; -147.800; -306.000; -261.000
448.177;  -18.400;   31.000;   79.000
448.299; -371.100; -935.000; -727.000
448.420;   16.900;  -25.000;  159.000
448.542;  -59.100;   -3.000;   33.000
448.664;   -0.100;  109.000;  322.000
448.785;  -42.400;  265.000;   83.000
448.907; -195.200; -614.000; -353.000
449.028; -247.100; -771.000; -471.000
449.150;  101.200;  492.000;  589.000
449.272; -347.700;-1044.000; -913.000
449.393;   65.000;  612.000;  694.000
449.515; -302.500; -634.000; -581.000
449.636; -118.300; -264.000; -155.000
449.758;  105.600;  763.000;  622.000
449.879; -174.900; -498.000; -396.000
450.001; -147.000; -149.000;  -49.000
450.122;  -44.500;  -95.000;  162.000
450.244;  -46.000;   37.000;  364.000
450.365; -203.600; -495.000; -301.000
450.486;  -86.400;   80.000;  268.000
450.608;   15.700;  393.000;  326.000
450.729;   66.300;  578.000;  645.000
450.850; -227.600; -574.000; -466.000
450.972; -254.100; -552.000; -389.000
451.093;   48.800;  190.000;  588.000
451.214; -201.800; -516.000; -337.000
451.336;   81.300;  773.000;  579.000
451.457;   -4.200;  264.000;  393.000
451.578;  -79.400; -118.000;  -74.000
451.699; -254.900; -546.000; -540.000
451.821; -134.500; -284.000;  -50.000
451.942;    3.800;  278.000;  285.000
452.063;   34.800;  228.000;  419.000
452.184; -133.400;  -54.000;  -49.000
452.305;   -3.500;  103.000;  170.000
452.427; -214.900; -549.000; -301.000
452.548; -110.900;   23.000;   79.000
452.669; -154.000; -257.000;  -89.000
452.790;  -70.800;    3.000;  -18.000
452.911;  -43.800;  195.000;  259.000
453.032; -124.500; -289.000;  -60.000
453.153; -101.200;  -29.000;   81.000
453.274;  173.800;  737.000;  868.000
453.395;  -90.600;  -51.000;  175.000
453.516;  262.900; 1317.000; 1388.000
453.637; -183.500; -205.000; -150.000
453.758;  -86.000;   15.000;   69.000
453.879; -206.700; -462.000; -250.000
454.000;  176.900; 1086.000;  948.000
454.121; -247.700; -554.000; -326.000
454.242; -193.900; -599.000; -383.000
454.362;  -50.100;  -99.000;  114.000
454.483; -181.600; -309.000; -229.000
454.604;   19.700;  512.000;  580.000
454.725; -245.600; -627.000; -555.000
454.846; -248.000; -474.000; -406.000
454.967;   -5.200;  230.000;  539.000
455.087;  -33.400;  179.000;  153.000
455.208;   83.000;  554.000;  856.000
455.329; -103.000;  -22.000;   82.000
455.450;   57.400;  473.000;  633.000
455.570; -161.400; -234.000; -211.000
455.691;  -62.000;  201.000;  407.000
455.812; -168.500; -270.000;  -92.000
455.932;  -78.100;  107.000;  -97.000
456.053; -152.000;   36.000;   24.000
456.173; -171.000; -433.000; -355.000
456.294; -224.800; -476.000; -303.000
456.415;  -92.500;  -73.000;   70.000
456.535;  -34.900;  297.000;  273.000
456.656;  -33.700;  132.000;  240.000
456.776; -106.800;    3.000;  298.000
456.897;   22.100;  308.000;  513.000
457.017; -124.500; -153.000;   -3.000
457.138; -200.800; -402.000; -249.000
457.258;  -41.700;  263.000;  224.000
457.379;   28.200;  509.000;  521.000
457.499;  -24.300;  443.000;  432.000
457.620; -204.600; -407.000; -231.000
457.740; -185.100; -132.000;  -11.000
457.860;  -64.900;   87.000;   44.000
457.981; -106.300;  132.000;  124.000
458.101; -121.100;  -89.000;   40.000
458.221;   18.500;  336.000;  402.000
458.342;  -98.700;   -4.000;  -37.000
458.462;    3.000;  617.000;  352.000
458.582; -188.000; -302.000; -294.000
458.703;  -70.100;  303.000;  154.000
458.823; -109.600;   22.000;  163.000
458.943;  -35.200;  341.000;  467.000
459.063;  -64.000; 1124.000;  192.000
459.183;  -67.200;  328.000;  313.000
459.304;   37.400;  315.000;  517.000
459.424; -172.800; -246.000;  -89.000
459.544;   50.500;  388.000;  764.000
459.664;   38.500;  499.000;  506.000
459.784;  134.100; 1004.000; 1175.000
459.904;  113.700;  867.000;  744.000
460.024;  165.000;  867.000;  684.000
460.144;   -0.200;  449.000;  554.000
460.264;    4.600;  515.000;  327.000
460.385; -159.000; -145.000; -119.000
460.505;  155.100;  905.000;  858.000
460.625; -145.400;  -17.000;  -68.000
460.745;    6.100;  396.000;  541.000
460.864;  -72.500;  153.000;  469.000
460.984;   22.300;  499.000;  573.000
461.104;  311.400; 1656.000; 1775.000
461.224;   98.200;  657.000;  650.000
461.344;  -35.500;  431.000;  360.000
461.464;  -30.700;  258.000;  513.000
461.584;  -45.100;  283.000;  466.000
461.704;  -81.200;   58.000;  108.000
461.824;  -92.500;  238.000;  259.000
461.943;  -50.500;  191.000;  130.000
462.063; -152.500;    2.000;  324.000
462.183;   93.400;  639.000;  717.000
462.303;  237.000; 1678.000; 1230.000
462.422;   95.000;  781.000;  840.000
462.542;  -79.100;  271.000;  391.000
462.662;  -21.000;  353.000;  380.000
462.782;   29.000;  833.000;  572.000
462.901;   29.000;  545.000;  717.000
463.021;  290.500; 1702.000; 1638.000
463.141;    3.000;  337.000;  770.000
463.260;    2.900;  614.000;  474.000
463.380;   94.400;  902.000;  884.000
463.499;  -32.300;  342.000;  332.000
463.619;  -21.200;  581.000;  559.000
463.738;  269.400; 1644.000;  903.000
463.858;   67.800;  657.000;  811.000
463.978;  -23.300;  542.000;  396.000
464.097;  132.600;  921.000; 1114.000
464.217;  197.400; 1196.000; 1143.000
464.336;  184.600; 1068.000; 1130.000
464.455;  -55.500;  328.000;  659.000
464.575;   28.700;  597.000;  602.000
464.694;  162.400; 1204.000; 1179.000
464.814;  138.200; 1190.000; 1138.000
464.933;  196.800; 1095.000; 1027.000
465.052;  230.400; 1412.000; 1054.000
465.172;   60.400;  922.000;  799.000
465.291;  231.900; 1376.000; 1320.000
465.410;   45.700;  462.000;  735.000
465.530;  212.000; 1355.000; 1310.000
465.649;  145.400; 1209.000; 1273.000
465.768;  297.500; 1673.000; 1508.000
465.888;  115.200;  941.000; 1174.000
466.007;  239.600; 1335.000; 1440.000
466.126;   50.800;  721.000;  641.000
466.245;  160.800; 1176.000; 1187.000
466.364;   61.700;  950.000; 1060.000
466.484;  167.800; 1024.000; 1213.000
466.603;   76.000; 1101.000; 1222.000
466.722;  284.300; 1490.000; 1769.000
466.841;  153.900; 1151.000; 1401.000
466.960;  115.800; 1069.000;  972.000
467.079;  321.400; 1971.000; 1786.000
467.198;  162.600; 1238.000; 1181.000
467.317;  212.500; 1768.000; 1162.000
467.436;  199.200; 1709.000; 1261.000
467.555;  312.600; 1796.000; 1746.000
467.674;  182.900; 1227.000; 1329.000
467.793;  126.300; 1376.000; 1374.000
467.912;  224.200; 1658.000; 1539.000
468.031;  322.600; 2038.000; 1930.000
468.150;  320.900; 1842.000; 1837.000
468.269;  415.600; 2313.000; 2090.000
468.388;  401.700; 2168.000; 2339.000
468.507;  600.900; 2884.000; 2903.000
468.626;  588.900; 2555.000; 2541.000
468.744;  342.800; 2018.000; 2174.000
468.863;  505.100; 2312.000; 2523.000
468.982;  214.600; 1503.000; 1555.000
469.101;  538.100; 2788.000; 2692.000
469.220;  309.300; 2333.000; 2176.000
469.338;  528.100; 2935.000; 3051.000
469.457;  459.400; 2719.000; 2545.000
469.576;  743.100; 3953.000; 3784.000
469.695;  502.200; 2877.000; 3066.000
469.813;  836.200; 4148.000; 4192.000
469.932;  858.000; 4255.000; 4485.000
470.051;  782.500; 4075.000; 4161.000
470.169;  844.900; 4470.000; 4338.000
470.288;  956.500; 4700.000; 4809.000
470.406; 1056.000; 5059.000; 5194.000
470.525; 1206.300; 6101.000; 5787.000
470.644; 1324.200; 6847.000; 6794.000
470.762; 1650.900; 8397.000; 7873.000
470.881; 1766.100; 8651.000; 8464.000
470.999; 2056.000; 9685.000; 9151.000
471.118; 2252.500;11174.000;10711.000

