
Integration time [ms]: 100.000
Averaging Nr. [scans]: 40
Smoothing Nr. [pixels]: 0
Data measured with spectrometer [name]: 2101012U2
Wave   ;Sample   ;Dark     ;Reference
[nm]   ;[counts] ;[counts] ;[counts] 

197.733;   54.525;  516.000;  404.000
197.879;  -73.425; -610.000; -634.000
198.025;  -58.650; -475.000; -420.000
198.171;  -62.425; -602.000; -612.000
198.317;  -30.900; -401.000; -316.000
198.463;  -49.050; -655.000; -404.000
198.609;   22.700;  181.000; -137.000
198.755;  -76.600; -644.000; -410.000
198.901;  -71.300; -505.000; -424.000
199.047;  -59.575; -615.000; -488.000
199.193;  -39.250; -230.000; -468.000
199.339;  -26.325; -222.000; -369.000
199.485;   44.800;  330.000;  271.000
199.631;   19.075;  227.000;  310.000
199.777;  -38.950; -466.000; -398.000
199.923;  -57.175; -610.000; -424.000
200.069;    2.525; -141.000;  -58.000
200.215;   65.350;  128.000;  453.000
200.361;   32.600;  243.000;  477.000
200.507;  -57.625; -600.000; -373.000
200.653;  -25.050; -371.000; -194.000
200.798;  -27.725; -215.000; -125.000
200.944;    2.425; -146.000;  -41.000
201.090;   52.175;   61.000;  222.000
201.236;   -5.750; -116.000; -158.000
201.382;  121.925;  874.000;  903.000
201.528;   -1.400;  -58.000;  -48.000
201.674;  -27.275; -386.000; -293.000
201.819;  -60.400; -540.000; -439.000
201.965;  -84.725; -699.000; -447.000
202.111;  -27.975; -273.000; -226.000
202.257;  -39.550; -250.000; -238.000
202.402;    1.375;   13.000;  -36.000
202.548;  -29.200; -169.000; -116.000
202.694;   83.450;  410.000; -183.000
202.840;  -63.800; -603.000; -531.000
202.985;  -73.050; -681.000; -639.000
203.131; -106.900; -832.000; -666.000
203.277;  -11.825; -199.000; -262.000
203.423;  -49.575; -434.000; -520.000
203.568;  -45.550; -462.000; -237.000
203.714;  -45.725; -535.000; -542.000
203.860;  -79.575; -682.000; -641.000
204.005;   24.750;  112.000;  167.000
204.151;   81.225;  561.000;  556.000
204.296;  -35.100; -354.000; -221.000
204.442;  -68.500; -600.000; -547.000
204.588;  -62.825; -592.000; -579.000
204.733;    9.850;  178.000;  168.000
204.879; -120.750;-1018.000; -822.000
205.025;   -0.500;  -99.000;  126.000
205.170;    1.650;  -17.000;   94.000
205.316;   76.625;  438.000;  661.000
205.461;  -74.475; -698.000; -554.000
205.607;   87.325;  609.000;  665.000
205.752;  -70.450; -626.000; -551.000
205.898;  -49.375; -501.000; -391.000
206.043;  -60.400; -578.000; -506.000
206.189;  -48.825; -243.000; -285.000
206.334;   68.025;  554.000;  606.000
206.480;   83.250;  409.000;  239.000
206.625;  -77.750; -529.000; -552.000
206.771;  -24.025; -451.000; -373.000
206.916;  -24.125; -210.000; -537.000
207.062;  -75.925; -545.000; -591.000
207.207;  -55.225; -546.000; -443.000
207.353;   45.925;  185.000;  460.000
207.498;   23.100;  196.000;   85.000
207.643;  -53.025; -501.000; -370.000
207.789; -128.925;-1069.000; -910.000
207.934;  -86.375; -665.000; -713.000
208.080;  -22.275; -154.000;   66.000
208.225;  -12.450;  -22.000;  -57.000
208.370;  -77.325; -727.000; -619.000
208.516;  -81.250; -741.000; -487.000
208.661;  -41.750; -127.000;  -69.000
208.806;  -17.800; -165.000; -171.000
208.952; -121.550;-1044.000; -731.000
209.097;   68.775;  378.000;  349.000
209.242;  -52.750; -307.000; -382.000
209.387;   77.150;  392.000;  350.000
209.533;  -42.325; -321.000; -350.000
209.678;   86.025;  472.000;  543.000
209.823;  -58.300; -408.000; -310.000
209.969;  -97.875; -860.000; -757.000
210.114; -106.500; -907.000; -719.000
210.259; -117.300; -939.000; -889.000
210.404;    0.725; -171.000;  103.000
210.549;    5.225;  108.000;    3.000
210.695;   -8.850;   -3.000;  -95.000
210.840;   34.925;   94.000;   67.000
210.985;  -57.825; -484.000; -303.000
211.130;   65.500;  268.000;  406.000
211.275;   15.875;  207.000;  199.000
211.420;  -52.600; -300.000; -289.000
211.566;  -64.775; -536.000; -489.000
211.711;   18.300;  218.000;  157.000
211.856;  -62.225; -545.000; -519.000
212.001;    1.750;  151.000;   44.000
212.146;   23.875;  153.000;   49.000
212.291;  -19.900; -210.000; -186.000
212.436;  -17.825; -280.000;   -6.000
212.581;  -81.625; -685.000; -653.000
212.726;  -73.575; -487.000; -538.000
212.871;  -41.650; -552.000; -217.000
213.016; -143.175;-1172.000;-1029.000
213.161;   59.975;  406.000;  291.000
213.306;  -69.300; -435.000; -577.000
213.451; -100.975; -778.000; -689.000
213.596;  -39.975; -455.000; -347.000
213.741;  -53.100; -448.000; -538.000
213.886;  -72.125; -498.000; -517.000
214.031;  -13.175; -294.000; -124.000
214.176;  -39.375; -408.000; -341.000
214.321;  -21.375; -296.000; -157.000
214.466;  -11.825; -163.000;  -43.000
214.611;   -1.700;  -61.000;  -10.000
214.756; -107.150; -948.000; -858.000
214.901;  -26.000; -388.000; -226.000
215.046; -102.100; -797.000; -825.000
215.191;   21.550;  128.000;   35.000
215.336;   -7.950; -157.000;  -19.000
215.480;  -57.500; -684.000; -505.000
215.625;  -22.450; -175.000;  -19.000
215.770;  -80.625; -757.000; -662.000
215.915;    5.800;   -5.000;  -97.000
216.060;   -5.900; -113.000;  -21.000
216.205; -111.175; -731.000; -779.000
216.349;  -66.825; -470.000; -533.000
216.494; -122.825; -939.000; -867.000
216.639; -115.975; -823.000; -888.000
216.784;  -77.725; -577.000; -525.000
216.929;   56.325;  392.000;  281.000
217.073;   -5.675; -244.000;  -31.000
217.218;    2.725;   78.000;  -47.000
217.363;  -80.500; -656.000; -618.000
217.507;  -74.275; -623.000; -588.000
217.652; -126.175; -845.000; -874.000
217.797;  -83.500; -708.000; -659.000
217.942; -114.600; -856.000; -720.000
218.086;   65.900;  608.000;  539.000
218.231;  -21.775; -174.000;  -26.000
218.376;  -33.475; -337.000; -229.000
218.520;   22.825;  -41.000;   96.000
218.665;  -28.925; -338.000; -204.000
218.810;  -30.075; -275.000; -233.000
218.954;    9.800;  201.000;   35.000
219.099; -108.825; -713.000; -963.000
219.243;  -64.925; -589.000; -554.000
219.388;  -20.875; -264.000; -136.000
219.532;  -19.400; -116.000; -116.000
219.677;  -70.650; -564.000; -521.000
219.822;   -2.625;   33.000;   89.000
219.966;   17.225;   17.000;  -99.000
220.111;  -29.525; -328.000;  -40.000
220.255;  -84.075; -797.000; -750.000
220.400;  -20.725; -180.000; -146.000
220.544;  -59.350; -516.000; -450.000
220.689;  -50.325; -422.000; -451.000
220.833;  -12.975; -123.000;  -58.000
220.978;  -46.725; -393.000; -563.000
221.122;   20.450;  319.000;  307.000
221.267; -108.300; -906.000; -837.000
221.411;  -59.300; -478.000; -394.000
221.555;   -6.100; -104.000;  -23.000
221.700;  -42.600; -329.000; -222.000
221.844;   33.625;  255.000;  272.000
221.989;  -43.425; -328.000; -311.000
222.133;  -33.650; -289.000; -307.000
222.277;  -10.575;    5.000;   78.000
222.422;   16.925;  227.000;  113.000
222.566;  -28.500; -381.000; -214.000
222.711;  -75.000; -414.000; -479.000
222.855;  -74.800; -643.000; -586.000
222.999;  -90.725; -642.000; -717.000
223.144;  -30.700; -195.000; -194.000
223.288;   45.700;  423.000;  251.000
223.432;   20.325;  184.000;  230.000
223.576;   14.625;  152.000;  -21.000
223.721;   44.650;  364.000;  273.000
223.865;  -60.125; -472.000; -475.000
224.009;  242.625; 1673.000; 1631.000
224.153;  -73.400; -660.000; -671.000
224.298;  -58.500; -531.000; -489.000
224.442;  -14.700;  -74.000;  -33.000
224.586;   -7.450; -169.000; -106.000
224.730;  -97.375; -858.000; -670.000
224.875; -101.525; -739.000; -688.000
225.019;   11.150;  102.000;  188.000
225.163;   50.700;  208.000;  341.000
225.307;    9.375;   97.000;  -91.000
225.451;   46.975;  360.000;  481.000
225.595;   36.925;  264.000;  176.000
225.739;  -12.575; -170.000;  -94.000
225.884;    3.950;   86.000;    5.000
226.028;  -83.450; -760.000; -626.000
226.172;  -40.300; -260.000; -273.000
226.316; -121.025; -941.000; -902.000
226.460;  -61.875; -645.000; -493.000
226.604;  -55.075; -406.000; -400.000
226.748; -103.000; -836.000; -733.000
226.892;  -25.775; -227.000; -181.000
227.036;  -53.525; -537.000; -447.000
227.180;  -66.725; -551.000; -375.000
227.324;  -69.925; -561.000; -580.000
227.468; -103.150; -819.000; -717.000
227.612;   16.900;  242.000;  -28.000
227.756;  -84.625; -845.000; -698.000
227.900;   54.650;  342.000;  441.000
228.044;  -54.650; -509.000; -290.000
228.188;   50.725;  448.000;  568.000
228.332;  -80.000; -546.000; -472.000
228.476;  -33.525; -223.000; -149.000
228.620;  -28.800; -210.000; -150.000
228.764;   65.000;  431.000;  349.000
228.908;  -21.075; -155.000;   30.000
229.052;  -73.200; -615.000; -528.000
229.195;  -20.200; -172.000;   13.000
229.339;  -20.750; -235.000; -305.000
229.483;  -16.500;    5.000; -162.000
229.627;   -6.450; -156.000;  139.000
229.771;  -36.000; -218.000; -294.000
229.915;    9.000;  230.000;   79.000
230.059;  -80.925; -648.000; -663.000
230.202;  -36.225; -370.000; -317.000
230.346;  -12.200; -107.000;  107.000
230.490;  -62.925; -489.000; -521.000
230.634; -102.050; -736.000; -553.000
230.777;   74.400;  478.000;  509.000
230.921;  -46.225; -450.000; -359.000
231.065;  -48.025; -246.000; -286.000
231.209;   21.675;  261.000;  265.000
231.352;   11.625;   54.000;   40.000
231.496;   25.575;  568.000;  188.000
231.640;  -99.900; -693.000; -621.000
231.783;   48.150;  546.000;  525.000
231.927;  -43.975; -294.000; -365.000
232.071; -112.025; -962.000; -736.000
232.214; -126.525; -980.000; -764.000
232.358;  -93.725; -683.000; -599.000
232.502;    3.550;  -19.000;    7.000
232.645; -128.325;-1090.000; -927.000
232.789;  -23.175; -257.000; -218.000
232.933;  -35.275; -407.000; -224.000
233.076; -124.475;-1038.000; -897.000
233.220;  -99.350; -752.000; -777.000
233.363;  -79.700; -669.000; -477.000
233.507;   60.025;  371.000;  129.000
233.650; -102.525; -764.000; -834.000
233.794;   37.600;  438.000;  461.000
233.938;  -68.375; -530.000; -362.000
234.081;  -23.925;  -93.000;   31.000
234.225;  -64.100; -631.000; -539.000
234.368; -105.350; -773.000; -723.000
234.512;  -43.375; -385.000; -299.000
234.655;  -68.825; -582.000; -555.000
234.798;  -68.900; -493.000; -466.000
234.942; -123.800; -884.000;-1002.000
235.085;  -77.775; -651.000; -443.000
235.229;  -53.050; -405.000; -410.000
235.372;  -58.900; -247.000; -191.000
235.516;  -67.325; -397.000; -321.000
235.659;   14.700;   92.000;  121.000
235.802;  -12.175;  -38.000;  -22.000
235.946;   26.825;  335.000;  215.000
236.089;   21.600;  126.000;  250.000
236.233;   34.375;  275.000;  298.000
236.376;  -46.200; -235.000; -378.000
236.519;  -40.900; -297.000; -319.000
236.663;  -20.125; -215.000; -117.000
236.806; -136.750;-1029.000; -999.000
236.949;   48.925;  543.000;  431.000
237.092;   60.425;  412.000;  391.000
237.236;  -88.075; -589.000; -502.000
237.379;   61.775;  352.000;  428.000
237.522; -121.000; -879.000; -768.000
237.666;  -10.825; -271.000;   18.000
237.809; -108.500; -851.000; -823.000
237.952;   25.725;  469.000;  271.000
238.095;  -62.200; -447.000; -442.000
238.238;   64.525;  688.000;  700.000
238.382;   -5.375;  166.000;  103.000
238.525;  -82.975; -598.000; -511.000
238.668; -111.375;-1060.000; -985.000
238.811;  -76.075; -638.000; -643.000
238.954;  -64.600; -483.000; -334.000
239.097;   84.275;  617.000;  664.000
239.241;   25.925;  394.000;  326.000
239.384;  -42.875; -254.000; -214.000
239.527;  -50.700; -424.000; -224.000
239.670; -130.225; -994.000;-1091.000
239.813;  -98.975; -696.000; -658.000
239.956;   77.675;  579.000;  473.000
240.099;  -99.450; -778.000; -725.000
240.242;   48.125;  428.000;  432.000
240.385;   37.300;  466.000;  450.000
240.528;  -74.025; -706.000; -473.000
240.671;   11.100;  189.000;  134.000
240.814;  -42.725; -441.000; -158.000
240.957;  -99.000; -767.000; -578.000
241.100;  -92.050; -779.000; -755.000
241.243; -135.050;-1234.000; -893.000
241.386;  -67.850; -508.000; -379.000
241.529;  -89.475; -735.000; -547.000
241.672;  -57.250; -566.000; -495.000
241.815; -116.275; -832.000; -808.000
241.958;  -28.425; -125.000; -182.000
242.101;  -70.250; -545.000; -390.000
242.244;  -51.225; -270.000; -325.000
242.387;  -39.125; -304.000; -246.000
242.530;   43.600;  470.000;  134.000
242.673;  -42.750; -381.000; -309.000
242.815; -116.275; -925.000; -899.000
242.958;  -57.375; -482.000; -381.000
243.101;    0.050;  132.000;  187.000
243.244;  -73.700; -564.000; -521.000
243.387;  -50.075; -313.000; -316.000
243.530;  -77.550; -657.000; -674.000
243.672;   -5.750;   43.000;  -92.000
243.815;  -45.300; -355.000; -283.000
243.958;   -9.250;   98.000;  -26.000
244.101;   17.300;   59.000;  -16.000
244.243;  -28.775;  -47.000;  101.000
244.386; -108.900; -761.000; -630.000
244.529;  -24.725; -132.000; -139.000
244.672; -147.050;-1154.000; -951.000
244.814;  -90.975; -621.000; -794.000
244.957;  -61.600; -380.000; -304.000
245.100;  -65.875; -489.000; -489.000
245.242;  -51.775; -387.000; -374.000
245.385;   -1.225;  -59.000;  -39.000
245.528; -119.025; -871.000; -705.000
245.670;   75.125;  612.000;  634.000
245.813;  -75.200; -599.000; -547.000
245.956;  -40.425; -324.000; -275.000
246.098;  -68.400; -508.000; -650.000
246.241;    1.575;  194.000;   48.000
246.383;  -17.900; -119.000;  -73.000
246.526;  -70.975; -454.000; -525.000
246.669; -114.375; -889.000; -780.000
246.811;   25.575;  172.000;   -1.000
246.954;  -60.800; -512.000; -426.000
247.096;  -23.325;  -84.000;   -6.000
247.239;  -56.325; -482.000; -445.000
247.381;  -68.550; -647.000; -488.000
247.524;   78.925;  645.000;  679.000
247.666;   -6.750;   58.000;   11.000
247.809;  -97.350; -887.000; -691.000
247.951;   -6.950;  -75.000;  138.000
248.094;   21.650;  432.000;  308.000
248.236; -160.850;-1262.000;-1238.000
248.378;   33.825; -356.000;  -81.000
248.521;  -24.250; -334.000; -337.000
248.663;  -38.775; -236.000; -267.000
248.806;  -25.175; -300.000; -266.000
248.948;  -97.500; -886.000; -763.000
249.090;  -39.725; -428.000; -398.000
249.233;  -46.050; -344.000; -381.000
249.375;  -71.650; -474.000; -451.000
249.518;  -15.200;  -83.000; -133.000
249.660;   -7.800; -103.000;    3.000
249.802; -176.475;-1303.000;-1189.000
249.945;  -80.600; -612.000; -540.000
250.087; -112.650; -834.000; -768.000
250.229;  -54.725; -362.000; -480.000
250.371;  -65.775; -494.000; -439.000
250.514;  -43.125; -310.000; -244.000
250.656;  -59.525;   69.000;  102.000
250.798; -116.650; -849.000; -800.000
250.940;  -57.825; -322.000; -322.000
251.083;  -34.050; -335.000; -111.000
251.225;   58.825;  338.000;  310.000
251.367;  -36.275; -274.000; -373.000
251.509;  -27.350; -265.000; -210.000
251.651;  -90.675; -731.000; -671.000
251.794;   64.000;  538.000;  632.000
251.936; -112.225; -821.000; -747.000
252.078;  -68.475; -540.000; -461.000
252.220;  -70.425; -645.000; -477.000
252.362;   94.450;  344.000;  462.000
252.504;  -76.275; -677.000; -584.000
252.646; -103.150; -875.000; -722.000
252.788;   -8.875;   14.000; -128.000
252.931;  -24.850; -257.000; -253.000
253.073;  -46.075; -376.000; -317.000
253.215;   -5.025;  141.000;  122.000
253.357;  -18.525;   82.000; -153.000
253.499;  -59.050; -374.000; -234.000
253.641;  -81.950; -749.000; -594.000
253.783;  -79.125; -609.000; -527.000
253.925;  -93.650; -586.000; -591.000
254.067; -106.625; -744.000; -667.000
254.209;  -21.900; -391.000; -259.000
254.351; -135.650; -865.000; -883.000
254.493;  -69.375; -441.000; -417.000
254.635; -124.825; -936.000; -818.000
254.777;  -86.225; -752.000; -687.000
254.918;  -60.100; -512.000; -430.000
255.060;  -63.750; -551.000; -395.000
255.202;  -66.025; -473.000; -261.000
255.344;  -82.500; -658.000; -455.000
255.486;  -68.550; -471.000; -406.000
255.628; -110.325; -780.000; -781.000
255.770;  -83.700; -676.000; -536.000
255.912;  -72.800; -559.000; -468.000
256.053;  -81.400; -730.000; -508.000
256.195;  151.650; 1008.000;  903.000
256.337;  -88.925; -861.000; -595.000
256.479;   56.050;  532.000;  416.000
256.621;  -47.850; -394.000; -212.000
256.762;  -99.050; -789.000; -742.000
256.904;   51.525;  485.000;  487.000
257.046;  -54.975; -381.000; -271.000
257.188;  -30.250; -351.000; -264.000
257.329;  -81.450; -525.000; -464.000
257.471; -113.325; -939.000; -807.000
257.613;  -68.975; -584.000; -498.000
257.755; -133.500;-1073.000; -982.000
257.896;   38.000;  286.000;  392.000
258.038;  -67.900; -403.000; -352.000
258.180;  -36.200; -354.000; -279.000
258.321;  -79.625; -581.000; -457.000
258.463;   12.625;  -71.000;  133.000
258.605;  -87.775; -562.000; -570.000
258.746;  -98.875; -886.000; -772.000
258.888; -150.875;-1026.000;-1020.000
259.029;    9.625;  121.000;   -8.000
259.171;  -72.650; -614.000; -550.000
259.313;  -16.925;  -49.000;  -47.000
259.454;  -66.250; -536.000; -414.000
259.596;  -57.025; -483.000; -390.000
259.737;  -76.625; -590.000; -474.000
259.879;   34.550;  217.000;  311.000
260.020;   87.450;  901.000;  636.000
260.162;  -28.900; -146.000; -253.000
260.303; -102.075; -768.000; -687.000
260.445;  -75.350; -609.000; -613.000
260.586;   37.625;  392.000;  157.000
260.728;  -46.250; -360.000; -248.000
260.869; -119.125; -350.000; -343.000
261.011;   65.050;  706.000;  537.000
261.152;  -41.000; -479.000; -319.000
261.293;  -74.575; -576.000; -595.000
261.435;  -28.000; -219.000; -184.000
261.576;  -62.700; -455.000; -325.000
261.718;   44.150;  420.000;  470.000
261.859; -123.775; -940.000; -949.000
262.000; -127.375; -951.000;-1016.000
262.142;  -22.725;  -52.000;  -60.000
262.283; -113.950; -808.000; -691.000
262.424;  -87.325; -666.000; -625.000
262.566; -145.500;-1161.000; -983.000
262.707; -111.550; -840.000; -830.000
262.848; -119.625; -769.000; -726.000
262.990;  -54.025; -362.000; -345.000
263.131;   75.900;  650.000;  681.000
263.272;  -19.200;  -61.000;  -41.000
263.413;  -72.550; -589.000; -561.000
263.555;  -63.075; -669.000; -143.000
263.696;  -68.050; -550.000; -641.000
263.837;  -64.350; -449.000; -551.000
263.978;    2.300;   -5.000;  -77.000
264.119;  -43.150; -283.000; -264.000
264.261; -101.475; -847.000; -630.000
264.402;   -1.825;   33.000;   40.000
264.543;  -87.575; -509.000; -524.000
264.684;   -9.425;   61.000;  -50.000
264.825;  -82.600; -816.000; -538.000
264.966;   -2.550;  -84.000;  -67.000
265.107; -100.650; -646.000; -670.000
265.248; -133.950; -825.000; -812.000
265.390;   -3.100;  152.000;   -9.000
265.531;  -30.075; -238.000; -107.000
265.672;  -82.400; -557.000; -630.000
265.813;   58.075;  563.000;  439.000
265.954; -131.925; -959.000; -940.000
266.095;  -13.950; -372.000; -322.000
266.236;  -81.525; -686.000; -548.000
266.377;  -42.550; -243.000; -297.000
266.518;  -71.400; -619.000; -547.000
266.659;   29.600;  170.000;  268.000
266.800;   -4.575;   83.000;   85.000
266.941;  -79.425; -487.000; -478.000
267.082;   13.750;  354.000;   99.000
267.223;  -67.425; -344.000; -273.000
267.364; -108.400; -892.000; -686.000
267.504;  -15.350;    3.000;  135.000
267.645;   -3.950;  160.000;   67.000
267.786;  -37.675; -147.000;  -86.000
267.927;  -60.700; -473.000; -379.000
268.068;  -24.250; -186.000;  -61.000
268.209;  -37.450; -175.000; -413.000
268.350;  -64.725; -388.000; -532.000
268.490;  -88.825; -648.000; -521.000
268.631;   16.250;  127.000;  225.000
268.772; -113.525; -874.000; -647.000
268.913;  -54.100; -328.000; -476.000
269.054;   -9.775; -117.000;   12.000
269.194;  -57.275; -418.000; -402.000
269.335; -151.225;-1137.000;-1074.000
269.476;  -28.050;   33.000;  -35.000
269.617;  -44.425; -347.000; -392.000
269.757;  -88.450; -713.000; -646.000
269.898;  -79.900; -856.000; -613.000
270.039;  -69.350; -415.000; -405.000
270.180; -134.775; -952.000; -816.000
270.320;  -33.775; -190.000; -250.000
270.461;  -36.050; -277.000; -249.000
270.602;  -22.225; -186.000; -156.000
270.742; -118.950; -868.000; -943.000
270.883;  -64.750; -442.000; -390.000
271.023;  -49.175; -358.000; -357.000
271.164;  -80.225; -607.000; -528.000
271.305;  -95.900; -666.000; -654.000
271.445;  -90.900; -722.000; -683.000
271.586;  -70.450; -462.000; -283.000
271.726;  -52.675; -397.000; -322.000
271.867;  -63.275; -594.000; -534.000
272.008;  194.100; -473.000; -285.000
272.148;  147.300;  462.000;  468.000
272.289;    4.925; -113.000; -181.000
272.429;   16.450;   19.000;  185.000
272.570;  -79.950; -633.000; -737.000
272.710;  -96.625; -825.000; -775.000
272.851;  -21.900;  113.000; -130.000
272.991; -162.325;-1173.000;-1077.000
273.131;  -74.300; -419.000; -459.000
273.272;  -94.600; -683.000; -723.000
273.412;   -0.100; -143.000;  -31.000
273.553;  -49.525; -488.000; -507.000
273.693;  135.675;  913.000;  858.000
273.834;  -87.750; -894.000; -692.000
273.974;  -79.825; -664.000; -615.000
274.114;  -76.475; -772.000; -560.000
274.255;   75.850;  414.000;  373.000
274.395;   11.725; -180.000; -125.000
274.535;   26.750;  199.000;  350.000
274.676;   21.250;  225.000;   94.000
274.816;   17.000;  110.000;   34.000
274.956;  -80.950; -624.000; -690.000
275.097;  -53.925;-1014.000; -922.000
275.237; -102.350; -913.000; -803.000
275.377; -105.875; -778.000; -689.000
275.517; -132.725; -878.000; -937.000
275.658;  -71.675; -590.000; -555.000
275.798;  -68.175; -606.000; -413.000
275.938;   18.175;  215.000;  323.000
276.078;  -96.050; -626.000; -395.000
276.218;    3.850;   99.000;  104.000
276.359; -116.775;-1026.000;-1024.000
276.499;  -71.700; -605.000; -446.000
276.639;  -35.700; -305.000; -151.000
276.779;  -59.300; -475.000; -357.000
276.919; -103.625; -783.000; -624.000
277.059;  -22.575; -261.000; -212.000
277.199;  -36.825; -357.000; -259.000
277.340;   33.825;  287.000;  175.000
277.480;  -89.525; -840.000; -693.000
277.620;   23.150;  192.000;   16.000
277.760; -196.325;-1533.000;-1294.000
277.900;    9.450;  113.000;   33.000
278.040;    9.575;  137.000;  159.000
278.180;   28.500;  270.000;  170.000
278.320;  -10.725;   21.000;   56.000
278.460;  -73.100; -443.000; -469.000
278.600;  -90.425; -708.000; -598.000
278.740;   47.850;  448.000;  224.000
278.880;  -44.375; -768.000; -791.000
279.020;   -1.925; -194.000; -144.000
279.160;  -83.700; -672.000; -595.000
279.300; -124.050; -926.000; -873.000
279.440;  -70.375; -709.000; -622.000
279.579;  -16.725;-1014.000; -929.000
279.719;  -64.325; -410.000; -394.000
279.859;   69.550;   -4.000;   41.000
279.999;   36.600; -208.000;  101.000
280.139;  -22.250; -435.000; -387.000
280.279;  -69.500; -708.000; -745.000
280.419;  -19.975; -229.000; -147.000
280.559;  -24.675; -259.000; -180.000
280.698;  -93.900; -790.000; -639.000
280.838;  -89.175; -778.000; -800.000
280.978; -102.150; -846.000; -790.000
281.118; -104.900; -811.000; -704.000
281.257;    3.750;   24.000;    6.000
281.397; -113.950;-1094.000; -960.000
281.537;  -75.100; -599.000; -712.000
281.677;  -24.050; -150.000; -101.000
281.816;  -89.450; -700.000; -630.000
281.956;  -30.850; -193.000; -257.000
282.096;  -74.525; -539.000; -396.000
282.235; -110.475; -672.000; -638.000
282.375;  -25.900; -243.000;  -98.000
282.515;  -86.525; -715.000; -707.000
282.654;   18.750;   29.000;  106.000
282.794;   27.200;  388.000;  244.000
282.934;  -59.600; -530.000; -491.000
283.073; -126.250;-1030.000; -857.000
283.213;  -62.250; -460.000; -467.000
283.353;  -34.175; -408.000; -349.000
283.492;  -36.400; -264.000; -296.000
283.632;  -39.900; -254.000; -168.000
283.771; -101.525; -859.000; -730.000
283.911;  -48.875; -369.000; -260.000
284.050; -107.050; -794.000; -748.000
284.190; -146.625;-1229.000;-1096.000
284.329; -139.100;-1055.000; -964.000
284.469;  -56.725; -516.000; -591.000
284.608;  -72.175; -559.000; -598.000
284.748;  -83.375; -614.000; -570.000
284.887;   -9.575;  -87.000;  -20.000
285.027; -120.725; -844.000; -892.000
285.166;  -20.200; -192.000; -249.000
285.306;    5.600; -116.000;  -33.000
285.445;  -41.875; -229.000; -343.000
285.584;  -78.525; -630.000; -494.000
285.724;  -49.800; -282.000; -322.000
285.863; -102.375; -857.000; -507.000
286.002;  -55.850; -366.000; -276.000
286.142;  -92.475; -715.000; -622.000
286.281;  -74.325; -525.000; -493.000
286.420;  -78.800; -554.000; -417.000
286.560;   75.525;  653.000;  623.000
286.699; -129.675; -958.000; -912.000
286.838;  -82.575; -590.000; -591.000
286.978;  -93.900; -533.000; -537.000
287.117; -133.125;-1085.000; -950.000
287.256;  -37.175; -228.000; -211.000
287.395;  -58.500; -197.000; -378.000
287.535;  -51.450; -370.000; -298.000
287.674;  -87.425; -509.000; -484.000
287.813;   49.600;  661.000;  533.000
287.952; -129.475;-1010.000; -871.000
288.091; -137.325;-1049.000; -915.000
288.231;   18.750;   13.000;   15.000
288.370; -162.700;-1217.000;-1200.000
288.509;  -86.175; -728.000; -645.000
288.648;  -89.650; -770.000; -548.000
288.787;  -34.425; -243.000;  -87.000
288.926;  -56.875; -454.000; -475.000
289.065;  118.200;  859.000;  672.000
289.204;  -61.600; -377.000; -217.000
289.344;  -87.525; -791.000; -690.000
289.483;   35.575;  416.000;  304.000
289.622;  -32.325; -291.000; -149.000
289.761;   -8.525; -309.000; -166.000
289.900; -103.450; -785.000; -626.000
290.039;  -15.600;  -12.000;  -95.000
290.178;  -53.925; -274.000; -180.000
290.317;  -82.875; -618.000; -479.000
290.456;  -62.625; -463.000; -451.000
290.595; -131.650; -961.000; -833.000
290.734; -132.425; -904.000; -891.000
290.873;  -67.925; -456.000; -420.000
291.011;  -97.450; -833.000; -843.000
291.150; -106.675; -770.000; -682.000
291.289;  -35.075; -343.000; -110.000
291.428;  -96.600; -599.000; -480.000
291.567;  -57.675; -370.000; -442.000
291.706;   -0.925;  109.000;  154.000
291.845;  -86.300; -597.000; -505.000
291.984; -157.575;-1234.000;-1061.000
292.122;   63.775;  602.000;  582.000
292.261;   57.350;  620.000;  463.000
292.400;    2.675; -144.000;  211.000
292.539; -102.200; -959.000; -813.000
292.678;  -43.650; -325.000; -300.000
292.816; -146.775;-1136.000; -965.000
292.955;  -77.300; -844.000; -684.000
293.094;  -16.050; -173.000; -337.000
293.233;  -54.575; -556.000; -400.000
293.371;  -41.050; -225.000;  -84.000
293.510; -105.050; -866.000; -780.000
293.649; -107.800; -959.000; -924.000
293.787;  -66.225;-1083.000;-1012.000
293.926;   -2.875; -113.000;  -32.000
294.065;  -44.875; -379.000; -290.000
294.203;   44.475;  298.000;  406.000
294.342;   11.925;   74.000;  156.000
294.481; 6219.475;51180.000; -836.000
294.619;  -29.825; -425.000; -582.000
294.758; -119.875;-1230.000;-1137.000
294.896;   48.025; -125.000;    5.000
295.035; -117.525;-1040.000;-1006.000
295.174; -117.775;-1082.000; -954.000
295.312;  -35.425; -323.000; -203.000
295.451;  -20.125; -307.000; -428.000
295.589;  -51.400; -389.000; -518.000
295.728;   20.225; -292.000; -165.000
295.866;   12.575;  -36.000;  -51.000
296.005;  -61.125; -584.000; -341.000
296.143;  -64.375; -558.000; -596.000
296.282; -103.375; -957.000; -881.000
296.420;  -98.675; -657.000; -557.000
296.559;  -90.075; -892.000; -633.000
296.697;   36.400; -847.000; -665.000
296.835;   65.100;-1141.000;-1002.000
296.974;   44.050;  -23.000;   39.000
297.112;    9.900; -443.000; -504.000
297.251;  -58.625; -815.000; -755.000
297.389;   82.425; -576.000; -438.000
297.527;   38.925; -145.000;  -83.000
297.666;  -58.225; -486.000; -438.000
297.804;  -53.225; -404.000; -264.000
297.942;  -15.875; -136.000; -161.000
298.081;  -16.975; -183.000;   63.000
298.219;   47.325;  -17.000;  -19.000
298.357;   53.475; -144.000;  -71.000
298.495;   35.675; -810.000; -812.000
298.634;   85.950;  245.000;  219.000
298.772;   46.075; -220.000; -338.000
298.910;  -33.075; -309.000; -182.000
299.048;   -6.400; -130.000; -153.000
299.187;  -18.225; -350.000; -250.000
299.325;   11.525;   52.000;  122.000
299.463;   67.425; -389.000; -299.000
299.601;  103.725; -327.000; -271.000
299.739; -105.300; -908.000; -883.000
299.877;  -82.900; -791.000; -703.000
300.016;  -41.900;-1095.000; -935.000
300.154;  168.275;  -19.000; -161.000
300.292;   68.500; -428.000; -348.000
300.430;   26.600; -408.000; -291.000
300.568; -106.800; -940.000; -874.000
300.706;  -49.625; -366.000; -469.000
300.844;  -74.125;-1108.000; -979.000
300.982;   95.775;  246.000;  282.000
301.120; -110.925; -965.000; -866.000
301.258;  -69.525; -812.000; -705.000
301.396;   33.525;  104.000;  -41.000
301.534;   71.425; -218.000; -293.000
301.672;   -9.400; -664.000; -521.000
301.810;   33.825; -613.000; -545.000
301.948;  117.525;   53.000;  149.000
302.086;  658.325; -250.000;  -32.000
302.224;  935.175; -610.000; -585.000
302.362;   26.425; -558.000; -622.000
302.500;  -10.700; -923.000; -893.000
302.638;  103.225;  128.000;  245.000
302.776;    4.800; -352.000; -408.000
302.913;   36.900;  447.000;  236.000
303.051;   -9.850;  -86.000;  -23.000
303.189;   53.100;   90.000;  118.000
303.327;  -36.575; -341.000; -256.000
303.465;  -88.825; -832.000; -588.000
303.603;  -91.450; -805.000; -604.000
303.740;   95.750;  417.000;  241.000
303.878;   20.000; -800.000; -759.000
304.016; -101.950; -915.000; -790.000
304.154; -120.475;-1123.000;-1152.000
304.291;  -51.525; -505.000; -554.000
304.429;   10.425;  102.000;   74.000
304.567; -130.225; -908.000; -893.000
304.705;  -51.550; -408.000; -515.000
304.842;  102.825; -616.000; -540.000
304.980;   54.475;  215.000;   35.000
305.118;   40.150; -367.000; -365.000
305.255;  -72.725; -945.000; -927.000
305.393;   48.025;  178.000;  239.000
305.531; -110.950;-1173.000; -956.000
305.668;  -69.925; -663.000; -582.000
305.806;  115.000; -358.000; -439.000
305.943;  106.675; -629.000; -637.000
306.081;   54.250; -378.000; -267.000
306.219; -111.525; -863.000; -748.000
306.356;   10.850;  158.000;   27.000
306.494;  106.300;  981.000;  761.000
306.631;  -12.625;  -11.000;  -55.000
306.769;   -2.900; -613.000; -485.000
306.906;  -15.450; -284.000; -258.000
307.044;  -55.775; -473.000; -488.000
307.181;  -57.500; -410.000; -332.000
307.319;   14.600;  112.000;   87.000
307.456; -156.450;-1191.000;-1153.000
307.594; -101.325; -980.000; -727.000
307.731;  -25.850; -371.000; -164.000
307.868;    2.275;  -15.000;   20.000
308.006; -139.575; -961.000; -847.000
308.143;  -56.675; -618.000; -330.000
308.281;  189.475;  -37.000; -254.000
308.418;  -11.225; -748.000; -640.000
308.555;  -61.075; -400.000; -250.000
308.693;  -68.675; -577.000; -573.000
308.830; -104.000; -712.000; -657.000
308.967;   -1.000; -215.000;  -95.000
309.105;  -40.950; -507.000; -396.000
309.242;   38.850; -468.000; -367.000
309.379;  340.950; -577.000; -655.000
309.517;  -46.525; -936.000; -948.000
309.654; -103.125; -910.000; -734.000
309.791;  -68.825; -662.000; -580.000
309.928; -111.725; -977.000; -914.000
310.065;  180.825;  819.000;  697.000
310.203;    8.875; -825.000; -850.000
310.340;   -3.925; -465.000; -321.000
310.477;  -68.700; -412.000; -516.000
310.614;  -77.100; -383.000; -473.000
310.751;  -70.125; -427.000; -518.000
310.889;  -11.100;    1.000;   11.000
311.026; -145.025;-1161.000; -939.000
311.163;  -39.950; -386.000; -380.000
311.300;  -65.875; -512.000; -479.000
311.437;  -75.125; -658.000; -619.000
311.574; -154.675;-1226.000; -985.000
311.711;  -46.825; -595.000; -433.000
311.848;  -33.100; -380.000; -388.000
311.985;   16.200;  270.000;   93.000
312.122; -117.400; -932.000; -762.000
312.259; -109.625; -941.000; -994.000
312.396;  -90.575; -508.000; -551.000
312.533;  -88.900; -812.000; -790.000
312.670; -114.100;-1070.000; -898.000
312.807;  -40.850; -352.000; -367.000
312.944;  -67.425; -513.000; -611.000
313.081;  -28.025; -150.000; -415.000
313.218; -102.875;-1111.000; -867.000
313.355;   12.275; -531.000; -449.000
313.492;   10.700; -455.000; -292.000
313.629;  106.700;  815.000;  735.000
313.766; -152.675;-1176.000;-1008.000
313.902;  -13.575; -186.000;   21.000
314.039;  -32.950; -372.000; -289.000
314.176;   10.500;  286.000;  192.000
314.313;  -63.200; -569.000; -473.000
314.450;  -73.975; -788.000; -684.000
314.587;  -51.150; -468.000; -480.000
314.723;    3.925;  -78.000;  130.000
314.860;   39.150;  318.000;  332.000
314.997;   27.050;  223.000;  142.000
315.134;  -40.500; -385.000; -368.000
315.270;  -43.550; -480.000; -496.000
315.407; -110.100;-1094.000; -967.000
315.544;  -42.625; -657.000; -538.000
315.681;  -51.150; -681.000; -565.000
315.817;   30.850; -133.000; -176.000
315.954;   25.950; -613.000; -392.000
316.091; -124.900;-1045.000;-1023.000
316.227;  -17.550;  -71.000; -179.000
316.364;   -3.625;   23.000;    6.000
316.500;  -36.250; -113.000; -300.000
316.637;  -53.150; -181.000; -302.000
316.774;  -84.525; -625.000; -358.000
316.910;  -82.450; -598.000; -629.000
317.047;  -83.025; -487.000; -351.000
317.183;  -50.000; -435.000; -566.000
317.320;  -11.200; -367.000; -321.000
317.456;  -63.350; -733.000; -805.000
317.593;  -83.525; -598.000; -641.000
317.729;    1.500;  168.000;  -67.000
317.866; -192.600;-1434.000;-1285.000
318.002;  -92.375; -708.000; -948.000
318.139;  -82.650; -883.000; -867.000
318.275; -104.075;-1003.000; -738.000
318.412;  -66.575; -517.000; -336.000
318.548;  -29.550; -751.000; -720.000
318.685;  -82.625; -985.000; -888.000
318.821;  -79.625; -762.000; -735.000
318.957;  -18.250;   34.000;  -23.000
319.094;   30.775;  297.000;  154.000
319.230;  -49.275; -756.000; -742.000
319.367;  119.300; -471.000; -520.000
319.503;   68.075; -538.000; -436.000
319.639; -102.725; -877.000; -793.000
319.775;  -48.825; -750.000; -685.000
319.912;  -49.575; -424.000; -519.000
320.048;  -84.350;-1184.000;-1184.000
320.184;   75.150;   59.000;   70.000
320.321;  -56.575; -497.000; -467.000
320.457;   59.750;  475.000;  662.000
320.593;  -65.950; -375.000; -382.000
320.729; -105.675; -732.000; -734.000
320.866;  -76.525; -577.000; -635.000
321.002;  -71.225; -759.000; -809.000
321.138;  -13.475; -135.000; -211.000
321.274;   71.700; -148.000; -115.000
321.410;  -16.275; -585.000; -353.000
321.546;  -39.425;-1011.000; -911.000
321.683;   47.725;  400.000;  185.000
321.819;    3.075;  -48.000; -117.000
321.955; -111.175; -743.000; -722.000
322.091;  -34.175; -585.000; -540.000
322.227;   -9.075; -382.000; -202.000
322.363;  -16.975; -320.000; -215.000
322.499;  -39.575; -343.000; -331.000
322.635;  153.675;  636.000;  443.000
322.771;   27.400; -139.000;   12.000
322.907;   81.725;  129.000;  327.000
323.043;   -3.750; -115.000; -206.000
323.179;  -25.500; -394.000; -363.000
323.315;   20.225; -401.000; -371.000
323.451;   93.675; -328.000; -236.000
323.587;   47.575;  -60.000;  -77.000
323.723;   14.775; -682.000; -601.000
323.859;  -16.550; -258.000;  -76.000
323.995;  -34.800; -467.000; -409.000
324.131; -125.125; -967.000; -892.000
324.267;  -37.200; -254.000; -276.000
324.402; -118.475; -960.000; -983.000
324.538;  -17.125; -279.000; -104.000
324.674;   21.750;  164.000;   77.000
324.810;  138.725;  226.000;  308.000
324.946;   11.325; -810.000; -658.000
325.082;  -72.275; -568.000; -475.000
325.217;   -6.425;  -62.000;   16.000
325.353; -101.725; -764.000; -659.000
325.489;  -80.325; -540.000; -506.000
325.625;  -75.825; -579.000; -525.000
325.760;   60.200;  517.000;  376.000
325.896;  -21.525; -515.000; -702.000
326.032;  -43.300; -403.000; -352.000
326.168;  -79.825; -462.000; -369.000
326.303;  -60.275; -352.000; -461.000
326.439;  -31.600; -336.000; -276.000
326.575;   14.800; -190.000;  -29.000
326.710;  -12.875; -156.000;  -30.000
326.846;    0.350;  146.000;  103.000
326.982; -108.350; -530.000; -548.000
327.117;  -71.425; -481.000; -442.000
327.253;  -90.375; -745.000; -742.000
327.388; -136.400;-1137.000;-1153.000
327.524;  -35.575; -811.000; -578.000
327.659;  -13.675;  -58.000;  -22.000
327.795;   -9.325;   69.000;   45.000
327.931;  -77.625; -723.000; -499.000
328.066;  -25.500; -417.000; -276.000
328.202;   -3.725;   12.000; -129.000
328.337;   99.425;  957.000;  713.000
328.473;   36.975;  -12.000;  -74.000
328.608;  -28.275; -256.000; -267.000
328.743;  -79.900; -799.000; -664.000
328.879;   23.525;  214.000;  114.000
329.014;  -43.950; -102.000; -122.000
329.150;  -89.450; -358.000; -483.000
329.285;  -65.325; -465.000; -466.000
329.421;  -59.325; -548.000; -246.000
329.556;  -29.050;  -36.000;   85.000
329.691;  -92.875; -633.000; -615.000
329.827;  -88.225; -626.000; -480.000
329.962;  -43.525;  131.000; -301.000
330.097;  -92.125; -673.000; -585.000
330.233;  -54.800; -410.000; -223.000
330.368; -109.675; -839.000; -628.000
330.503;  -18.275;    3.000;   98.000
330.638;    3.875;  -93.000; -125.000
330.774;  -56.600; -609.000; -530.000
330.909;  -44.525; -434.000; -244.000
331.044;  -99.550; -714.000; -708.000
331.179; -171.025;-1217.000;-1109.000
331.315;   11.925;   77.000;   20.000
331.450;   13.600;  157.000;  285.000
331.585; -100.575; -805.000; -706.000
331.720;  -71.750; -510.000; -460.000
331.855;  -18.575;  -35.000; -102.000
331.990;  256.600;   62.000;  138.000
332.126;  109.525; -110.000;   71.000
332.261;  -17.925; -379.000; -265.000
332.396;    3.850; -135.000; -242.000
332.531;  -92.375;-1074.000;-1031.000
332.666;   30.125; -519.000; -363.000
332.801;  -90.375; -726.000; -807.000
332.936;  -30.050; -192.000; -122.000
333.071; -144.975; -870.000; -817.000
333.206;   10.200;  307.000;  379.000
333.341;   34.775;  344.000;  418.000
333.476;  -90.625; -627.000; -623.000
333.611;  -47.550; -251.000; -173.000
333.746;  -46.300; -381.000; -464.000
333.881; -108.125; -973.000; -935.000
334.016; -117.500; -936.000; -917.000
334.151; -121.400; -746.000; -702.000
334.286;   10.125;  152.000;  186.000
334.421;  -18.825; -125.000; -178.000
334.556;  -83.375; -611.000; -567.000
334.690;  -82.650; -631.000; -577.000
334.825;   30.050;  381.000;   83.000
334.960;  -57.550; -285.000; -413.000
335.095;   -3.500;  135.000;  -91.000
335.230;  -93.575; -722.000; -738.000
335.365; -134.775;-1084.000; -990.000
335.499; -130.675;-1108.000;-1037.000
335.634;   10.325;    9.000;  534.000
335.769;  -96.700; -755.000; -720.000
335.904;  -53.800; -603.000; -561.000
336.038;  -48.275; -735.000; -657.000
336.173; -118.950;-1206.000;-1194.000
336.308;   -8.150; -116.000; -189.000
336.443;  -20.075; -544.000; -634.000
336.577;  -56.375; -936.000; -787.000
336.712;   50.750;   -4.000;  -12.000
336.847;  -43.325; -724.000; -607.000
336.981;   63.625; -272.000; -208.000
337.116;  290.075;  615.000;  501.000
337.250;  147.525; -434.000; -421.000
337.385;  268.850; -297.000; -208.000
337.520;   78.500; -632.000; -603.000
337.654;  -34.150; -215.000; -126.000
337.789; -122.750; -989.000; -933.000
337.923;  -27.500; -104.000; -205.000
338.058; -101.275; -673.000; -738.000
338.192;  -29.100; -611.000; -488.000
338.327;    4.000;  -18.000; -155.000
338.461;  -59.500; -299.000; -469.000
338.596;  -94.425; -780.000; -638.000
338.730; -101.100; -767.000; -803.000
338.865;   81.900;  -46.000; -140.000
338.999;  -51.525; -846.000; -702.000
339.134;  -28.625; -634.000; -536.000
339.268;   28.975; -741.000; -603.000
339.403;  352.475; -740.000; -775.000
339.537;  130.750; -894.000; -820.000
339.671; -110.425; -829.000; -813.000
339.806;  -65.325; -556.000; -512.000
339.940;    9.275; -261.000; -235.000
340.074;  -90.900; -685.000; -510.000
340.209;  -54.675; -351.000; -230.000
340.343;  -89.750; -517.000; -573.000
340.477;  135.600;  998.000; 1036.000
340.612;  -52.000;-1033.000; -900.000
340.746;  127.675; -199.000; -243.000
340.880;  -56.225; -924.000; -785.000
341.014;  -13.650;  -45.000; -154.000
341.149; -102.475; -756.000; -718.000
341.283; -107.075; -839.000; -754.000
341.417;  -96.450;-1124.000; -938.000
341.551;  123.450; -768.000; -708.000
341.685;  -29.375; -633.000; -611.000
341.820;  -47.425; -562.000; -493.000
341.954;  -49.975; -218.000; -349.000
342.088; -153.950;-1102.000;-1019.000
342.222;   47.550;  565.000;  618.000
342.356;  -62.825; -395.000; -335.000
342.490;  -96.350; -880.000; -841.000
342.624;  -46.625; -339.000; -242.000
342.758;  -10.875; -364.000; -312.000
342.892;  -70.750; -710.000; -585.000
343.026;  -35.450;  -58.000; -116.000
343.160;  -68.875; -426.000; -376.000
343.294;  -75.500; -474.000; -337.000
343.428;  -15.525; -488.000; -448.000
343.562;   -9.950; -172.000;  -23.000
343.696;  -35.150; -385.000; -314.000
343.830;  -10.850; -362.000; -356.000
343.964;   18.825; -231.000; -168.000
344.098;  918.425;  199.000;   70.000
344.232;  743.725; -266.000; -127.000
344.366;  104.975; -567.000; -453.000
344.500;   74.350; -665.000; -744.000
344.634;   32.475; -324.000; -164.000
344.768;  -15.500; -531.000; -341.000
344.902;   26.100;  278.000;  256.000
345.035;  -74.100; -556.000; -496.000
345.169; -126.400; -933.000; -656.000
345.303;  -27.775; -308.000; -482.000
345.437;  -63.575; -826.000; -717.000
345.571;  -65.500; -675.000; -594.000
345.704;  -59.275; -309.000; -532.000
345.838;  -27.575; -331.000; -284.000
345.972;  -23.850; -543.000; -495.000
346.106;  158.075; -179.000; -190.000
346.239;  425.425; -312.000; -243.000
346.373;   -8.750; -343.000; -302.000
346.507; -132.950; -950.000; -962.000
346.640;  146.825;  -30.000;   13.000
346.774;  -50.250; -650.000; -797.000
346.908;  -11.900; -138.000;  -11.000
347.041; -102.300; -646.000; -593.000
347.175;   -2.900;  259.000;   27.000
347.309;  -68.275; -698.000; -628.000
347.442;  -98.200; -883.000; -732.000
347.576;  284.975;  670.000;  668.000
347.709;  180.950; -123.000;  -52.000
347.843; -102.175; -933.000; -825.000
347.976;   36.000;  235.000;  294.000
348.110; -168.175;-1268.000;-1186.000
348.243;  -98.850; -679.000; -772.000
348.377;    2.150;  -26.000;   60.000
348.510;   34.575;  403.000;  540.000
348.644;  -34.725;  -37.000; -159.000
348.777;   -7.175;  180.000;  191.000
348.911;  -50.375; -142.000; -112.000
349.044;  154.825;  471.000;  448.000
349.178;  160.075;-1069.000;-1006.000
349.311;  106.225;  141.000;  255.000
349.444;    8.100; -927.000; -813.000
349.578;  -30.625; -347.000; -200.000
349.711;  -90.375; -959.000; -862.000
349.845;    0.625; -661.000; -591.000
349.978; -125.700;-1224.000;-1137.000
350.111;  -90.475; -546.000; -612.000
350.244;  -77.500; -596.000; -700.000
350.378;   -5.225; -392.000; -393.000
350.511;  -68.700; -393.000; -426.000
350.644; -105.750; -808.000; -806.000
350.778;    9.150;  168.000;  104.000
350.911;   -5.750;  134.000;  140.000
351.044;  -85.700; -685.000; -615.000
351.177;  -25.000; -321.000; -281.000
351.310;  -19.725;    3.000; -131.000
351.444;  -80.925; -888.000; -788.000
351.577;  103.500;  140.000;   90.000
351.710;   94.750;  593.000;  417.000
351.843;  -23.525; -165.000;  -77.000
351.976;   -2.575;  149.000;  -79.000
352.109;  -70.325; -621.000; -612.000
352.242;  -34.875; -464.000; -419.000
352.376;  -54.050; -580.000; -636.000
352.509;  160.725; -437.000; -356.000
352.642;   21.375; -654.000; -604.000
352.775;   40.600; -141.000;  -98.000
352.908; -102.750; -933.000; -904.000
353.041; -109.925; -814.000; -824.000
353.174;  -53.450; -551.000; -424.000
353.307;  -70.200; -753.000; -764.000
353.440;   72.200;  541.000;  453.000
353.573;  -99.575; -957.000;-1008.000
353.706;  -13.900; -384.000; -558.000
353.839;  -24.675; -264.000; -220.000
353.971;  -86.625; -657.000; -512.000
354.104;  -82.175; -896.000; -835.000
354.237;  -30.100; -627.000; -662.000
354.370;  -83.400; -846.000; -879.000
354.503; -171.125;-1231.000;-1308.000
354.636;  -44.650; -529.000; -348.000
354.769; -123.075; -937.000; -860.000
354.902;  -21.500; -230.000; -139.000
355.034;   -9.400; -164.000; -220.000
355.167;  -20.925; -262.000; -162.000
355.300;  -88.100;-1061.000; -880.000
355.433;  993.875;  -71.000;  -14.000
355.565; 1544.075; -402.000; -384.000
355.698;  400.575; -356.000; -296.000
355.831;   10.500; -882.000; -801.000
355.964;   78.325; -285.000; -170.000
356.096;  -83.925; -856.000; -843.000
356.229;   -6.275; -523.000; -530.000
356.362;  346.100; -373.000; -266.000
356.494;  592.850; -229.000; -162.000
356.627;  490.225;  269.000;  377.000
356.760;  671.150;  120.000;   53.000
356.892;  976.375; -286.000; -601.000
357.025;  648.500;  403.000;  389.000
357.157;  608.200; -167.000; -179.000
357.290;  668.450; -856.000; -713.000
357.423;  205.375; -667.000; -556.000
357.555;  119.775; -217.000; -228.000
357.688;  132.950; -483.000; -364.000
357.820;  462.400; -870.000; -877.000
357.953; 3664.425; -563.000; -589.000
358.085;  839.575; -632.000; -612.000
358.218; 1127.775;-1131.000; -932.000
358.350;  213.400;  -58.000;  312.000
358.483; -107.925;-1300.000;-1187.000
358.615;   -9.450;-1182.000;-1078.000
358.747;  -42.650;-1187.000;-1058.000
358.880;   18.225; -810.000; -744.000
359.012;    7.275; -376.000; -202.000
359.145;  -46.500; -480.000; -511.000
359.277;   68.450; -962.000; -913.000
359.409; 2996.750;  536.000;  231.000
359.542;  845.925; -738.000; -688.000
359.674;   79.175;   46.000;   13.000
359.806;  -49.900; -565.000; -438.000
359.939;  -50.100; -617.000; -516.000
360.071;   -1.475; -583.000; -579.000
360.203;  -34.300; -411.000; -364.000
360.335;   57.750;  164.000;  -16.000
360.468;  193.400; -249.000; -307.000
360.600; 2446.225; -547.000; -454.000
360.732; 2915.200; -546.000; -423.000
360.864;  404.375;-1216.000;-1044.000
360.996;  269.950; -516.000; -554.000
361.129;   44.850; -389.000; -598.000
361.261;   22.200;  110.000; -113.000
361.393;  -15.025; -252.000; -214.000
361.525;   20.250;   94.000;  244.000
361.657;  -24.875; -821.000; -703.000
361.789;   18.375; -139.000; -155.000
361.921;  239.700; -642.000; -593.000
362.053;  257.925;  524.000;  541.000
362.185;   52.850;  288.000;   72.000
362.318;  -68.750; -709.000; -705.000
362.450;  115.250;  294.000;  444.000
362.582;   87.650; -913.000; -870.000
362.714;  -39.525; -353.000; -332.000
362.846;  -93.950; -606.000; -490.000
362.978; -136.375; -941.000; -811.000
363.109;   52.075; -161.000; -260.000
363.241;  429.575; -739.000; -749.000
363.373;  440.950; -649.000; -564.000
363.505;  686.500; -186.000;  -91.000
363.637;  179.975; -787.000; -601.000
363.769; -110.350;-1067.000;-1080.000
363.901;  -64.400; -596.000; -654.000
364.033; -122.075;-1103.000;-1062.000
364.165;   -9.200; -283.000; -283.000
364.296;   93.150; -316.000; -177.000
364.428;   74.025;-1344.000;-1220.000
364.560;  -62.750; -679.000; -661.000
364.692;  -54.875; -738.000; -835.000
364.824;  245.275; -588.000; -456.000
364.955;  451.875; -402.000; -564.000
365.087;  942.150;-1097.000; -852.000
365.219;   49.925; -686.000; -816.000
365.351;  -61.200; -526.000; -572.000
365.482;   46.575;  300.000;  240.000
365.614;  -37.550; -402.000; -314.000
365.746; -105.775; -729.000; -752.000
365.877;  -95.550; -706.000; -672.000
366.009;  265.525;  -35.000;  -62.000
366.141;  -83.950;-1249.000;-1134.000
366.272; -112.850; -803.000; -719.000
366.404; -107.200;-1005.000; -874.000
366.535;  -21.825; -139.000;  -12.000
366.667;  -91.825; -644.000; -649.000
366.799;   21.825;  353.000;  203.000
366.930; -105.225; -862.000; -996.000
367.062;  134.275; -639.000; -613.000
367.193;  162.175; -872.000; -842.000
367.325;  -56.875; -580.000; -684.000
367.456;   56.075; -246.000;   31.000
367.588;  161.050; -371.000; -318.000
367.719;   43.925;  -44.000;  -45.000
367.851;  -18.600; -222.000; -241.000
367.982;  -43.100; -875.000; -732.000
368.113;   91.875; -475.000; -358.000
368.245; -115.200; -960.000; -841.000
368.376;  -26.900; -254.000; -302.000
368.508;  -39.900; -188.000; -263.000
368.639; -141.700;-1166.000;-1034.000
368.770;  -17.300; -670.000; -589.000
368.902;  -48.200; -836.000; -926.000
369.033;  -96.950; -906.000; -855.000
369.164;  -45.575; -720.000; -653.000
369.296; -114.600; -452.000; -601.000
369.427;  -13.400; -209.000; -144.000
369.558;  -38.200; -593.000; -377.000
369.689;  -88.500; -721.000; -569.000
369.821; -111.925; -951.000; -845.000
369.952;  -20.675;   42.000; -108.000
370.083;  -38.875; -229.000; -108.000
370.214;  -73.825; -735.000; -650.000
370.345;  -14.425;   65.000;   81.000
370.477;  -84.500; -810.000; -790.000
370.608;  214.425; -328.000; -264.000
370.739;  -50.350;-1233.000;-1292.000
370.870;  -31.375;-1102.000; -923.000
371.001;   79.025; -378.000; -467.000
371.132;  -64.225; -754.000; -735.000
371.263;  -15.425;  -42.000; -148.000
371.394; -128.600; -841.000; -748.000
371.525;   42.725;  345.000;  225.000
371.657;  -89.275; -808.000; -670.000
371.788;   67.125;  103.000;  199.000
371.919;  159.925; -384.000; -304.000
372.050; 3551.650;  -91.000; -156.000
372.181; 1116.175; -188.000; -294.000
372.311;  372.825;   42.000; -127.000
372.442;   35.150; -457.000; -451.000
372.573;  -25.225; -444.000; -340.000
372.704; -106.250;-1008.000; -980.000
372.835;   83.000; -228.000; -289.000
372.966;  -54.000; -646.000; -554.000
373.097;  -75.325; -575.000; -711.000
373.228;  -49.225; -717.000; -542.000
373.359;  117.900; -824.000; -536.000
373.490;  919.575; -881.000; -727.000
373.620; 1201.800;-1001.000; -803.000
373.751; 1745.150; -332.000; -396.000
373.882;  793.875; -663.000; -733.000
374.013;   68.450; -449.000; -262.000
374.143;  -44.225; -581.000; -659.000
374.274; -101.650; -987.000; -908.000
374.405;  170.225; -388.000; -276.000
374.536;  430.425; -526.000; -387.000
374.666; 1121.400; -759.000; -807.000
374.797;  233.075; -817.000; -868.000
374.928;  834.400; -710.000; -560.000
375.058;  890.125; -535.000; -500.000
375.189;   74.325;  -59.000;  -93.000
375.320;  -88.825; -928.000;-1034.000
375.450;  -35.875; -625.000; -616.000
375.581;  -46.900; -526.000; -436.000
375.712;  -31.475; -574.000; -250.000
375.842;  279.800; -438.000; -415.000
375.973;  222.650; -554.000; -513.000
376.103;  -33.250; -665.000; -648.000
376.234;  -78.575; -531.000; -552.000
376.364;  -32.925; -944.000; -867.000
376.495;  303.900;  925.000;  529.000
376.625;  -11.125; -472.000; -485.000
376.756;   51.525; -709.000; -678.000
376.886;  -71.575;-1178.000;-1026.000
377.017;   54.150;-1048.000;-1061.000
377.147;  376.200; -786.000; -782.000
377.278;   60.650;  174.000;  228.000
377.408; -126.675; -801.000; -815.000
377.538;  -96.425; -707.000; -693.000
377.669;  -90.275; -537.000; -613.000
377.799;  -93.850; -645.000; -635.000
377.929;  -53.300; -610.000; -428.000
378.060; -129.225; -781.000; -847.000
378.190;  -49.700; -726.000; -531.000
378.320;  -56.325; -401.000; -406.000
378.451;  -16.200; -131.000;  -22.000
378.581;   -6.675;  -67.000; -110.000
378.711;  141.500; 1035.000;  866.000
378.841;  -15.075; -533.000; -675.000
378.972;  -69.500; -871.000; -751.000
379.102;   -7.900; -652.000; -579.000
379.232;  -27.950; -126.000;  -73.000
379.362; -111.425;-1001.000; -885.000
379.492;   12.425; -373.000; -424.000
379.623;   98.725;    0.000;  111.000
379.753;  -90.300;-1107.000; -974.000
379.883;  185.450;   59.000;  156.000
380.013;   12.450;-1081.000;-1017.000
380.143;  -99.550;-1097.000;-1056.000
380.273; -101.150; -985.000; -861.000
380.403;    7.550; -344.000; -257.000
380.533;  -40.150; -651.000; -664.000
380.663;   61.950;  173.000;  128.000
380.793;  -82.700;-1027.000;-1074.000
380.923;  -28.225; -103.000;  -34.000
381.053;  -93.225; -613.000; -623.000
381.183;  -36.100; -106.000; -248.000
381.313;   29.100; -656.000; -470.000
381.443;   36.200; -692.000; -473.000
381.573;  197.500; -402.000; -409.000
381.703;  291.800;-1249.000;-1095.000
381.833; -107.500;-1454.000;-1336.000
381.963;  108.225; -134.000;  -87.000
382.093; 1399.550; -925.000; -909.000
382.223;  454.650; -713.000; -602.000
382.353;   -1.450; -801.000; -608.000
382.482;  358.300;-1091.000; -964.000
382.612;  767.600; -872.000; -644.000
382.742;  456.000; -695.000; -622.000
382.872;  277.500; -565.000; -551.000
383.002;   68.925;  347.000; -132.000
383.131;   -4.225; -226.000; -160.000
383.261;  -37.225; -706.000; -768.000
383.391;  283.025; -552.000; -377.000
383.521; 3230.025;  451.000;  263.000
383.650;  842.625; -947.000; -904.000
383.780;  -10.900; -783.000; -656.000
383.910;  103.550;  880.000;  802.000
384.039;   27.175; -794.000; -656.000
384.169;  210.500;-1205.000;-1017.000
384.299;  -18.500; -650.000; -662.000
384.428;  -91.475; -764.000; -680.000
384.558;  -50.275; -308.000; -275.000
384.687;  -46.575; -414.000; -334.000
384.817;   18.750;   75.000;   -2.000
384.947;    7.075; -234.000; -141.000
385.076;  284.225;  982.000;  912.000
385.206;  100.450;  369.000;  480.000
385.335;  -39.475; -549.000; -417.000
385.465;  -70.025; -655.000; -663.000
385.594;  132.125;  -53.000;  -44.000
385.724;  424.725; -868.000; -838.000
385.853;  115.650; -296.000; -270.000
385.982; 1302.150; -743.000; -787.000
386.112; 2156.450;-1052.000; -871.000
386.241;  140.625; -307.000; -312.000
386.371;   16.625; -174.000;  -87.000
386.500;   12.725; -825.000; -789.000
386.629;   23.450; -874.000; -817.000
386.759;   49.850;  -43.000;   68.000
386.888;  -17.525; -170.000; -250.000
387.017;  -70.025; -648.000; -620.000
387.147;  -93.875; -771.000; -798.000
387.276;    2.725; -410.000; -397.000
387.405;   12.700; -398.000; -342.000
387.535;  -46.800; -452.000; -361.000
387.664;  -66.850; -692.000; -620.000
387.793;   61.225; -198.000; -113.000
387.922;  509.375;  255.000;  200.000
388.052;   41.375; -576.000; -423.000
388.181;   11.275; -342.000; -472.000
388.310;   -0.275; -889.000; -710.000
388.439;  -39.300; -749.000; -742.000
388.568;  183.325;  365.000;  244.000
388.697; 1049.150; -756.000; -653.000
388.826;  208.050; -768.000; -666.000
388.956;   56.000; -285.000; -307.000
389.085;  -30.500; -347.000; -287.000
389.214; -104.750; -842.000; -872.000
389.343;  -73.300; -645.000; -413.000
389.472;  386.550;  126.000;  149.000
389.601;  539.350;   91.000;    0.000
389.730;   22.475; -568.000; -687.000
389.859;   66.950;  226.000;   46.000
389.988;  161.950; -423.000; -408.000
390.117;  142.125; -168.000; -146.000
390.246;  -23.700; -331.000; -320.000
390.375;  115.650; -673.000; -626.000
390.504;  -62.550; -703.000; -621.000
390.633;  -95.850; -672.000; -726.000
390.761;  -53.100; -732.000; -645.000
390.890;   11.650;   -4.000; -130.000
391.019;  -33.975; -421.000; -441.000
391.148; -108.575; -826.000; -855.000
391.277;  -71.350; -576.000; -493.000
391.406;  -75.175; -821.000; -805.000
391.534;   22.000;  574.000; -301.000
391.663;  -58.625; -583.000; -645.000
391.792;  -88.500; -673.000; -701.000
391.921;   93.175;   -3.000;   15.000
392.050;  182.625; -287.000; -228.000
392.178;  -38.675;-1206.000;-1061.000
392.307;  125.025; -758.000; -712.000
392.436;   75.875; -427.000; -641.000
392.564;   10.950;  166.000;   -6.000
392.693;  -91.775; -860.000; -682.000
392.822;  191.025; -529.000; -534.000
392.950;  102.075; -880.000; -714.000
393.079;  317.075; -188.000; -328.000
393.208;   44.675; -488.000; -511.000
393.336;   -8.200; -170.000; -145.000
393.465;  -54.075; -317.000; -199.000
393.593;   -0.525;   62.000;   79.000
393.722; -141.575;-1121.000; -916.000
393.850;  -45.200; -188.000;  -61.000
393.979; -151.950; -926.000; -805.000
394.107;  -67.225; -517.000; -537.000
394.236;  -16.825; -570.000; -507.000
394.364;  215.200;  383.000;  206.000
394.493;  403.350; -911.000; -767.000
394.621;    5.950; -955.000; -916.000
394.750;  721.150; -873.000; -923.000
394.878; 2958.475; -247.000; -149.000
395.007; 4255.250; -721.000; -807.000
395.135;  345.525; -790.000; -721.000
395.263;  -80.925;-1038.000;-1040.000
395.392;    0.700;  -25.000; -107.000
395.520; -130.925; -818.000; -679.000
395.648;  -90.775; -865.000; -915.000
395.777;  -19.300; -366.000; -405.000
395.905;  -51.075; -449.000; -564.000
396.033;    4.325;  217.000;  172.000
396.162;  605.200; -399.000; -453.000
396.290;  579.475;  -17.000;   -2.000
396.418;   99.475; -555.000; -514.000
396.546;  -66.300; -571.000; -466.000
396.674;  -99.900; -850.000; -878.000
396.803;    1.250;  -72.000;  -23.000
396.931;   96.475; -179.000; -199.000
397.059;   61.000;-1026.000; -989.000
397.187; -117.275;-1026.000; -975.000
397.315; -122.200; -884.000; -649.000
397.443; -100.400; -592.000; -443.000
397.572;  -92.025; -578.000; -424.000
397.700;  -10.800; -607.000; -614.000
397.828;    9.475;  120.000;  -90.000
397.956;  -53.450; -508.000; -478.000
398.084;  -67.875; -767.000; -626.000
398.212;   25.275;  137.000;  124.000
398.340;   13.875;  -56.000;  159.000
398.468;   38.675; -390.000; -169.000
398.596; -125.475; -993.000; -953.000
398.724; -122.475; -762.000; -767.000
398.852; -161.275;-1024.000; -976.000
398.980;  -63.425; -560.000; -560.000
399.108;  -63.475; -982.000; -735.000
399.236;   44.775;   13.000;    8.000
399.363;   11.525;  222.000;  196.000
399.491;  -65.850; -404.000; -398.000
399.619; -129.850; -829.000; -800.000
399.747; -105.450; -859.000; -771.000
399.875;   85.625;  220.000;  234.000
400.003;  -54.150; -359.000; -284.000
400.130;  -84.150; -421.000; -341.000
400.258;  -27.675;  -83.000;   38.000
400.386;  -76.775; -352.000; -168.000
400.514;  -40.425; -526.000; -587.000
400.641;  -71.750; -928.000; -802.000
400.769; -148.900; -979.000; -888.000
400.897; -106.650; -838.000; -793.000
401.025;  -28.075; -166.000; -152.000
401.152;   -8.600;  220.000;   38.000
401.280;  -86.675; -430.000; -429.000
401.408; -113.775; -712.000; -576.000
401.535; -114.225; -735.000; -758.000
401.663; -180.575;-1134.000;-1054.000
401.790;  -74.125; -514.000; -525.000
401.918;   44.125;  436.000;  405.000
402.046;  -26.775;  134.000;  122.000
402.173;  -32.525;  -18.000;    7.000
402.301;  -79.850; -519.000; -397.000
402.428;   30.350;  528.000;  383.000
402.556; -142.100;-1188.000; -913.000
402.683;  -24.650;  -20.000;   -1.000
402.811;  -25.025;  -37.000; -206.000
402.938;    5.075;   20.000;   27.000
403.066;  187.225; -574.000; -558.000
403.193;  351.200;  299.000;  239.000
403.321;  273.500; -396.000; -574.000
403.448;  335.450;   83.000;   27.000
403.575;  143.650;  -90.000;  -46.000
403.703;  -75.300; -732.000; -557.000
403.830;  -62.850; -531.000; -496.000
403.957; -141.675;-1117.000;-1023.000
404.085;    1.850;  -61.000; -172.000
404.212;  102.425;  -50.000;   63.000
404.339;  264.150; -566.000; -306.000
404.467; 5860.075; -612.000; -524.000
404.594; 4054.025; -287.000; -227.000
404.721;  963.475; -869.000; -764.000
404.848;   83.675; -113.000; -202.000
404.976;  -81.375; -856.000; -783.000
405.103;  -20.450;  -14.000;  -82.000
405.230;   -0.650;  190.000;  226.000
405.357;    4.400;  117.000;   44.000
405.484;  287.975;  -49.000;    5.000
405.612;   75.950; -548.000; -563.000
405.739;  -48.900; -488.000; -243.000
405.866;   85.650;  669.000;  385.000
405.993;  -32.600; -398.000; -102.000
406.120; -125.100; -801.000; -887.000
406.247;  -60.350; -323.000; -342.000
406.374;  404.875;  540.000;  629.000
406.501;  120.925; -632.000; -702.000
406.628;  -84.075; -621.000; -589.000
406.755;  -88.700; -803.000; -620.000
406.882;  -28.525; -228.000; -277.000
407.009; -116.150; -719.000; -628.000
407.136;   40.650; -480.000; -401.000
407.263;  151.750; -939.000; -829.000
407.390;  -91.925; -692.000; -614.000
407.517; -161.750;-1139.000;-1187.000
407.644;  -60.025; -332.000; -256.000
407.771;  -54.475; -249.000; -287.000
407.898;    5.100;  168.000;  328.000
408.025;  -64.650; -421.000; -313.000
408.151;   -5.550;   82.000;  153.000
408.278;  -62.050; -267.000; -216.000
408.405; -124.325; -931.000; -899.000
408.532;  -52.825; -549.000; -542.000
408.659; -116.300; -677.000; -648.000
408.785; -208.175;-1298.000;-1170.000
408.912;  -69.125; -412.000; -296.000
409.039; -112.375; -610.000; -686.000
409.166; -110.650; -591.000; -555.000
409.292; -116.300; -571.000; -534.000
409.419; -126.250; -665.000; -649.000
409.546;  -92.000; -431.000; -192.000
409.672;  -99.275; -713.000; -545.000
409.799;  -21.400;  -36.000;   34.000
409.926;  -39.825; -180.000; -179.000
410.052; -171.900;-1127.000;-1091.000
410.179;  -63.250; -368.000; -392.000
410.305;  -76.425; -375.000; -493.000
410.432;  -61.650; -220.000; -333.000
410.558;  -84.025; -305.000; -380.000
410.685; -112.075; -688.000; -431.000
410.812;  -85.850; -409.000; -588.000
410.938; -141.300; -964.000; -808.000
411.065;  -96.425; -671.000; -645.000
411.191;  -21.050; -189.000; -174.000
411.317; -123.950; -823.000; -742.000
411.444;  -76.525; -317.000; -246.000
411.570;  -55.375; -339.000; -294.000
411.697; -126.375; -758.000; -752.000
411.823; -175.700; -989.000; -999.000
411.949;  -37.350;  -56.000;   17.000
412.076; -107.000; -539.000; -519.000
412.202; -121.850; -758.000; -757.000
412.329; -117.625; -798.000; -752.000
412.455; -112.550; -821.000; -657.000
412.581;  -21.975;  -15.000;  172.000
412.707;  -65.950; -540.000; -457.000
412.834;   13.000;  156.000;  219.000
412.960;  -91.225; -785.000; -784.000
413.086;  -85.925; -743.000; -701.000
413.212;  146.825;  604.000;  578.000
413.339;  -64.600; -685.000; -701.000
413.465;  -18.375; -364.000; -310.000
413.591;  -86.625; -757.000; -474.000
413.717;  -54.650; -358.000; -366.000
413.843; -131.575; -839.000; -861.000
413.969;  -52.125;  -47.000; -292.000
414.096;  -86.625; -679.000; -679.000
414.222;  -15.475;  -33.000;   85.000
414.348;  -43.250; -652.000; -385.000
414.474;   95.800;   38.000;  -52.000
414.600;  -12.100; -126.000; -144.000
414.726;  -11.150;  -96.000;  -55.000
414.852;  -40.750; -365.000; -342.000
414.978;   29.675;  104.000;  -18.000
415.104;   43.300;   38.000;   80.000
415.230;   16.375; -329.000; -330.000
415.356;   48.600; -409.000; -514.000
415.482;  190.700;   13.000;  -35.000
415.608;  278.175; -247.000; -323.000
415.734;  983.625;   67.000;   38.000
415.860;19934.100; -875.000; -767.000
415.986;15905.200; -685.000; -607.000
416.111; 1450.500; -798.000; -652.000
416.237;  283.625; -424.000; -571.000
416.363; 1106.175; -765.000; -733.000
416.489; 4412.275; -324.000; -251.000
416.615;  540.325; -707.000; -742.000
416.741;  -10.225; -677.000; -784.000
416.866;  -96.600; -673.000; -736.000
416.992; -126.225; -801.000; -818.000
417.118;  -22.050;  -41.000;  -80.000
417.244;  -61.500; -798.000; -531.000
417.369;  -65.100; -801.000; -612.000
417.495;   -3.375; -325.000; -254.000
417.621;  -68.575;-1015.000; -803.000
417.746;   11.500; -579.000; -572.000
417.872;   67.125; -254.000; -144.000
417.998;   46.950; -515.000; -530.000
418.123; 1010.200;-1073.000; -845.000
418.249; 5651.125; -512.000; -601.000
418.374;  913.975; -916.000; -824.000
418.500;  127.000; -383.000; -482.000
418.626;  119.475;   70.000;  -59.000
418.751;  111.750; -549.000; -448.000
418.877;  210.650; -637.000; -643.000
419.002; 1731.550; -688.000; -560.000
419.128;12984.850; -930.000; -721.000
419.253; 3517.100; -967.000; -837.000
419.379;  448.625; -391.000; -338.000
419.504;  404.525;  325.000;  415.000
419.629;  555.950; -393.000; -212.000
419.755; 3369.275; -317.000; -254.000
419.880;21781.250;  -98.000;   67.000
420.006;11740.125; -280.000; -221.000
420.131;31083.350; -662.000; -775.000
420.256; 4908.550; -315.000; -316.000
420.382;  649.250; -665.000; -687.000
420.507;   92.375; -649.000; -778.000
420.632;  127.125; -337.000; -339.000
420.758;  237.650; -251.000; -425.000
420.883;  -70.325; -876.000; -672.000
421.008;  -98.075; -775.000; -619.000
421.133;  -74.800; -509.000; -467.000
421.259;  -43.125; -325.000; -259.000
421.384; -117.575; -834.000; -693.000
421.509;  -57.700;-1052.000; -862.000
421.634; 1061.925; -936.000; -820.000
421.759;  505.950; -359.000; -327.000
421.885;  -41.475; -717.000; -656.000
422.010;  -79.875; -673.000; -542.000
422.135; -139.550; -695.000; -727.000
422.260;   24.300;  340.000;  280.000
422.385;  -38.075;   12.000;  -98.000
422.510;   14.875;  151.000;  -26.000
422.635;    4.000;  -87.000;  -43.000
422.760;   98.000; -766.000; -791.000
422.885;   76.350;  -57.000;  -80.000
423.010;  -34.975; -112.000; -169.000
423.135;  -93.450; -481.000; -561.000
423.260;  -10.050; -150.000; -245.000
423.385;   56.550;  476.000;  222.000
423.510;   34.275;   71.000;  -22.000
423.635;   76.775;  133.000;   45.000
423.760;   55.175;  383.000;  328.000
423.885;   67.275;  336.000;  391.000
424.010;    0.075;  -68.000;  -13.000
424.135;   -9.875;    5.000;  -33.000
424.259;  -92.475; -654.000; -457.000
424.384;  -56.075; -279.000; -272.000
424.509;  -23.950; -260.000; -186.000
424.634;  -91.550; -761.000; -623.000
424.759;  -23.625; -688.000; -544.000
424.883;    4.975; -506.000; -527.000
425.008;  161.900; -502.000; -410.000
425.133; 2029.925; -679.000; -653.000
425.258; 1066.650; -517.000; -381.000
425.382;  955.675; -867.000; -774.000
425.507; 2645.100; -487.000; -543.000
425.632;  491.200; -802.000; -663.000
425.756;  477.250; -256.000; -146.000
425.881; 6297.775; -831.000; -857.000
426.006;18663.825; -604.000; -355.000
426.130; 3185.800; -696.000; -508.000
426.255;  418.000; -611.000; -491.000
426.379;  180.600; -189.000; -577.000
426.504;  359.850;  660.000;  544.000
426.629; 4039.275; -519.000; -466.000
426.753; 3069.425;   64.000;  -46.000
426.878;  373.325; -252.000; -288.000
427.002;  194.775; -651.000; -668.000
427.127; 1534.275;  -35.000; -158.000
427.251;11600.100;  372.000;  401.000
427.375; 3679.100; -191.000; -173.000
427.500; 2281.875; -616.000; -610.000
427.624;  846.450; -234.000; -400.000
427.749;   83.775; -216.000; -225.000
427.873;  -21.275; -499.000; -412.000
427.997;  -44.500; -222.000; -230.000
428.122;   85.300;  795.000;  703.000
428.246;   64.050;  433.000;  434.000
428.371; -113.675; -869.000; -773.000
428.495; -101.950; -624.000; -646.000
428.619;  -18.700; -186.000; -117.000
428.743;    2.550;   65.000;  132.000
428.868;   16.425; -732.000; -643.000
428.992; 1353.500; -219.000; -326.000
429.116;  601.950; -329.000; -357.000
429.240;  280.425;  419.000;  426.000
429.365;  -12.600; -454.000; -574.000
429.489;  -34.850; -638.000; -647.000
429.613;   23.150; -236.000; -177.000
429.737;   27.325; -563.000; -432.000
429.861;  283.125; -247.000; -133.000
429.985; 5492.700; -425.000; -305.000
430.109; 6637.800; -770.000; -908.000
430.234;  817.525;   76.000;  -50.000
430.358;   75.475; -250.000; -160.000
430.482;  -67.800; -672.000; -564.000
430.606;  -51.975; -655.000; -375.000
430.730;   -4.275; -437.000; -388.000
430.854;  135.100; -909.000; -835.000
430.978;  -64.050; -795.000; -764.000
431.102;  -79.700; -499.000; -422.000
431.226; -122.975; -874.000; -815.000
431.350;   22.425;  345.000;  422.000
431.474;  -63.750; -661.000; -373.000
431.597; -144.750;-1060.000; -848.000
431.721;  -80.275; -276.000; -267.000
431.845; -132.175; -704.000; -472.000
431.969;  -87.075; -304.000; -349.000
432.093;  -86.525; -395.000; -317.000
432.217;  -20.425;   32.000;   82.000
432.341;  -97.200; -523.000; -518.000
432.464;    4.700;   96.000;   40.000
432.588;  190.650; -401.000; -329.000
432.712;  110.875;  -52.000;  -52.000
432.836;   50.450;  213.000;  263.000
432.959;   -9.975; -372.000; -311.000
433.083;   89.600;   11.000;    2.000
433.207;  369.325;  285.000;  930.000
433.330; 4962.625; -391.000; -200.000
433.454; 6701.225; -654.000; -638.000
433.578; 3816.525;  583.000;  278.000
433.701;  777.100; -623.000; -675.000
433.825;  156.850; -292.000; -299.000
433.949;  152.800;   28.000;  -72.000
434.072;   70.300; -410.000; -323.000
434.196;  -14.525; -309.000; -117.000
434.319; 3590.250;25482.000;25124.000
434.443;  688.325; -656.000; -603.000
434.566; 2778.550;  281.000;   62.000
434.690;  538.300; -637.000; -383.000
434.813;   80.175; -251.000; -173.000
434.937;  -83.675; -569.000; -696.000
435.060;  -46.600; -423.000; -332.000
435.184;  265.300; -492.000; -217.000
435.307;  159.100;  159.000;  102.000
435.431;   -4.200;  -40.000;   24.000
435.554;  -75.925; -399.000; -240.000
435.677;  -88.050; -350.000; -258.000
435.801;  -45.250;  -25.000;   49.000
435.924;  -20.750;    1.000;  -67.000
436.048; -106.825;-1019.000; -732.000
436.171;  -78.050; -240.000;  -66.000
436.294;  -24.975; -248.000; -229.000
436.417;   85.550; -963.000; -849.000
436.541;  -51.550; -814.000; -840.000
436.664;  -47.450; -242.000; -316.000
436.787;  -27.725;   13.000;  113.000
436.910; -121.300; -792.000; -422.000
437.034;   12.075;  142.000;  143.000
437.157;   39.700;  -11.000;    0.000
437.280;  -61.700; -392.000; -292.000
437.403;  -93.025; -982.000; -869.000
437.526;  527.875; -903.000; -865.000
437.649; 2101.450; -505.000; -332.000
437.772;  342.175; -692.000; -540.000
437.896;  121.000;  700.000;  544.000
438.019;  -82.550; -758.000; -503.000
438.142;  -82.125; -596.000; -506.000
438.265;  -34.400; -639.000; -670.000
438.388;  549.525; -520.000; -410.000
438.511;  110.225; -597.000; -394.000
438.634;  -55.950; -247.000; -125.000
438.757; -133.800; -693.000; -619.000
438.880;  -23.075;  -34.000;  -57.000
439.003;  -76.800; -417.000; -437.000
439.126;  -70.050; -287.000; -167.000
439.248;  -53.325;  -98.000; -139.000
439.371;  -45.200;    9.000;  -53.000
439.494;   28.900;  510.000;  439.000
439.617;  -53.275;   65.000;  -88.000
439.740; -173.200; -968.000; -816.000
439.863; -142.550; -755.000; -595.000
439.986; -114.275; -476.000; -431.000
440.108;  -39.525; -161.000; -112.000
440.231; -148.000; -950.000; -836.000
440.354;  -52.075;  -64.000; -150.000
440.477;   31.775; -566.000; -542.000
440.599;   -7.400; -200.000; -225.000
440.722; -113.025; -709.000; -586.000
440.845;   75.575;  751.000;  928.000
440.968; -112.775; -415.000; -311.000
441.090;  -60.550; -199.000;  -33.000
441.213; -160.025;-1021.000; -825.000
441.336;  -67.925; -159.000;   -5.000
441.458;  -77.950; -549.000; -396.000
441.581;  -75.775; -628.000; -629.000
441.703;  -57.925; -152.000;   13.000
441.826; -115.775; -557.000; -400.000
441.948;  -51.225;   56.000;   51.000
442.071;   27.025;  555.000;  424.000
442.193;  -96.925; -531.000; -485.000
442.316;    3.125;  152.000;   97.000
442.438;   58.075; -233.000;  -10.000
442.561;   62.675;  272.000;  262.000
442.683;  447.675; -809.000; -522.000
442.806; 1119.050;   -8.000;   74.000
442.928;   35.925; -859.000; -604.000
443.051;  -73.475; -577.000; -373.000
443.173;  -97.875; -341.000; -339.000
443.295;  -88.025; -263.000; -371.000
443.418;  -66.725; -321.000;  -29.000
443.540;  -17.175; -106.000;   -4.000
443.662; -117.950; -563.000; -465.000
443.785;  -22.600;  335.000;  199.000
443.907;  -93.375; -362.000; -208.000
444.029; -128.175; -767.000; -494.000
444.152; -133.425; -644.000; -554.000
444.274;  -39.625;  -18.000;  -24.000
444.396; -117.875; -461.000; -221.000
444.518; -123.900; -691.000; -454.000
444.640;  -96.225; -268.000; -111.000
444.763;  -32.025;  388.000;  249.000
444.885; -106.275; -432.000; -392.000
445.007;  -46.375;   35.000;   86.000
445.129; -100.125; -610.000; -515.000
445.251; -110.225; -372.000; -439.000
445.373; -126.575; -537.000; -386.000
445.495;   -4.350;  242.000;  350.000
445.617;   54.675;  853.000;  753.000
445.739;  -64.325; -215.000;  -97.000
445.861;  -27.600; -245.000; -112.000
445.984;  -35.175; -267.000; -101.000
446.105;  162.475; -418.000; -251.000
446.227;  578.725; -176.000;  -19.000
446.349;    8.950; -358.000; -249.000
446.471;  -96.000; -615.000; -448.000
446.593;  -68.275; -316.000;   19.000
446.715;  -22.450;  -67.000;   41.000
446.837;   55.200;  697.000;  832.000
446.959; -104.325; -457.000; -478.000
447.081; -130.075; -628.000; -518.000
447.203;   49.750;  862.000;  834.000
447.325;  -86.075; -270.000;   42.000
447.446;  -15.225;  286.000;  530.000
447.568; -158.850; -921.000; -803.000
447.690;  -75.975; -236.000; -245.000
447.812; -150.775; -798.000; -519.000
447.933;  -32.825;  155.000;  127.000
448.055;  -65.025; -306.000; -261.000
448.177;  123.400;   31.000;   79.000
448.299;   88.125; -935.000; -727.000
448.420;   24.525;  -25.000;  159.000
448.542;  -46.975;   -3.000;   33.000
448.664;  -24.625;  109.000;  322.000
448.785;  -30.725;  265.000;   83.000
448.907;  -90.450; -614.000; -353.000
449.028;  -38.650; -771.000; -471.000
449.150;   54.200;  492.000;  589.000
449.272; -169.275;-1044.000; -913.000
449.393;   45.075;  612.000;  694.000
449.515; -147.625; -634.000; -581.000
449.636;  -66.725; -264.000; -155.000
449.758;   72.650;  763.000;  622.000
449.879;  -89.775; -498.000; -396.000
450.001;  -73.675; -149.000;  -49.000
450.122;  -47.975;  -95.000;  162.000
450.244;  -29.525;   37.000;  364.000
450.365;  -95.725; -495.000; -301.000
450.486;  -40.575;   80.000;  268.000
450.608;   19.000;  393.000;  326.000
450.729;   65.575;  578.000;  645.000
450.850;    7.750; -574.000; -466.000
450.972;  717.175; -552.000; -389.000
451.093; 4980.725;  190.000;  588.000
451.214; 2435.650; -516.000; -337.000
451.336;  433.375;  773.000;  579.000
451.457;   67.775;  264.000;  393.000
451.578;  -40.150; -118.000;  -74.000
451.699; -109.350; -546.000; -540.000
451.821;  -57.800; -284.000;  -50.000
451.942;   -3.050;  278.000;  285.000
452.063;   31.850;  228.000;  419.000
452.184;  530.650;  -54.000;  -49.000
452.305; 1170.475;  103.000;  170.000
452.427;  173.500; -549.000; -301.000
452.548;  -15.275;   23.000;   79.000
452.669;  -45.925; -257.000;  -89.000
452.790;  -51.200;    3.000;  -18.000
452.911;  -13.475;  195.000;  259.000
453.032;  -69.075; -289.000;  -60.000
453.153;  -37.275;  -29.000;   81.000
453.274;   51.100;  737.000;  868.000
453.395;  -52.825;  -51.000;  175.000
453.516;  105.400; 1317.000; 1388.000
453.637;  -52.400; -205.000; -150.000
453.758;  -57.675;   15.000;   69.000
453.879; -119.075; -462.000; -250.000
454.000;   63.125; 1086.000;  948.000
454.121; -113.425; -554.000; -326.000
454.242; -107.025; -599.000; -383.000
454.362;  -49.550;  -99.000;  114.000
454.483;  -46.750; -309.000; -229.000
454.604;   72.475;  512.000;  580.000
454.725; -124.525; -627.000; -555.000
454.846; -117.975; -474.000; -406.000
454.967;  -32.900;  230.000;  539.000
455.087;  -53.375;  179.000;  153.000
455.208;   10.050;  554.000;  856.000
455.329;  -70.375;  -22.000;   82.000
455.450;   21.725;  473.000;  633.000
455.570;  -68.425; -234.000; -211.000
455.691;  -41.225;  201.000;  407.000
455.812;  -97.200; -270.000;  -92.000
455.932;  -65.700;  107.000;  -97.000
456.053;  -82.025;   36.000;   24.000
456.173; -107.400; -433.000; -355.000
456.294; -128.625; -476.000; -303.000
456.415;  -63.375;  -73.000;   70.000
456.535;  -30.550;  297.000;  273.000
456.656;  -55.600;  132.000;  240.000
456.776;  -70.225;    3.000;  298.000
456.897;  -16.825;  308.000;  513.000
457.017;  -70.950; -153.000;   -3.000
457.138; -126.200; -402.000; -249.000
457.258;  -30.025;  263.000;  224.000
457.379;   -7.800;  509.000;  521.000
457.499;  -19.150;  443.000;  432.000
457.620; -103.750; -407.000; -231.000
457.740;  -86.675; -132.000;  -11.000
457.860;  -53.450;   87.000;   44.000
457.981;  -47.650;  132.000;  124.000
458.101;  -81.875;  -89.000;   40.000
458.221;  -16.900;  336.000;  402.000
458.342;  -66.025;   -4.000;  -37.000
458.462;   33.300;  617.000;  352.000
458.582;  -44.300; -302.000; -294.000
458.703;    9.575;  303.000;  154.000
458.823;  -33.375;   22.000;  163.000
458.943;   25.150;  341.000;  467.000
459.063;  -17.725; 1124.000;  192.000
459.183;  -25.575;  328.000;  313.000
459.304;    7.200;  315.000;  517.000
459.424;  -54.175; -246.000;  -89.000
459.544;  305.050;  388.000;  764.000
459.664;  865.525;  499.000;  506.000
459.784;  344.150; 1004.000; 1175.000
459.904;   66.125;  867.000;  744.000
460.024;   52.875;  867.000;  684.000
460.144;   12.725;  449.000;  554.000
460.264;   -3.150;  515.000;  327.000
460.385;  -93.050; -145.000; -119.000
460.505;   26.875;  905.000;  858.000
460.625;  -95.375;  -17.000;  -68.000
460.745;  -17.025;  396.000;  541.000
460.864;  -49.825;  153.000;  469.000
460.984;    3.100;  499.000;  573.000
461.104;  143.700; 1656.000; 1775.000
461.224;   16.125;  657.000;  650.000
461.344;  -41.575;  431.000;  360.000
461.464;  -37.950;  258.000;  513.000
461.584;  -29.375;  283.000;  466.000
461.704;  -37.575;   58.000;  108.000
461.824;  -59.375;  238.000;  259.000
461.943;  -42.025;  191.000;  130.000
462.063;  -56.975;    2.000;  324.000
462.183;   27.000;  639.000;  717.000
462.303;  100.300; 1678.000; 1230.000
462.422;   12.750;  781.000;  840.000
462.542;  -34.900;  271.000;  391.000
462.662;   29.775;  353.000;  380.000
462.782;  246.150;  833.000;  572.000
462.901;  506.550;  545.000;  717.000
463.021;  286.450; 1702.000; 1638.000
463.141;  -12.375;  337.000;  770.000
463.260;   -8.000;  614.000;  474.000
463.380;   11.650;  902.000;  884.000
463.499;  -47.825;  342.000;  332.000
463.619;  -46.350;  581.000;  559.000
463.738;  123.900; 1644.000;  903.000
463.858;    4.025;  657.000;  811.000
463.978;  -25.000;  542.000;  396.000
464.097;   37.275;  921.000; 1114.000
464.217;  115.475; 1196.000; 1143.000
464.336;  116.175; 1068.000; 1130.000
464.455;  -39.400;  328.000;  659.000
464.575;   25.525;  597.000;  602.000
464.694;  170.375; 1204.000; 1179.000
464.814;  130.900; 1190.000; 1138.000
464.933;   65.050; 1095.000; 1027.000
465.052;   84.900; 1412.000; 1054.000
465.172;   83.275;  922.000;  799.000
465.291;  126.550; 1376.000; 1320.000
465.410;   12.775;  462.000;  735.000
465.530;   82.125; 1355.000; 1310.000
465.649;   72.100; 1209.000; 1273.000
465.768;  130.150; 1673.000; 1508.000
465.888;   54.075;  941.000; 1174.000
466.007;   86.875; 1335.000; 1440.000
466.126;   -4.475;  721.000;  641.000
466.245;   47.225; 1176.000; 1187.000
466.364;   22.375;  950.000; 1060.000
466.484;   54.825; 1024.000; 1213.000
466.603;   39.325; 1101.000; 1222.000
466.722;  123.100; 1490.000; 1769.000
466.841;   93.175; 1151.000; 1401.000
466.960;   40.750; 1069.000;  972.000
467.079;  133.450; 1971.000; 1786.000
467.198;   49.475; 1238.000; 1181.000
467.317;   87.275; 1768.000; 1162.000
467.436;   70.675; 1709.000; 1261.000
467.555;  136.000; 1796.000; 1746.000
467.674;   63.100; 1227.000; 1329.000
467.793;   42.100; 1376.000; 1374.000
467.912;   90.125; 1658.000; 1539.000
468.031;  146.100; 2038.000; 1930.000
468.150;  134.625; 1842.000; 1837.000
468.269;  184.625; 2313.000; 2090.000
468.388;  184.850; 2168.000; 2339.000
468.507;  251.325; 2884.000; 2903.000
468.626;  278.050; 2555.000; 2541.000
468.744;  137.400; 2018.000; 2174.000
468.863;  189.675; 2312.000; 2523.000
468.982;  108.125; 1503.000; 1555.000
469.101;  210.025; 2788.000; 2692.000
469.220;  151.925; 2333.000; 2176.000
469.338;  241.100; 2935.000; 3051.000
469.457;  195.625; 2719.000; 2545.000
469.576;  346.200; 3953.000; 3784.000
469.695;  249.975; 2877.000; 3066.000
469.813;  399.925; 4148.000; 4192.000
469.932;  416.950; 4255.000; 4485.000
470.051;  427.300; 4075.000; 4161.000
470.169;  874.900; 4470.000; 4338.000
470.288; 1515.000; 4700.000; 4809.000
470.406;  928.250; 5059.000; 5194.000
470.525;  632.350; 6101.000; 5787.000
470.644;  659.625; 6847.000; 6794.000
470.762;  790.650; 8397.000; 7873.000
470.881;  905.175; 8651.000; 8464.000
470.999; 1042.275; 9685.000; 9151.000
471.118; 1062.275;11174.000;10711.000

