
Integration time [ms]: 100.000
Averaging Nr. [scans]: 40
Smoothing Nr. [pixels]: 0
Data measured with spectrometer [name]: 2101012U2
Wave   ;Sample   ;Dark     ;Reference
[nm]   ;[counts] ;[counts] ;[counts] 

197.733;   53.625;  516.000;  404.000
197.879;  -84.575; -610.000; -634.000
198.025;  -36.200; -475.000; -420.000
198.171;  -70.625; -602.000; -612.000
198.317;  -36.200; -401.000; -316.000
198.463;  -68.250; -655.000; -404.000
198.609;   25.850;  181.000; -137.000
198.755;  -79.075; -644.000; -410.000
198.901;  -63.550; -505.000; -424.000
199.047;  -65.875; -615.000; -488.000
199.193;  -44.825; -230.000; -468.000
199.339;  -42.000; -222.000; -369.000
199.485;   39.925;  330.000;  271.000
199.631;   17.975;  227.000;  310.000
199.777;  -51.275; -466.000; -398.000
199.923;  -58.175; -610.000; -424.000
200.069;    3.000; -141.000;  -58.000
200.215;   46.525;  128.000;  453.000
200.361;   41.725;  243.000;  477.000
200.507;  -59.150; -600.000; -373.000
200.653;  -26.875; -371.000; -194.000
200.798;  -28.525; -215.000; -125.000
200.944;   -3.525; -146.000;  -41.000
201.090;   33.150;   61.000;  222.000
201.236;   -0.100; -116.000; -158.000
201.382;  116.700;  874.000;  903.000
201.528;   -6.650;  -58.000;  -48.000
201.674;  -60.800; -386.000; -293.000
201.819;  -60.800; -540.000; -439.000
201.965;  -90.575; -699.000; -447.000
202.111;  -29.775; -273.000; -226.000
202.257;  -42.775; -250.000; -238.000
202.402;    5.575;   13.000;  -36.000
202.548;  -10.000; -169.000; -116.000
202.694;   85.675;  410.000; -183.000
202.840;  -79.600; -603.000; -531.000
202.985;  -80.350; -681.000; -639.000
203.131; -115.250; -832.000; -666.000
203.277;  -22.700; -199.000; -262.000
203.423;  -65.900; -434.000; -520.000
203.568;  -48.175; -462.000; -237.000
203.714;  -67.150; -535.000; -542.000
203.860;  -84.325; -682.000; -641.000
204.005;   10.150;  112.000;  167.000
204.151;   73.950;  561.000;  556.000
204.296;  -33.525; -354.000; -221.000
204.442;  -89.100; -600.000; -547.000
204.588;  -60.625; -592.000; -579.000
204.733;   24.025;  178.000;  168.000
204.879; -132.300;-1018.000; -822.000
205.025;   21.075;  -99.000;  126.000
205.170;  -14.425;  -17.000;   94.000
205.316;   62.800;  438.000;  661.000
205.461;  -83.725; -698.000; -554.000
205.607;   94.875;  609.000;  665.000
205.752;  -87.475; -626.000; -551.000
205.898;  -53.975; -501.000; -391.000
206.043;  -56.275; -578.000; -506.000
206.189;  -43.325; -243.000; -285.000
206.334;   79.775;  554.000;  606.000
206.480;   86.225;  409.000;  239.000
206.625;  -79.450; -529.000; -552.000
206.771;  -56.450; -451.000; -373.000
206.916;  -36.050; -210.000; -537.000
207.062;  -82.500; -545.000; -591.000
207.207;  -73.925; -546.000; -443.000
207.353;   49.725;  185.000;  460.000
207.498;   13.100;  196.000;   85.000
207.643;  -51.175; -501.000; -370.000
207.789; -140.375;-1069.000; -910.000
207.934;  -98.875; -665.000; -713.000
208.080;  -29.450; -154.000;   66.000
208.225;  -12.125;  -22.000;  -57.000
208.370;  -77.350; -727.000; -619.000
208.516;  -70.575; -741.000; -487.000
208.661;  -23.700; -127.000;  -69.000
208.806;  -30.725; -165.000; -171.000
208.952; -125.175;-1044.000; -731.000
209.097;   69.975;  378.000;  349.000
209.242;  -40.100; -307.000; -382.000
209.387;   69.525;  392.000;  350.000
209.533;  -55.950; -321.000; -350.000
209.678;   77.875;  472.000;  543.000
209.823;  -62.375; -408.000; -310.000
209.969; -110.200; -860.000; -757.000
210.114; -116.325; -907.000; -719.000
210.259; -113.675; -939.000; -889.000
210.404;   -2.575; -171.000;  103.000
210.549;    2.750;  108.000;    3.000
210.695;  -18.800;   -3.000;  -95.000
210.840;   35.325;   94.000;   67.000
210.985;  -63.050; -484.000; -303.000
211.130;   69.050;  268.000;  406.000
211.275;   19.325;  207.000;  199.000
211.420;  -44.025; -300.000; -289.000
211.566;  -74.525; -536.000; -489.000
211.711;   19.150;  218.000;  157.000
211.856;  -62.325; -545.000; -519.000
212.001;   13.850;  151.000;   44.000
212.146;   13.300;  153.000;   49.000
212.291;  -36.200; -210.000; -186.000
212.436;  -30.125; -280.000;   -6.000
212.581;  -66.475; -685.000; -653.000
212.726;  -73.925; -487.000; -538.000
212.871;  -62.250; -552.000; -217.000
213.016; -154.950;-1172.000;-1029.000
213.161;   63.175;  406.000;  291.000
213.306;  -84.000; -435.000; -577.000
213.451;  -87.375; -778.000; -689.000
213.596;  -48.225; -455.000; -347.000
213.741;  -58.300; -448.000; -538.000
213.886;  -80.925; -498.000; -517.000
214.031;  -19.675; -294.000; -124.000
214.176;  -45.850; -408.000; -341.000
214.321;  -20.425; -296.000; -157.000
214.466;  -19.650; -163.000;  -43.000
214.611;   -2.750;  -61.000;  -10.000
214.756; -125.325; -948.000; -858.000
214.901;  -31.100; -388.000; -226.000
215.046; -123.200; -797.000; -825.000
215.191;   27.000;  128.000;   35.000
215.336;  -15.550; -157.000;  -19.000
215.480;  -76.650; -684.000; -505.000
215.625;  -23.025; -175.000;  -19.000
215.770;  -83.400; -757.000; -662.000
215.915;   -8.025;   -5.000;  -97.000
216.060;   -1.600; -113.000;  -21.000
216.205; -116.775; -731.000; -779.000
216.349;  -73.625; -470.000; -533.000
216.494; -131.850; -939.000; -867.000
216.639; -118.850; -823.000; -888.000
216.784;  -98.400; -577.000; -525.000
216.929;   58.475;  392.000;  281.000
217.073;   -6.900; -244.000;  -31.000
217.218;    4.425;   78.000;  -47.000
217.363;  -87.350; -656.000; -618.000
217.507;  -82.525; -623.000; -588.000
217.652; -129.275; -845.000; -874.000
217.797;  -99.675; -708.000; -659.000
217.942; -104.550; -856.000; -720.000
218.086;   68.525;  608.000;  539.000
218.231;  -32.450; -174.000;  -26.000
218.376;  -36.700; -337.000; -229.000
218.520;    1.200;  -41.000;   96.000
218.665;  -30.875; -338.000; -204.000
218.810;  -61.075; -275.000; -233.000
218.954;   13.125;  201.000;   35.000
219.099; -118.175; -713.000; -963.000
219.243;  -71.350; -589.000; -554.000
219.388;  -27.375; -264.000; -136.000
219.532;  -13.425; -116.000; -116.000
219.677;  -74.800; -564.000; -521.000
219.822;    6.800;   33.000;   89.000
219.966;    5.125;   17.000;  -99.000
220.111;  -45.700; -328.000;  -40.000
220.255;  -88.700; -797.000; -750.000
220.400;  -18.350; -180.000; -146.000
220.544;  -68.025; -516.000; -450.000
220.689;  -62.800; -422.000; -451.000
220.833;  -25.500; -123.000;  -58.000
220.978;  -44.250; -393.000; -563.000
221.122;   31.175;  319.000;  307.000
221.267; -116.075; -906.000; -837.000
221.411;  -61.525; -478.000; -394.000
221.555;   -7.775; -104.000;  -23.000
221.700;  -40.125; -329.000; -222.000
221.844;   28.850;  255.000;  272.000
221.989;  -48.025; -328.000; -311.000
222.133;  -38.550; -289.000; -307.000
222.277;   -3.750;    5.000;   78.000
222.422;   19.950;  227.000;  113.000
222.566;  -34.200; -381.000; -214.000
222.711;  -58.225; -414.000; -479.000
222.855;  -87.450; -643.000; -586.000
222.999;  -90.750; -642.000; -717.000
223.144;  -23.200; -195.000; -194.000
223.288;   51.575;  423.000;  251.000
223.432;   33.300;  184.000;  230.000
223.576;   11.300;  152.000;  -21.000
223.721;   48.125;  364.000;  273.000
223.865;  -44.325; -472.000; -475.000
224.009;  257.050; 1673.000; 1631.000
224.153;  -80.800; -660.000; -671.000
224.298;  -74.825; -531.000; -489.000
224.442;   -4.950;  -74.000;  -33.000
224.586;  -12.575; -169.000; -106.000
224.730; -101.675; -858.000; -670.000
224.875; -122.350; -739.000; -688.000
225.019;   12.350;  102.000;  188.000
225.163;   50.050;  208.000;  341.000
225.307;   26.350;   97.000;  -91.000
225.451;   46.400;  360.000;  481.000
225.595;   25.150;  264.000;  176.000
225.739;   -4.300; -170.000;  -94.000
225.884;   10.450;   86.000;    5.000
226.028; -106.500; -760.000; -626.000
226.172;  -47.125; -260.000; -273.000
226.316; -123.325; -941.000; -902.000
226.460;  -72.750; -645.000; -493.000
226.604;  -49.050; -406.000; -400.000
226.748;  -94.125; -836.000; -733.000
226.892;  -42.000; -227.000; -181.000
227.036;  -47.150; -537.000; -447.000
227.180;  -50.650; -551.000; -375.000
227.324;  -69.150; -561.000; -580.000
227.468; -109.650; -819.000; -717.000
227.612;    3.175;  242.000;  -28.000
227.756; -100.525; -845.000; -698.000
227.900;   44.575;  342.000;  441.000
228.044;  -56.750; -509.000; -290.000
228.188;   62.350;  448.000;  568.000
228.332;  -87.425; -546.000; -472.000
228.476;  -23.275; -223.000; -149.000
228.620;  -34.400; -210.000; -150.000
228.764;   56.175;  431.000;  349.000
228.908;  -23.900; -155.000;   30.000
229.052;  -74.625; -615.000; -528.000
229.195;  -20.400; -172.000;   13.000
229.339;  -37.950; -235.000; -305.000
229.483;  -23.475;    5.000; -162.000
229.627;    0.775; -156.000;  139.000
229.771;  -42.575; -218.000; -294.000
229.915;    8.325;  230.000;   79.000
230.059;  -98.500; -648.000; -663.000
230.202;  -42.825; -370.000; -317.000
230.346;  -14.875; -107.000;  107.000
230.490;  -64.725; -489.000; -521.000
230.634; -102.850; -736.000; -553.000
230.777;   88.300;  478.000;  509.000
230.921;  -55.025; -450.000; -359.000
231.065;  -42.600; -246.000; -286.000
231.209;   12.575;  261.000;  265.000
231.352;   19.900;   54.000;   40.000
231.496;   15.200;  568.000;  188.000
231.640;  -83.650; -693.000; -621.000
231.783;   53.250;  546.000;  525.000
231.927;  -46.625; -294.000; -365.000
232.071; -128.575; -962.000; -736.000
232.214; -127.450; -980.000; -764.000
232.358;  -95.075; -683.000; -599.000
232.502;   -0.325;  -19.000;    7.000
232.645; -132.600;-1090.000; -927.000
232.789;  -31.150; -257.000; -218.000
232.933;  -40.775; -407.000; -224.000
233.076; -137.625;-1038.000; -897.000
233.220; -107.375; -752.000; -777.000
233.363;  -76.125; -669.000; -477.000
233.507;   64.650;  371.000;  129.000
233.650;  -95.300; -764.000; -834.000
233.794;   47.975;  438.000;  461.000
233.938;  -68.600; -530.000; -362.000
234.081;  -23.650;  -93.000;   31.000
234.225;  -66.125; -631.000; -539.000
234.368; -106.275; -773.000; -723.000
234.512;  -38.450; -385.000; -299.000
234.655; -100.100; -582.000; -555.000
234.798;  -59.900; -493.000; -466.000
234.942; -136.100; -884.000;-1002.000
235.085;  -76.450; -651.000; -443.000
235.229;  -66.025; -405.000; -410.000
235.372;  -47.825; -247.000; -191.000
235.516;  -69.750; -397.000; -321.000
235.659;   30.075;   92.000;  121.000
235.802;  -19.200;  -38.000;  -22.000
235.946;   21.400;  335.000;  215.000
236.089;   36.050;  126.000;  250.000
236.233;   48.050;  275.000;  298.000
236.376;  -49.475; -235.000; -378.000
236.519;  -46.825; -297.000; -319.000
236.663;  -24.225; -215.000; -117.000
236.806; -145.500;-1029.000; -999.000
236.949;   58.750;  543.000;  431.000
237.092;   59.925;  412.000;  391.000
237.236;  -89.750; -589.000; -502.000
237.379;   70.325;  352.000;  428.000
237.522; -120.025; -879.000; -768.000
237.666;    4.375; -271.000;   18.000
237.809; -123.225; -851.000; -823.000
237.952;   34.450;  469.000;  271.000
238.095;  -73.550; -447.000; -442.000
238.238;   75.325;  688.000;  700.000
238.382;    0.425;  166.000;  103.000
238.525;  -65.200; -598.000; -511.000
238.668; -141.450;-1060.000; -985.000
238.811;  -79.225; -638.000; -643.000
238.954;  -64.975; -483.000; -334.000
239.097;   97.025;  617.000;  664.000
239.241;   20.175;  394.000;  326.000
239.384;  -41.975; -254.000; -214.000
239.527;  -67.925; -424.000; -224.000
239.670; -141.950; -994.000;-1091.000
239.813; -116.475; -696.000; -658.000
239.956;   81.700;  579.000;  473.000
240.099; -115.375; -778.000; -725.000
240.242;   70.175;  428.000;  432.000
240.385;   33.750;  466.000;  450.000
240.528;  -76.250; -706.000; -473.000
240.671;   16.200;  189.000;  134.000
240.814;  -37.600; -441.000; -158.000
240.957;  -96.550; -767.000; -578.000
241.100;  -96.150; -779.000; -755.000
241.243; -142.325;-1234.000; -893.000
241.386;  -62.325; -508.000; -379.000
241.529;  -85.575; -735.000; -547.000
241.672;  -63.375; -566.000; -495.000
241.815; -130.425; -832.000; -808.000
241.958;  -32.175; -125.000; -182.000
242.101;  -77.125; -545.000; -390.000
242.244;  -38.850; -270.000; -325.000
242.387;  -30.550; -304.000; -246.000
242.530;   70.625;  470.000;  134.000
242.673;  -54.050; -381.000; -309.000
242.815; -116.200; -925.000; -899.000
242.958;  -65.200; -482.000; -381.000
243.101;    8.950;  132.000;  187.000
243.244;  -75.025; -564.000; -521.000
243.387;  -49.725; -313.000; -316.000
243.530; -103.300; -657.000; -674.000
243.672;    2.650;   43.000;  -92.000
243.815;  -55.175; -355.000; -283.000
243.958;    1.675;   98.000;  -26.000
244.101;    3.000;   59.000;  -16.000
244.243;  -12.375;  -47.000;  101.000
244.386; -111.825; -761.000; -630.000
244.529;  -29.700; -132.000; -139.000
244.672; -158.925;-1154.000; -951.000
244.814; -104.925; -621.000; -794.000
244.957;  -38.950; -380.000; -304.000
245.100;  -74.925; -489.000; -489.000
245.242;  -61.500; -387.000; -374.000
245.385;  -12.800;  -59.000;  -39.000
245.528; -134.025; -871.000; -705.000
245.670;   96.525;  612.000;  634.000
245.813;  -86.650; -599.000; -547.000
245.956;  -40.625; -324.000; -275.000
246.098;  -80.675; -508.000; -650.000
246.241;    4.325;  194.000;   48.000
246.383;  -33.625; -119.000;  -73.000
246.526;  -77.200; -454.000; -525.000
246.669; -110.500; -889.000; -780.000
246.811;   13.050;  172.000;   -1.000
246.954;  -67.900; -512.000; -426.000
247.096;  -21.200;  -84.000;   -6.000
247.239;  -72.600; -482.000; -445.000
247.381;  -80.375; -647.000; -488.000
247.524;   75.100;  645.000;  679.000
247.666;   -3.375;   58.000;   11.000
247.809; -110.700; -887.000; -691.000
247.951;   -8.075;  -75.000;  138.000
248.094;   25.400;  432.000;  308.000
248.236; -155.675;-1262.000;-1238.000
248.378;   -0.375; -356.000;  -81.000
248.521;  -33.725; -334.000; -337.000
248.663;  -29.050; -236.000; -267.000
248.806;  -15.100; -300.000; -266.000
248.948;  -93.400; -886.000; -763.000
249.090;  -61.325; -428.000; -398.000
249.233;  -45.000; -344.000; -381.000
249.375;  -69.550; -474.000; -451.000
249.518;  -13.700;  -83.000; -133.000
249.660;   -0.700; -103.000;    3.000
249.802; -165.675;-1303.000;-1189.000
249.945;  -64.100; -612.000; -540.000
250.087; -115.050; -834.000; -768.000
250.229;  -59.725; -362.000; -480.000
250.371;  -76.250; -494.000; -439.000
250.514;  -39.250; -310.000; -244.000
250.656;   -9.900;   69.000;  102.000
250.798; -119.350; -849.000; -800.000
250.940;  -50.975; -322.000; -322.000
251.083;  -25.850; -335.000; -111.000
251.225;   64.225;  338.000;  310.000
251.367;  -39.100; -274.000; -373.000
251.509;  -33.700; -265.000; -210.000
251.651;  -97.200; -731.000; -671.000
251.794;   83.875;  538.000;  632.000
251.936;  -98.650; -821.000; -747.000
252.078;  -82.025; -540.000; -461.000
252.220;  -77.250; -645.000; -477.000
252.362;   77.150;  344.000;  462.000
252.504;  -75.125; -677.000; -584.000
252.646; -125.425; -875.000; -722.000
252.788;    4.525;   14.000; -128.000
252.931;  -40.975; -257.000; -253.000
253.073;  -26.175; -376.000; -317.000
253.215;    1.600;  141.000;  122.000
253.357;  -14.975;   82.000; -153.000
253.499;  -55.600; -374.000; -234.000
253.641;  -87.375; -749.000; -594.000
253.783;  -86.325; -609.000; -527.000
253.925;  -99.675; -586.000; -591.000
254.067; -113.025; -744.000; -667.000
254.209;  -34.375; -391.000; -259.000
254.351; -140.025; -865.000; -883.000
254.493;  -60.100; -441.000; -417.000
254.635; -134.150; -936.000; -818.000
254.777;  -90.650; -752.000; -687.000
254.918;  -62.525; -512.000; -430.000
255.060;  -59.125; -551.000; -395.000
255.202;  -58.425; -473.000; -261.000
255.344;  -77.200; -658.000; -455.000
255.486;  -81.550; -471.000; -406.000
255.628; -119.525; -780.000; -781.000
255.770; -103.925; -676.000; -536.000
255.912;  -55.700; -559.000; -468.000
256.053; -102.300; -730.000; -508.000
256.195;  156.625; 1008.000;  903.000
256.337; -100.125; -861.000; -595.000
256.479;   53.325;  532.000;  416.000
256.621;  -42.475; -394.000; -212.000
256.762;  -87.600; -789.000; -742.000
256.904;   52.400;  485.000;  487.000
257.046;  -51.200; -381.000; -271.000
257.188;  -43.000; -351.000; -264.000
257.329;  -76.525; -525.000; -464.000
257.471; -118.600; -939.000; -807.000
257.613;  -67.450; -584.000; -498.000
257.755; -156.625;-1073.000; -982.000
257.896;   45.250;  286.000;  392.000
258.038;  -85.375; -403.000; -352.000
258.180;  -42.800; -354.000; -279.000
258.321;  -82.375; -581.000; -457.000
258.463;   -0.750;  -71.000;  133.000
258.605;  -82.925; -562.000; -570.000
258.746; -113.275; -886.000; -772.000
258.888; -142.125;-1026.000;-1020.000
259.029;   31.475;  121.000;   -8.000
259.171;  -87.675; -614.000; -550.000
259.313;   -2.475;  -49.000;  -47.000
259.454;  -68.575; -536.000; -414.000
259.596;  -45.700; -483.000; -390.000
259.737;  -61.250; -590.000; -474.000
259.879;   35.750;  217.000;  311.000
260.020;   89.525;  901.000;  636.000
260.162;  -38.650; -146.000; -253.000
260.303; -126.200; -768.000; -687.000
260.445;  -78.950; -609.000; -613.000
260.586;   26.500;  392.000;  157.000
260.728;  -41.225; -360.000; -248.000
260.869;  -63.950; -350.000; -343.000
261.011;   66.875;  706.000;  537.000
261.152;  -66.125; -479.000; -319.000
261.293;  -85.500; -576.000; -595.000
261.435;  -35.025; -219.000; -184.000
261.576;  -50.450; -455.000; -325.000
261.718;   57.075;  420.000;  470.000
261.859; -138.475; -940.000; -949.000
262.000; -140.625; -951.000;-1016.000
262.142;  -14.725;  -52.000;  -60.000
262.283; -117.000; -808.000; -691.000
262.424;  -91.625; -666.000; -625.000
262.566; -154.400;-1161.000; -983.000
262.707; -130.650; -840.000; -830.000
262.848; -126.725; -769.000; -726.000
262.990;  -61.450; -362.000; -345.000
263.131;   67.475;  650.000;  681.000
263.272;   -1.975;  -61.000;  -41.000
263.413;  -84.100; -589.000; -561.000
263.555;  -70.250; -669.000; -143.000
263.696;  -99.700; -550.000; -641.000
263.837;  -61.000; -449.000; -551.000
263.978;   -1.900;   -5.000;  -77.000
264.119;  -49.300; -283.000; -264.000
264.261; -108.350; -847.000; -630.000
264.402;   -0.025;   33.000;   40.000
264.543;  -75.950; -509.000; -524.000
264.684;  -15.800;   61.000;  -50.000
264.825;  -73.825; -816.000; -538.000
264.966;  -13.825;  -84.000;  -67.000
265.107; -119.125; -646.000; -670.000
265.248; -128.025; -825.000; -812.000
265.390;   -7.525;  152.000;   -9.000
265.531;  -25.225; -238.000; -107.000
265.672;  -95.575; -557.000; -630.000
265.813;   72.575;  563.000;  439.000
265.954; -141.000; -959.000; -940.000
266.095;  -14.175; -372.000; -322.000
266.236;  -99.375; -686.000; -548.000
266.377;  -47.025; -243.000; -297.000
266.518;  -80.250; -619.000; -547.000
266.659;   29.250;  170.000;  268.000
266.800;   21.825;   83.000;   85.000
266.941;  -71.225; -487.000; -478.000
267.082;   42.200;  354.000;   99.000
267.223;  -49.375; -344.000; -273.000
267.364; -132.600; -892.000; -686.000
267.504;   -9.850;    3.000;  135.000
267.645;    3.850;  160.000;   67.000
267.786;  -41.575; -147.000;  -86.000
267.927;  -68.550; -473.000; -379.000
268.068;  -19.400; -186.000;  -61.000
268.209;  -41.825; -175.000; -413.000
268.350;  -65.775; -388.000; -532.000
268.490;  -93.600; -648.000; -521.000
268.631;   26.625;  127.000;  225.000
268.772; -115.050; -874.000; -647.000
268.913;  -55.775; -328.000; -476.000
269.054;  -13.375; -117.000;   12.000
269.194;  -48.375; -418.000; -402.000
269.335; -150.250;-1137.000;-1074.000
269.476;   -7.950;   33.000;  -35.000
269.617;  -57.725; -347.000; -392.000
269.757;  -99.800; -713.000; -646.000
269.898; -101.650; -856.000; -613.000
270.039;  -60.350; -415.000; -405.000
270.180; -139.200; -952.000; -816.000
270.320;  -17.975; -190.000; -250.000
270.461;  -51.125; -277.000; -249.000
270.602;   -7.875; -186.000; -156.000
270.742; -108.125; -868.000; -943.000
270.883;  -54.750; -442.000; -390.000
271.023;  -60.100; -358.000; -357.000
271.164;  -86.875; -607.000; -528.000
271.305;  -88.800; -666.000; -654.000
271.445;  -82.050; -722.000; -683.000
271.586;  -72.500; -462.000; -283.000
271.726;  -45.925; -397.000; -322.000
271.867;  -57.575; -594.000; -534.000
272.008;  195.000; -473.000; -285.000
272.148;  140.800;  462.000;  468.000
272.289;   21.850; -113.000; -181.000
272.429;    7.825;   19.000;  185.000
272.570;  -87.200; -633.000; -737.000
272.710;  -94.750; -825.000; -775.000
272.851;  -17.875;  113.000; -130.000
272.991; -169.000;-1173.000;-1077.000
273.131;  -70.000; -419.000; -459.000
273.272; -101.050; -683.000; -723.000
273.412;    7.450; -143.000;  -31.000
273.553;  -47.625; -488.000; -507.000
273.693;  138.650;  913.000;  858.000
273.834;  -78.850; -894.000; -692.000
273.974;  -77.900; -664.000; -615.000
274.114;  -90.475; -772.000; -560.000
274.255;   83.625;  414.000;  373.000
274.395;   12.350; -180.000; -125.000
274.535;   39.875;  199.000;  350.000
274.676;   25.925;  225.000;   94.000
274.816;   -1.050;  110.000;   34.000
274.956;  -72.225; -624.000; -690.000
275.097;  -58.575;-1014.000; -922.000
275.237; -110.625; -913.000; -803.000
275.377;  -96.800; -778.000; -689.000
275.517; -136.325; -878.000; -937.000
275.658;  -50.625; -590.000; -555.000
275.798;  -69.750; -606.000; -413.000
275.938;   30.725;  215.000;  323.000
276.078;  -99.650; -626.000; -395.000
276.218;    8.725;   99.000;  104.000
276.359; -133.825;-1026.000;-1024.000
276.499;  -67.975; -605.000; -446.000
276.639;  -20.975; -305.000; -151.000
276.779;  -54.275; -475.000; -357.000
276.919;  -98.150; -783.000; -624.000
277.059;  -18.100; -261.000; -212.000
277.199;  -43.975; -357.000; -259.000
277.340;   58.250;  287.000;  175.000
277.480; -117.750; -840.000; -693.000
277.620;   40.825;  192.000;   16.000
277.760; -198.250;-1533.000;-1294.000
277.900;   16.725;  113.000;   33.000
278.040;   13.350;  137.000;  159.000
278.180;   51.075;  270.000;  170.000
278.320;   13.625;   21.000;   56.000
278.460;  -65.950; -443.000; -469.000
278.600;  -87.250; -708.000; -598.000
278.740;   57.375;  448.000;  224.000
278.880;  -23.850; -768.000; -791.000
279.020;    9.225; -194.000; -144.000
279.160;  -82.675; -672.000; -595.000
279.300; -128.600; -926.000; -873.000
279.440;  -91.300; -709.000; -622.000
279.579;  -16.000;-1014.000; -929.000
279.719;  -38.600; -410.000; -394.000
279.859;   73.875;   -4.000;   41.000
279.999;   30.475; -208.000;  101.000
280.139;  -15.800; -435.000; -387.000
280.279;  -66.750; -708.000; -745.000
280.419;  -16.375; -229.000; -147.000
280.559;  -32.150; -259.000; -180.000
280.698;  -79.475; -790.000; -639.000
280.838;  -82.200; -778.000; -800.000
280.978;  -95.500; -846.000; -790.000
281.118; -116.625; -811.000; -704.000
281.257;   15.900;   24.000;    6.000
281.397; -101.250;-1094.000; -960.000
281.537;  -71.775; -599.000; -712.000
281.677;  -23.175; -150.000; -101.000
281.816;  -91.075; -700.000; -630.000
281.956;  -24.150; -193.000; -257.000
282.096;  -65.050; -539.000; -396.000
282.235; -101.850; -672.000; -638.000
282.375;  -21.275; -243.000;  -98.000
282.515; -107.075; -715.000; -707.000
282.654;   40.450;   29.000;  106.000
282.794;   34.200;  388.000;  244.000
282.934;  -50.550; -530.000; -491.000
283.073; -129.275;-1030.000; -857.000
283.213;  -54.575; -460.000; -467.000
283.353;  -26.025; -408.000; -349.000
283.492;  -25.575; -264.000; -296.000
283.632;  -35.650; -254.000; -168.000
283.771;  -81.200; -859.000; -730.000
283.911;  -46.575; -369.000; -260.000
284.050; -102.675; -794.000; -748.000
284.190; -157.650;-1229.000;-1096.000
284.329; -126.475;-1055.000; -964.000
284.469;  -51.900; -516.000; -591.000
284.608;  -57.325; -559.000; -598.000
284.748;  -75.575; -614.000; -570.000
284.887;   16.600;  -87.000;  -20.000
285.027; -124.175; -844.000; -892.000
285.166;  -23.050; -192.000; -249.000
285.306;   11.875; -116.000;  -33.000
285.445;  -38.900; -229.000; -343.000
285.584;  -87.975; -630.000; -494.000
285.724;  -43.125; -282.000; -322.000
285.863; -118.425; -857.000; -507.000
286.002;  -49.850; -366.000; -276.000
286.142;  -99.125; -715.000; -622.000
286.281;  -59.600; -525.000; -493.000
286.420;  -64.375; -554.000; -417.000
286.560;  102.775;  653.000;  623.000
286.699; -138.225; -958.000; -912.000
286.838;  -77.700; -590.000; -591.000
286.978;  -78.600; -533.000; -537.000
287.117; -139.450;-1085.000; -950.000
287.256;  -19.450; -228.000; -211.000
287.395;  -56.475; -197.000; -378.000
287.535;  -48.125; -370.000; -298.000
287.674;  -88.700; -509.000; -484.000
287.813;   66.600;  661.000;  533.000
287.952; -119.325;-1010.000; -871.000
288.091; -151.900;-1049.000; -915.000
288.231;   26.200;   13.000;   15.000
288.370; -164.625;-1217.000;-1200.000
288.509;  -80.000; -728.000; -645.000
288.648;  -84.225; -770.000; -548.000
288.787;  -27.975; -243.000;  -87.000
288.926;  -56.975; -454.000; -475.000
289.065;  131.950;  859.000;  672.000
289.204;  -43.750; -377.000; -217.000
289.344;  -84.300; -791.000; -690.000
289.483;   27.075;  416.000;  304.000
289.622;  -13.175; -291.000; -149.000
289.761;  -12.425; -309.000; -166.000
289.900;  -97.450; -785.000; -626.000
290.039;   -0.825;  -12.000;  -95.000
290.178;  -37.150; -274.000; -180.000
290.317;  -87.500; -618.000; -479.000
290.456;  -61.650; -463.000; -451.000
290.595; -132.475; -961.000; -833.000
290.734; -141.475; -904.000; -891.000
290.873;  -71.675; -456.000; -420.000
291.011; -112.125; -833.000; -843.000
291.150; -101.250; -770.000; -682.000
291.289;  -20.825; -343.000; -110.000
291.428;  -74.850; -599.000; -480.000
291.567;  -56.375; -370.000; -442.000
291.706;   -5.425;  109.000;  154.000
291.845;  -93.875; -597.000; -505.000
291.984; -156.025;-1234.000;-1061.000
292.122;   73.100;  602.000;  582.000
292.261;   47.475;  620.000;  463.000
292.400;   12.250; -144.000;  211.000
292.539; -116.575; -959.000; -813.000
292.678;  -37.000; -325.000; -300.000
292.816; -154.525;-1136.000; -965.000
292.955;  -83.400; -844.000; -684.000
293.094;  -19.100; -173.000; -337.000
293.233;  -53.950; -556.000; -400.000
293.371;  -32.750; -225.000;  -84.000
293.510; -100.700; -866.000; -780.000
293.649; -123.175; -959.000; -924.000
293.787;  -57.850;-1083.000;-1012.000
293.926;   10.125; -113.000;  -32.000
294.065;  -42.675; -379.000; -290.000
294.203;   42.625;  298.000;  406.000
294.342;   42.125;   74.000;  156.000
294.481; 6244.375;51180.000; -836.000
294.619;  -25.000; -425.000; -582.000
294.758; -133.250;-1230.000;-1137.000
294.896;   88.350; -125.000;    5.000
295.035; -118.350;-1040.000;-1006.000
295.174; -114.250;-1082.000; -954.000
295.312;  -45.700; -323.000; -203.000
295.451;   10.150; -307.000; -428.000
295.589;  -52.325; -389.000; -518.000
295.728;   29.350; -292.000; -165.000
295.866;   15.025;  -36.000;  -51.000
296.005;  -66.300; -584.000; -341.000
296.143;  -59.350; -558.000; -596.000
296.282;  -88.200; -957.000; -881.000
296.420;  -76.350; -657.000; -557.000
296.559;  -81.775; -892.000; -633.000
296.697;   71.525; -847.000; -665.000
296.835;  121.175;-1141.000;-1002.000
296.974;   59.025;  -23.000;   39.000
297.112;   44.725; -443.000; -504.000
297.251;  -82.925; -815.000; -755.000
297.389;  120.575; -576.000; -438.000
297.527;   45.200; -145.000;  -83.000
297.666;  -32.000; -486.000; -438.000
297.804;  -41.975; -404.000; -264.000
297.942;   -2.050; -136.000; -161.000
298.081;    7.000; -183.000;   63.000
298.219;   91.125;  -17.000;  -19.000
298.357;   74.350; -144.000;  -71.000
298.495;   62.975; -810.000; -812.000
298.634;  119.325;  245.000;  219.000
298.772;   99.275; -220.000; -338.000
298.910;  -23.525; -309.000; -182.000
299.048;    0.150; -130.000; -153.000
299.187;  -28.000; -350.000; -250.000
299.325;   31.900;   52.000;  122.000
299.463;   88.150; -389.000; -299.000
299.601;  158.000; -327.000; -271.000
299.739;  -82.825; -908.000; -883.000
299.877;  -80.050; -791.000; -703.000
300.016;  -20.700;-1095.000; -935.000
300.154;  198.725;  -19.000; -161.000
300.292;   88.950; -428.000; -348.000
300.430;   63.125; -408.000; -291.000
300.568;  -86.525; -940.000; -874.000
300.706;  -39.650; -366.000; -469.000
300.844;  -61.650;-1108.000; -979.000
300.982;  135.775;  246.000;  282.000
301.120; -108.200; -965.000; -866.000
301.258;  -57.175; -812.000; -705.000
301.396;   43.400;  104.000;  -41.000
301.534;  115.650; -218.000; -293.000
301.672;   24.800; -664.000; -521.000
301.810;   75.650; -613.000; -545.000
301.948;  140.700;   53.000;  149.000
302.086;  705.650; -250.000;  -32.000
302.224; 1136.825; -610.000; -585.000
302.362;   71.300; -558.000; -622.000
302.500;    0.000; -923.000; -893.000
302.638;  128.325;  128.000;  245.000
302.776;   12.475; -352.000; -408.000
302.913;   40.725;  447.000;  236.000
303.051;   18.750;  -86.000;  -23.000
303.189;   62.725;   90.000;  118.000
303.327;  -30.000; -341.000; -256.000
303.465;  -66.100; -832.000; -588.000
303.603;  -92.700; -805.000; -604.000
303.740;  121.125;  417.000;  241.000
303.878;   55.725; -800.000; -759.000
304.016;  -84.525; -915.000; -790.000
304.154; -118.300;-1123.000;-1152.000
304.291;  -29.400; -505.000; -554.000
304.429;   22.175;  102.000;   74.000
304.567; -114.825; -908.000; -893.000
304.705;  -55.375; -408.000; -515.000
304.842;  141.025; -616.000; -540.000
304.980;   69.650;  215.000;   35.000
305.118;   70.875; -367.000; -365.000
305.255;  -27.125; -945.000; -927.000
305.393;   71.325;  178.000;  239.000
305.531;  -98.350;-1173.000; -956.000
305.668;  -50.375; -663.000; -582.000
305.806;  107.325; -358.000; -439.000
305.943;  152.800; -629.000; -637.000
306.081;   85.375; -378.000; -267.000
306.219;  -98.925; -863.000; -748.000
306.356;    4.075;  158.000;   27.000
306.494;  125.025;  981.000;  761.000
306.631;    0.375;  -11.000;  -55.000
306.769;    4.450; -613.000; -485.000
306.906;  -11.025; -284.000; -258.000
307.044;  -67.750; -473.000; -488.000
307.181;  -60.675; -410.000; -332.000
307.319;   12.700;  112.000;   87.000
307.456; -177.000;-1191.000;-1153.000
307.594;  -98.650; -980.000; -727.000
307.731;   -2.025; -371.000; -164.000
307.868;   12.525;  -15.000;   20.000
308.006; -141.975; -961.000; -847.000
308.143;  -60.575; -618.000; -330.000
308.281;  169.250;  -37.000; -254.000
308.418;   -4.250; -748.000; -640.000
308.555;  -62.925; -400.000; -250.000
308.693;  -68.075; -577.000; -573.000
308.830;  -97.650; -712.000; -657.000
308.967;   -0.025; -215.000;  -95.000
309.105;  -41.000; -507.000; -396.000
309.242;   43.075; -468.000; -367.000
309.379;  303.525; -577.000; -655.000
309.517;  -53.175; -936.000; -948.000
309.654; -105.800; -910.000; -734.000
309.791;  -71.800; -662.000; -580.000
309.928; -110.050; -977.000; -914.000
310.065;  192.600;  819.000;  697.000
310.203;   35.875; -825.000; -850.000
310.340;   25.850; -465.000; -321.000
310.477;  -59.000; -412.000; -516.000
310.614;  -67.900; -383.000; -473.000
310.751;  -80.775; -427.000; -518.000
310.889;  -24.700;    1.000;   11.000
311.026; -149.075;-1161.000; -939.000
311.163;  -43.625; -386.000; -380.000
311.300;  -70.825; -512.000; -479.000
311.437;  -76.450; -658.000; -619.000
311.574; -149.550;-1226.000; -985.000
311.711;  -69.900; -595.000; -433.000
311.848;  -40.100; -380.000; -388.000
311.985;    9.075;  270.000;   93.000
312.122; -108.075; -932.000; -762.000
312.259; -104.650; -941.000; -994.000
312.396;  -77.050; -508.000; -551.000
312.533;  -86.700; -812.000; -790.000
312.670; -106.875;-1070.000; -898.000
312.807;  -24.650; -352.000; -367.000
312.944;  -77.775; -513.000; -611.000
313.081;  -30.575; -150.000; -415.000
313.218;  -84.525;-1111.000; -867.000
313.355;   25.075; -531.000; -449.000
313.492;   32.900; -455.000; -292.000
313.629;  163.850;  815.000;  735.000
313.766; -155.425;-1176.000;-1008.000
313.902;   -6.475; -186.000;   21.000
314.039;  -39.225; -372.000; -289.000
314.176;   27.825;  286.000;  192.000
314.313;  -69.525; -569.000; -473.000
314.450;  -67.000; -788.000; -684.000
314.587;  -43.075; -468.000; -480.000
314.723;   -1.100;  -78.000;  130.000
314.860;   50.350;  318.000;  332.000
314.997;   32.350;  223.000;  142.000
315.134;  -42.775; -385.000; -368.000
315.270;  -17.475; -480.000; -496.000
315.407; -107.275;-1094.000; -967.000
315.544;  -40.900; -657.000; -538.000
315.681;  -62.725; -681.000; -565.000
315.817;   56.575; -133.000; -176.000
315.954;   28.975; -613.000; -392.000
316.091; -121.625;-1045.000;-1023.000
316.227;  -14.125;  -71.000; -179.000
316.364;    7.825;   23.000;    6.000
316.500;  -19.825; -113.000; -300.000
316.637;  -32.550; -181.000; -302.000
316.774;  -91.800; -625.000; -358.000
316.910;  -89.450; -598.000; -629.000
317.047;  -59.625; -487.000; -351.000
317.183;  -41.825; -435.000; -566.000
317.320;  -28.850; -367.000; -321.000
317.456;  -87.500; -733.000; -805.000
317.593;  -71.600; -598.000; -641.000
317.729;   11.950;  168.000;  -67.000
317.866; -192.900;-1434.000;-1285.000
318.002;  -74.700; -708.000; -948.000
318.139;  -78.975; -883.000; -867.000
318.275; -105.750;-1003.000; -738.000
318.412;  -49.725; -517.000; -336.000
318.548;  -13.250; -751.000; -720.000
318.685;  -80.600; -985.000; -888.000
318.821;  -85.025; -762.000; -735.000
318.957;  -16.075;   34.000;  -23.000
319.094;   39.575;  297.000;  154.000
319.230;  -43.350; -756.000; -742.000
319.367;  158.325; -471.000; -520.000
319.503;   68.000; -538.000; -436.000
319.639; -101.700; -877.000; -793.000
319.775;  -49.575; -750.000; -685.000
319.912;  -56.650; -424.000; -519.000
320.048;  -80.675;-1184.000;-1184.000
320.184;   88.500;   59.000;   70.000
320.321;  -68.150; -497.000; -467.000
320.457;   66.750;  475.000;  662.000
320.593;  -56.575; -375.000; -382.000
320.729; -104.475; -732.000; -734.000
320.866;  -62.550; -577.000; -635.000
321.002;  -68.475; -759.000; -809.000
321.138;   -0.775; -135.000; -211.000
321.274;   72.225; -148.000; -115.000
321.410;  -18.275; -585.000; -353.000
321.546;  -19.200;-1011.000; -911.000
321.683;   64.450;  400.000;  185.000
321.819;   21.375;  -48.000; -117.000
321.955;  -94.325; -743.000; -722.000
322.091;  -39.800; -585.000; -540.000
322.227;  -11.575; -382.000; -202.000
322.363;    5.525; -320.000; -215.000
322.499;  -42.425; -343.000; -331.000
322.635;  207.325;  636.000;  443.000
322.771;   25.250; -139.000;   12.000
322.907;   98.075;  129.000;  327.000
323.043;  -14.775; -115.000; -206.000
323.179;  -20.050; -394.000; -363.000
323.315;   65.700; -401.000; -371.000
323.451;  153.000; -328.000; -236.000
323.587;   76.475;  -60.000;  -77.000
323.723;   38.050; -682.000; -601.000
323.859;    1.400; -258.000;  -76.000
323.995;  -26.225; -467.000; -409.000
324.131; -114.700; -967.000; -892.000
324.267;  -42.350; -254.000; -276.000
324.402; -119.450; -960.000; -983.000
324.538;  -19.800; -279.000; -104.000
324.674;   49.525;  164.000;   77.000
324.810;  189.875;  226.000;  308.000
324.946;   47.775; -810.000; -658.000
325.082;  -76.575; -568.000; -475.000
325.217;  -10.150;  -62.000;   16.000
325.353;  -91.375; -764.000; -659.000
325.489;  -80.625; -540.000; -506.000
325.625;  -77.575; -579.000; -525.000
325.760;   64.425;  517.000;  376.000
325.896;  -28.025; -515.000; -702.000
326.032;  -40.250; -403.000; -352.000
326.168;  -54.475; -462.000; -369.000
326.303;  -61.075; -352.000; -461.000
326.439;  -13.700; -336.000; -276.000
326.575;   10.425; -190.000;  -29.000
326.710;    3.675; -156.000;  -30.000
326.846;   -4.400;  146.000;  103.000
326.982;  -89.925; -530.000; -548.000
327.117;  -67.700; -481.000; -442.000
327.253;  -92.425; -745.000; -742.000
327.388; -138.325;-1137.000;-1153.000
327.524;  -30.525; -811.000; -578.000
327.659;  -23.425;  -58.000;  -22.000
327.795;    1.350;   69.000;   45.000
327.931;  -85.775; -723.000; -499.000
328.066;  -21.025; -417.000; -276.000
328.202;   -1.975;   12.000; -129.000
328.337;  111.525;  957.000;  713.000
328.473;   33.650;  -12.000;  -74.000
328.608;  -20.300; -256.000; -267.000
328.743;  -68.950; -799.000; -664.000
328.879;   21.925;  214.000;  114.000
329.014;  -31.475; -102.000; -122.000
329.150;  -78.625; -358.000; -483.000
329.285;  -73.350; -465.000; -466.000
329.421;  -35.775; -548.000; -246.000
329.556;  -32.350;  -36.000;   85.000
329.691;  -99.425; -633.000; -615.000
329.827;  -74.900; -626.000; -480.000
329.962;  -42.025;  131.000; -301.000
330.097;  -90.575; -673.000; -585.000
330.233;  -54.900; -410.000; -223.000
330.368; -117.700; -839.000; -628.000
330.503;   -6.150;    3.000;   98.000
330.638;   13.000;  -93.000; -125.000
330.774;  -38.400; -609.000; -530.000
330.909;  -25.850; -434.000; -244.000
331.044;  -86.675; -714.000; -708.000
331.179; -162.675;-1217.000;-1109.000
331.315;   16.725;   77.000;   20.000
331.450;   17.525;  157.000;  285.000
331.585;  -75.600; -805.000; -706.000
331.720;  -77.825; -510.000; -460.000
331.855;    4.200;  -35.000; -102.000
331.990;  200.075;   62.000;  138.000
332.126;  102.250; -110.000;   71.000
332.261;  -24.675; -379.000; -265.000
332.396;   -5.875; -135.000; -242.000
332.531; -106.225;-1074.000;-1031.000
332.666;    3.250; -519.000; -363.000
332.801;  -83.425; -726.000; -807.000
332.936;  -21.200; -192.000; -122.000
333.071; -119.850; -870.000; -817.000
333.206;   33.825;  307.000;  379.000
333.341;   34.625;  344.000;  418.000
333.476;  -72.100; -627.000; -623.000
333.611;  -25.850; -251.000; -173.000
333.746;  -37.725; -381.000; -464.000
333.881;  -95.800; -973.000; -935.000
334.016; -113.950; -936.000; -917.000
334.151; -123.275; -746.000; -702.000
334.286;   38.350;  152.000;  186.000
334.421;   -7.650; -125.000; -178.000
334.556;  -70.200; -611.000; -567.000
334.690;  -71.650; -631.000; -577.000
334.825;   62.450;  381.000;   83.000
334.960;  -45.375; -285.000; -413.000
335.095;   33.250;  135.000;  -91.000
335.230;  -88.525; -722.000; -738.000
335.365; -118.275;-1084.000; -990.000
335.499; -107.975;-1108.000;-1037.000
335.634;   33.450;    9.000;  534.000
335.769;  -94.600; -755.000; -720.000
335.904;  -34.450; -603.000; -561.000
336.038;  -28.850; -735.000; -657.000
336.173;  -85.625;-1206.000;-1194.000
336.308;   33.175; -116.000; -189.000
336.443;   37.275; -544.000; -634.000
336.577;  -27.225; -936.000; -787.000
336.712;   90.125;   -4.000;  -12.000
336.847;   -6.300; -724.000; -607.000
336.981;  117.125; -272.000; -208.000
337.116;  346.250;  615.000;  501.000
337.250;  209.425; -434.000; -421.000
337.385;  191.700; -297.000; -208.000
337.520;   43.800; -632.000; -603.000
337.654;  -27.350; -215.000; -126.000
337.789; -124.975; -989.000; -933.000
337.923;  -28.925; -104.000; -205.000
338.058;  -80.225; -673.000; -738.000
338.192;  -17.075; -611.000; -488.000
338.327;   -4.975;  -18.000; -155.000
338.461;  -56.525; -299.000; -469.000
338.596;  -89.250; -780.000; -638.000
338.730;  -99.075; -767.000; -803.000
338.865;   81.000;  -46.000; -140.000
338.999;  -80.550; -846.000; -702.000
339.134;  -29.000; -634.000; -536.000
339.268;    9.525; -741.000; -603.000
339.403;  306.850; -740.000; -775.000
339.537;   74.150; -894.000; -820.000
339.671; -127.925; -829.000; -813.000
339.806;  -70.725; -556.000; -512.000
339.940;   11.475; -261.000; -235.000
340.074;  -97.925; -685.000; -510.000
340.209;  -50.350; -351.000; -230.000
340.343;  -83.025; -517.000; -573.000
340.477;  158.075;  998.000; 1036.000
340.612;  -78.725;-1033.000; -900.000
340.746;   98.450; -199.000; -243.000
340.880;  -58.825; -924.000; -785.000
341.014;  -11.300;  -45.000; -154.000
341.149; -111.150; -756.000; -718.000
341.283;  -93.825; -839.000; -754.000
341.417;  -67.250;-1124.000; -938.000
341.551;  217.800; -768.000; -708.000
341.685;  -23.750; -633.000; -611.000
341.820;  -63.050; -562.000; -493.000
341.954;  -50.200; -218.000; -349.000
342.088; -142.000;-1102.000;-1019.000
342.222;   64.875;  565.000;  618.000
342.356;  -53.275; -395.000; -335.000
342.490;  -78.400; -880.000; -841.000
342.624;  -34.925; -339.000; -242.000
342.758;   24.825; -364.000; -312.000
342.892;  -53.500; -710.000; -585.000
343.026;  -43.450;  -58.000; -116.000
343.160;  -49.550; -426.000; -376.000
343.294;  -75.800; -474.000; -337.000
343.428;   -4.725; -488.000; -448.000
343.562;   -5.525; -172.000;  -23.000
343.696;  -18.050; -385.000; -314.000
343.830;   -3.900; -362.000; -356.000
343.964;   24.600; -231.000; -168.000
344.098; 1118.600;  199.000;   70.000
344.232;  940.675; -266.000; -127.000
344.366;   90.200; -567.000; -453.000
344.500;  112.475; -665.000; -744.000
344.634;   54.375; -324.000; -164.000
344.768;   10.125; -531.000; -341.000
344.902;   32.300;  278.000;  256.000
345.035;  -79.425; -556.000; -496.000
345.169; -127.575; -933.000; -656.000
345.303;  -47.500; -308.000; -482.000
345.437;  -34.350; -826.000; -717.000
345.571;  -59.775; -675.000; -594.000
345.704;  -73.300; -309.000; -532.000
345.838;   -8.525; -331.000; -284.000
345.972;  -24.475; -543.000; -495.000
346.106;  138.500; -179.000; -190.000
346.239;  431.850; -312.000; -243.000
346.373;   26.300; -343.000; -302.000
346.507; -141.175; -950.000; -962.000
346.640;  199.575;  -30.000;   13.000
346.774;  -20.125; -650.000; -797.000
346.908;   -6.150; -138.000;  -11.000
347.041;  -78.450; -646.000; -593.000
347.175;    1.950;  259.000;   27.000
347.309;  -63.050; -698.000; -628.000
347.442;  -99.250; -883.000; -732.000
347.576;  331.800;  670.000;  668.000
347.709;  263.350; -123.000;  -52.000
347.843;  -68.625; -933.000; -825.000
347.976;   46.325;  235.000;  294.000
348.110; -170.850;-1268.000;-1186.000
348.243;  -93.825; -679.000; -772.000
348.377;    9.675;  -26.000;   60.000
348.510;   49.475;  403.000;  540.000
348.644;  -23.300;  -37.000; -159.000
348.777;   13.450;  180.000;  191.000
348.911;  -41.800; -142.000; -112.000
349.044;  197.375;  471.000;  448.000
349.178;  221.675;-1069.000;-1006.000
349.311;  126.650;  141.000;  255.000
349.444;  -31.375; -927.000; -813.000
349.578;   -4.400; -347.000; -200.000
349.711;  -91.825; -959.000; -862.000
349.845;   31.850; -661.000; -591.000
349.978; -135.625;-1224.000;-1137.000
350.111;  -87.700; -546.000; -612.000
350.244;  -71.250; -596.000; -700.000
350.378;   11.825; -392.000; -393.000
350.511;  -81.300; -393.000; -426.000
350.644; -100.175; -808.000; -806.000
350.778;   21.225;  168.000;  104.000
350.911;   22.750;  134.000;  140.000
351.044;  -93.800; -685.000; -615.000
351.177;  -20.575; -321.000; -281.000
351.310;  -25.200;    3.000; -131.000
351.444;  -50.500; -888.000; -788.000
351.577;  159.725;  140.000;   90.000
351.710;  108.100;  593.000;  417.000
351.843;  -33.425; -165.000;  -77.000
351.976;   14.650;  149.000;  -79.000
352.109;  -74.575; -621.000; -612.000
352.242;   -6.675; -464.000; -419.000
352.376;  -37.350; -580.000; -636.000
352.509;  252.300; -437.000; -356.000
352.642;   52.125; -654.000; -604.000
352.775;   72.050; -141.000;  -98.000
352.908; -106.825; -933.000; -904.000
353.041;  -90.850; -814.000; -824.000
353.174;  -45.700; -551.000; -424.000
353.307;  -75.725; -753.000; -764.000
353.440;   84.350;  541.000;  453.000
353.573; -103.250; -957.000;-1008.000
353.706;  -57.550; -384.000; -558.000
353.839;   -9.925; -264.000; -220.000
353.971;  -86.775; -657.000; -512.000
354.104;  -76.875; -896.000; -835.000
354.237;  -10.450; -627.000; -662.000
354.370;  -78.075; -846.000; -879.000
354.503; -171.750;-1231.000;-1308.000
354.636;  -24.625; -529.000; -348.000
354.769; -123.175; -937.000; -860.000
354.902;    7.650; -230.000; -139.000
355.034;  -16.425; -164.000; -220.000
355.167;   -2.225; -262.000; -162.000
355.300; -100.750;-1061.000; -880.000
355.433;  840.800;  -71.000;  -14.000
355.565; 1258.100; -402.000; -384.000
355.698;  309.175; -356.000; -296.000
355.831;   11.975; -882.000; -801.000
355.964;  130.800; -285.000; -170.000
356.096;  -58.000; -856.000; -843.000
356.229;   48.375; -523.000; -530.000
356.362;  268.100; -373.000; -266.000
356.494;  519.425; -229.000; -162.000
356.627;  560.025;  269.000;  377.000
356.760;  611.300;  120.000;   53.000
356.892;  768.575; -286.000; -601.000
357.025;  792.450;  403.000;  389.000
357.157;  742.025; -167.000; -179.000
357.290;  486.525; -856.000; -713.000
357.423;  186.025; -667.000; -556.000
357.555;  140.000; -217.000; -228.000
357.688;  148.750; -483.000; -364.000
357.820;  527.125; -870.000; -877.000
357.953; 4100.950; -563.000; -589.000
358.085;  958.525; -632.000; -612.000
358.218; 1611.550;-1131.000; -932.000
358.350;  288.950;  -58.000;  312.000
358.483;  -92.575;-1300.000;-1187.000
358.615;   19.050;-1182.000;-1078.000
358.747;  -26.225;-1187.000;-1058.000
358.880;   62.275; -810.000; -744.000
359.012;    6.475; -376.000; -202.000
359.145;  -30.725; -480.000; -511.000
359.277;   98.550; -962.000; -913.000
359.409; 3467.800;  536.000;  231.000
359.542;  915.050; -738.000; -688.000
359.674;   83.875;   46.000;   13.000
359.806;  -52.150; -565.000; -438.000
359.939;  -46.150; -617.000; -516.000
360.071;  -29.875; -583.000; -579.000
360.203;  -16.375; -411.000; -364.000
360.335;   57.425;  164.000;  -16.000
360.468;  215.500; -249.000; -307.000
360.600; 2639.775; -547.000; -454.000
360.732; 2293.025; -546.000; -423.000
360.864;  318.900;-1216.000;-1044.000
360.996;  389.800; -516.000; -554.000
361.129;   91.325; -389.000; -598.000
361.261;   33.075;  110.000; -113.000
361.393;  -28.700; -252.000; -214.000
361.525;   41.375;   94.000;  244.000
361.657;  -22.775; -821.000; -703.000
361.789;   23.575; -139.000; -155.000
361.921;  331.725; -642.000; -593.000
362.053;  324.175;  524.000;  541.000
362.185;   62.325;  288.000;   72.000
362.318;  -66.800; -709.000; -705.000
362.450;  172.175;  294.000;  444.000
362.582;  248.550; -913.000; -870.000
362.714;  -14.700; -353.000; -332.000
362.846;  -75.525; -606.000; -490.000
362.978; -140.250; -941.000; -811.000
363.109;   81.000; -161.000; -260.000
363.241;  559.425; -739.000; -749.000
363.373;  362.850; -649.000; -564.000
363.505;  523.600; -186.000;  -91.000
363.637;  130.725; -787.000; -601.000
363.769; -114.050;-1067.000;-1080.000
363.901;  -56.700; -596.000; -654.000
364.033; -103.800;-1103.000;-1062.000
364.165;    2.800; -283.000; -283.000
364.296;   69.450; -316.000; -177.000
364.428;   29.825;-1344.000;-1220.000
364.560;  -65.750; -679.000; -661.000
364.692;  -40.800; -738.000; -835.000
364.824;  391.800; -588.000; -456.000
364.955;  433.875; -402.000; -564.000
365.087;  640.300;-1097.000; -852.000
365.219;    7.000; -686.000; -816.000
365.351;  -58.900; -526.000; -572.000
365.482;   59.900;  300.000;  240.000
365.614;  -53.600; -402.000; -314.000
365.746;  -91.625; -729.000; -752.000
365.877;  -98.900; -706.000; -672.000
366.009;  209.075;  -35.000;  -62.000
366.141; -105.000;-1249.000;-1134.000
366.272; -111.325; -803.000; -719.000
366.404; -111.200;-1005.000; -874.000
366.535;   -1.625; -139.000;  -12.000
366.667;  -88.150; -644.000; -649.000
366.799;   51.575;  353.000;  203.000
366.930; -107.875; -862.000; -996.000
367.062;  118.275; -639.000; -613.000
367.193;   85.800; -872.000; -842.000
367.325;  -71.250; -580.000; -684.000
367.456;  121.100; -246.000;   31.000
367.588;  160.125; -371.000; -318.000
367.719;   16.825;  -44.000;  -45.000
367.851;   -1.150; -222.000; -241.000
367.982;  -19.250; -875.000; -732.000
368.113;  143.775; -475.000; -358.000
368.245; -106.025; -960.000; -841.000
368.376;   -4.375; -254.000; -302.000
368.508;  -20.100; -188.000; -263.000
368.639; -125.400;-1166.000;-1034.000
368.770;   15.700; -670.000; -589.000
368.902;  -44.350; -836.000; -926.000
369.033; -101.625; -906.000; -855.000
369.164;  -38.100; -720.000; -653.000
369.296; -106.925; -452.000; -601.000
369.427;   13.400; -209.000; -144.000
369.558;  -26.025; -593.000; -377.000
369.689;  -71.900; -721.000; -569.000
369.821; -122.150; -951.000; -845.000
369.952;   -7.150;   42.000; -108.000
370.083;  -51.975; -229.000; -108.000
370.214;  -83.950; -735.000; -650.000
370.345;  -10.225;   65.000;   81.000
370.477;  -66.600; -810.000; -790.000
370.608;  315.475; -328.000; -264.000
370.739;  -14.575;-1233.000;-1292.000
370.870;    1.925;-1102.000; -923.000
371.001;  136.175; -378.000; -467.000
371.132;  -57.075; -754.000; -735.000
371.263;  -11.350;  -42.000; -148.000
371.394; -129.175; -841.000; -748.000
371.525;   39.550;  345.000;  225.000
371.657;  -80.475; -808.000; -670.000
371.788;   80.525;  103.000;  199.000
371.919;  223.175; -384.000; -304.000
372.050; 4351.725;  -91.000; -156.000
372.181; 1298.225; -188.000; -294.000
372.311;  497.900;   42.000; -127.000
372.442;   71.625; -457.000; -451.000
372.573;    1.000; -444.000; -340.000
372.704; -101.200;-1008.000; -980.000
372.835;  127.100; -228.000; -289.000
372.966;  -39.675; -646.000; -554.000
373.097;  -54.175; -575.000; -711.000
373.228;  -17.725; -717.000; -542.000
373.359;  208.050; -824.000; -536.000
373.490; 1195.525; -881.000; -727.000
373.620; 1484.875;-1001.000; -803.000
373.751; 2277.425; -332.000; -396.000
373.882; 1018.125; -663.000; -733.000
374.013;  115.300; -449.000; -262.000
374.143;  -27.850; -581.000; -659.000
374.274;  -91.850; -987.000; -908.000
374.405;  213.550; -388.000; -276.000
374.536;  577.275; -526.000; -387.000
374.666; 1467.275; -759.000; -807.000
374.797;  314.975; -817.000; -868.000
374.928; 1138.125; -710.000; -560.000
375.058; 1100.250; -535.000; -500.000
375.189;  104.650;  -59.000;  -93.000
375.320;  -93.500; -928.000;-1034.000
375.450;  -24.350; -625.000; -616.000
375.581;  -47.350; -526.000; -436.000
375.712;  -27.700; -574.000; -250.000
375.842;  401.125; -438.000; -415.000
375.973;  288.900; -554.000; -513.000
376.103;   -8.725; -665.000; -648.000
376.234;  -85.350; -531.000; -552.000
376.364;  -16.250; -944.000; -867.000
376.495;  373.625;  925.000;  529.000
376.625;   27.425; -472.000; -485.000
376.756;  111.425; -709.000; -678.000
376.886;  -53.925;-1178.000;-1026.000
377.017;   20.050;-1048.000;-1061.000
377.147;  237.275; -786.000; -782.000
377.278;   43.025;  174.000;  228.000
377.408; -133.125; -801.000; -815.000
377.538;  -89.550; -707.000; -693.000
377.669;  -65.475; -537.000; -613.000
377.799;  -65.325; -645.000; -635.000
377.929;  -33.625; -610.000; -428.000
378.060; -139.950; -781.000; -847.000
378.190;  -48.625; -726.000; -531.000
378.320;  -50.525; -401.000; -406.000
378.451;    3.050; -131.000;  -22.000
378.581;   -0.075;  -67.000; -110.000
378.711;  180.825; 1035.000;  866.000
378.841;    7.975; -533.000; -675.000
378.972;  -47.075; -871.000; -751.000
379.102;   10.700; -652.000; -579.000
379.232;   -2.150; -126.000;  -73.000
379.362;  -98.925;-1001.000; -885.000
379.492;   51.775; -373.000; -424.000
379.623;  139.800;    0.000;  111.000
379.753;  -91.450;-1107.000; -974.000
379.883;  253.100;   59.000;  156.000
380.013;   54.800;-1081.000;-1017.000
380.143;  -91.625;-1097.000;-1056.000
380.273;  -94.825; -985.000; -861.000
380.403;   22.300; -344.000; -257.000
380.533;   -1.400; -651.000; -664.000
380.663;   93.275;  173.000;  128.000
380.793;  -66.225;-1027.000;-1074.000
380.923;  -12.050; -103.000;  -34.000
381.053;  -77.500; -613.000; -623.000
381.183;  -10.175; -106.000; -248.000
381.313;   67.450; -656.000; -470.000
381.443;   80.925; -692.000; -473.000
381.573;  289.500; -402.000; -409.000
381.703;  429.350;-1249.000;-1095.000
381.833; -100.200;-1454.000;-1336.000
381.963;  129.700; -134.000;  -87.000
382.093; 1638.475; -925.000; -909.000
382.223;  524.075; -713.000; -602.000
382.353;   13.075; -801.000; -608.000
382.482;  531.325;-1091.000; -964.000
382.612;  929.425; -872.000; -644.000
382.742;  522.750; -695.000; -622.000
382.872;  369.800; -565.000; -551.000
383.002;   75.100;  347.000; -132.000
383.131;   -5.875; -226.000; -160.000
383.261;  -26.825; -706.000; -768.000
383.391;  290.925; -552.000; -377.000
383.521; 2559.275;  451.000;  263.000
383.650;  554.375; -947.000; -904.000
383.780;  -25.775; -783.000; -656.000
383.910;  120.975;  880.000;  802.000
384.039;   63.425; -794.000; -656.000
384.169;  305.400;-1205.000;-1017.000
384.299;    7.650; -650.000; -662.000
384.428;  -72.375; -764.000; -680.000
384.558;  -38.725; -308.000; -275.000
384.687;  -23.225; -414.000; -334.000
384.817;   33.225;   75.000;   -2.000
384.947;   54.175; -234.000; -141.000
385.076;  359.100;  982.000;  912.000
385.206;  109.575;  369.000;  480.000
385.335;  -11.625; -549.000; -417.000
385.465;  -59.400; -655.000; -663.000
385.594;  199.800;  -53.000;  -44.000
385.724;  595.275; -868.000; -838.000
385.853;  178.850; -296.000; -270.000
385.982; 1776.525; -743.000; -787.000
386.112; 2712.600;-1052.000; -871.000
386.241;  194.425; -307.000; -312.000
386.371;   39.075; -174.000;  -87.000
386.500;    9.800; -825.000; -789.000
386.629;   37.975; -874.000; -817.000
386.759;   60.150;  -43.000;   68.000
386.888;   26.075; -170.000; -250.000
387.017;  -43.125; -648.000; -620.000
387.147;  -58.200; -771.000; -798.000
387.276;   26.900; -410.000; -397.000
387.405;   33.450; -398.000; -342.000
387.535;  -18.475; -452.000; -361.000
387.664;  -50.925; -692.000; -620.000
387.793;   89.500; -198.000; -113.000
387.922;  680.200;  255.000;  200.000
388.052;   67.350; -576.000; -423.000
388.181;   89.825; -342.000; -472.000
388.310;   91.300; -889.000; -710.000
388.439;    1.250; -749.000; -742.000
388.568;  243.450;  365.000;  244.000
388.697; 1377.275; -756.000; -653.000
388.826;  294.075; -768.000; -666.000
388.956;  114.450; -285.000; -307.000
389.085;  -14.475; -347.000; -287.000
389.214; -103.125; -842.000; -872.000
389.343;  -44.450; -645.000; -413.000
389.472;  353.625;  126.000;  149.000
389.601;  484.675;   91.000;    0.000
389.730;   28.550; -568.000; -687.000
389.859;   82.650;  226.000;   46.000
389.988;  256.425; -423.000; -408.000
390.117;  178.875; -168.000; -146.000
390.246;    9.300; -331.000; -320.000
390.375;  166.525; -673.000; -626.000
390.504;  -56.200; -703.000; -621.000
390.633;  -88.500; -672.000; -726.000
390.761;  -61.900; -732.000; -645.000
390.890;   62.275;   -4.000; -130.000
391.019;    4.350; -421.000; -441.000
391.148; -118.550; -826.000; -855.000
391.277;  -55.575; -576.000; -493.000
391.406;  -53.475; -821.000; -805.000
391.534;   30.800;  574.000; -301.000
391.663;  -51.225; -583.000; -645.000
391.792;  -68.575; -673.000; -701.000
391.921;  163.950;   -3.000;   15.000
392.050;  292.875; -287.000; -228.000
392.178;    6.600;-1206.000;-1061.000
392.307;  200.825; -758.000; -712.000
392.436;  129.650; -427.000; -641.000
392.564;   32.475;  166.000;   -6.000
392.693;  -81.075; -860.000; -682.000
392.822;  303.625; -529.000; -534.000
392.950;  161.375; -880.000; -714.000
393.079;  427.925; -188.000; -328.000
393.208;   60.000; -488.000; -511.000
393.336;  -10.700; -170.000; -145.000
393.465;  -42.200; -317.000; -199.000
393.593;    3.500;   62.000;   79.000
393.722; -163.175;-1121.000; -916.000
393.850;  -35.775; -188.000;  -61.000
393.979; -155.100; -926.000; -805.000
394.107;  -62.225; -517.000; -537.000
394.236;  -24.225; -570.000; -507.000
394.364;  202.625;  383.000;  206.000
394.493;  328.800; -911.000; -767.000
394.621;  -29.425; -955.000; -916.000
394.750;  576.300; -873.000; -923.000
394.878; 2491.025; -247.000; -149.000
395.007; 3363.525; -721.000; -807.000
395.135;  236.350; -790.000; -721.000
395.263;  -93.925;-1038.000;-1040.000
395.392;   -0.100;  -25.000; -107.000
395.520; -153.750; -818.000; -679.000
395.648;  -83.300; -865.000; -915.000
395.777;    0.550; -366.000; -405.000
395.905;  -39.875; -449.000; -564.000
396.033;   10.525;  217.000;  172.000
396.162;  548.600; -399.000; -453.000
396.290;  485.725;  -17.000;   -2.000
396.418;  138.075; -555.000; -514.000
396.546;  -46.425; -571.000; -466.000
396.674;  -86.500; -850.000; -878.000
396.803;   12.150;  -72.000;  -23.000
396.931;  129.175; -179.000; -199.000
397.059;  121.600;-1026.000; -989.000
397.187; -108.300;-1026.000; -975.000
397.315; -124.625; -884.000; -649.000
397.443;  -86.425; -592.000; -443.000
397.572;  -94.675; -578.000; -424.000
397.700;   18.250; -607.000; -614.000
397.828;   25.750;  120.000;  -90.000
397.956;  -44.475; -508.000; -478.000
398.084;  -83.850; -767.000; -626.000
398.212;   54.350;  137.000;  124.000
398.340;   23.950;  -56.000;  159.000
398.468;   71.000; -390.000; -169.000
398.596; -137.200; -993.000; -953.000
398.724; -125.000; -762.000; -767.000
398.852; -160.675;-1024.000; -976.000
398.980;  -56.825; -560.000; -560.000
399.108;  -41.950; -982.000; -735.000
399.236;   55.825;   13.000;    8.000
399.363;   13.225;  222.000;  196.000
399.491;  -65.850; -404.000; -398.000
399.619; -127.625; -829.000; -800.000
399.747;  -98.625; -859.000; -771.000
399.875;   80.650;  220.000;  234.000
400.003;  -58.425; -359.000; -284.000
400.130; -104.500; -421.000; -341.000
400.258;  -30.950;  -83.000;   38.000
400.386;  -64.325; -352.000; -168.000
400.514;  -30.800; -526.000; -587.000
400.641;  -56.675; -928.000; -802.000
400.769; -129.025; -979.000; -888.000
400.897; -106.750; -838.000; -793.000
401.025;    6.825; -166.000; -152.000
401.152;   11.875;  220.000;   38.000
401.280;  -93.225; -430.000; -429.000
401.408; -102.800; -712.000; -576.000
401.535;  -99.525; -735.000; -758.000
401.663; -191.775;-1134.000;-1054.000
401.790;  -82.750; -514.000; -525.000
401.918;   57.450;  436.000;  405.000
402.046;   -9.125;  134.000;  122.000
402.173;  -33.150;  -18.000;    7.000
402.301;  -71.975; -519.000; -397.000
402.428;   44.900;  528.000;  383.000
402.556; -147.575;-1188.000; -913.000
402.683;  -34.500;  -20.000;   -1.000
402.811;  -23.525;  -37.000; -206.000
402.938;   -1.825;   20.000;   27.000
403.066;  284.025; -574.000; -558.000
403.193;  425.500;  299.000;  239.000
403.321;  343.125; -396.000; -574.000
403.448;  425.775;   83.000;   27.000
403.575;  179.575;  -90.000;  -46.000
403.703;  -87.600; -732.000; -557.000
403.830;  -72.825; -531.000; -496.000
403.957; -143.900;-1117.000;-1023.000
404.085;   11.800;  -61.000; -172.000
404.212;  113.925;  -50.000;   63.000
404.339;  226.775; -566.000; -306.000
404.467; 4810.550; -612.000; -524.000
404.594; 3513.675; -287.000; -227.000
404.721;  958.625; -869.000; -764.000
404.848;   91.075; -113.000; -202.000
404.976; -108.800; -856.000; -783.000
405.103;  -21.400;  -14.000;  -82.000
405.230;   10.025;  190.000;  226.000
405.357;   34.550;  117.000;   44.000
405.484;  222.625;  -49.000;    5.000
405.612;   48.400; -548.000; -563.000
405.739;  -54.100; -488.000; -243.000
405.866;   96.750;  669.000;  385.000
405.993;  -51.925; -398.000; -102.000
406.120; -128.775; -801.000; -887.000
406.247;  -54.100; -323.000; -342.000
406.374;  569.000;  540.000;  629.000
406.501;  182.725; -632.000; -702.000
406.628;  -70.925; -621.000; -589.000
406.755;  -95.075; -803.000; -620.000
406.882;  -35.125; -228.000; -277.000
407.009; -112.200; -719.000; -628.000
407.136;   82.900; -480.000; -401.000
407.263;  223.700; -939.000; -829.000
407.390;  -67.375; -692.000; -614.000
407.517; -167.700;-1139.000;-1187.000
407.644;  -51.000; -332.000; -256.000
407.771;  -68.475; -249.000; -287.000
407.898;    1.150;  168.000;  328.000
408.025;  -69.700; -421.000; -313.000
408.151;  -13.325;   82.000;  153.000
408.278;  -70.425; -267.000; -216.000
408.405; -129.000; -931.000; -899.000
408.532;  -78.900; -549.000; -542.000
408.659; -118.250; -677.000; -648.000
408.785; -204.075;-1298.000;-1170.000
408.912;  -62.750; -412.000; -296.000
409.039; -118.250; -610.000; -686.000
409.166; -107.500; -591.000; -555.000
409.292; -105.450; -571.000; -534.000
409.419; -121.000; -665.000; -649.000
409.546;  -76.875; -431.000; -192.000
409.672; -109.725; -713.000; -545.000
409.799;  -20.075;  -36.000;   34.000
409.926;  -43.550; -180.000; -179.000
410.052; -171.625;-1127.000;-1091.000
410.179;  -62.600; -368.000; -392.000
410.305;  -79.850; -375.000; -493.000
410.432;  -29.725; -220.000; -333.000
410.558; -105.100; -305.000; -380.000
410.685; -113.875; -688.000; -431.000
410.812;  -96.900; -409.000; -588.000
410.938; -127.875; -964.000; -808.000
411.065;  -93.225; -671.000; -645.000
411.191;  -18.825; -189.000; -174.000
411.317; -122.275; -823.000; -742.000
411.444;  -69.950; -317.000; -246.000
411.570;  -75.975; -339.000; -294.000
411.697; -133.175; -758.000; -752.000
411.823; -173.300; -989.000; -999.000
411.949;  -33.450;  -56.000;   17.000
412.076; -117.250; -539.000; -519.000
412.202; -118.925; -758.000; -757.000
412.329; -116.975; -798.000; -752.000
412.455; -114.300; -821.000; -657.000
412.581;   -9.825;  -15.000;  172.000
412.707;  -59.750; -540.000; -457.000
412.834;   19.050;  156.000;  219.000
412.960;  -83.350; -785.000; -784.000
413.086; -100.300; -743.000; -701.000
413.212;  183.225;  604.000;  578.000
413.339;  -49.500; -685.000; -701.000
413.465;   19.400; -364.000; -310.000
413.591;  -89.375; -757.000; -474.000
413.717;  -60.700; -358.000; -366.000
413.843; -138.700; -839.000; -861.000
413.969;  -58.300;  -47.000; -292.000
414.096;  -96.950; -679.000; -679.000
414.222;   -3.300;  -33.000;   85.000
414.348;    4.850; -652.000; -385.000
414.474;  141.875;   38.000;  -52.000
414.600;  -17.950; -126.000; -144.000
414.726;  -16.700;  -96.000;  -55.000
414.852;  -64.525; -365.000; -342.000
414.978;   30.950;  104.000;  -18.000
415.104;   49.975;   38.000;   80.000
415.230;   19.875; -329.000; -330.000
415.356;   34.500; -409.000; -514.000
415.482;  197.250;   13.000;  -35.000
415.608;  237.800; -247.000; -323.000
415.734;  850.200;   67.000;   38.000
415.860;17937.750; -875.000; -767.000
415.986;12824.350; -685.000; -607.000
416.111; 1062.750; -798.000; -652.000
416.237;  204.825; -424.000; -571.000
416.363;  931.000; -765.000; -733.000
416.489; 3492.425; -324.000; -251.000
416.615;  325.050; -707.000; -742.000
416.741;  -35.800; -677.000; -784.000
416.866;  -97.500; -673.000; -736.000
416.992; -130.375; -801.000; -818.000
417.118;  -40.350;  -41.000;  -80.000
417.244;  -51.700; -798.000; -531.000
417.369;  -84.250; -801.000; -612.000
417.495;   -2.075; -325.000; -254.000
417.621;  -79.600;-1015.000; -803.000
417.746;    2.175; -579.000; -572.000
417.872;   28.825; -254.000; -144.000
417.998;   21.725; -515.000; -530.000
418.123;  895.400;-1073.000; -845.000
418.249; 4551.800; -512.000; -601.000
418.374;  581.625; -916.000; -824.000
418.500;   73.575; -383.000; -482.000
418.626;  103.350;   70.000;  -59.000
418.751;  102.075; -549.000; -448.000
418.877;  172.900; -637.000; -643.000
419.002; 1517.300; -688.000; -560.000
419.128;10630.000; -930.000; -721.000
419.253; 2548.900; -967.000; -837.000
419.379;  325.175; -391.000; -338.000
419.504;  342.425;  325.000;  415.000
419.629;  416.975; -393.000; -212.000
419.755; 2875.500; -317.000; -254.000
419.880;16924.450;  -98.000;   67.000
420.006; 9702.075; -280.000; -221.000
420.131;25501.325; -662.000; -775.000
420.256; 3636.850; -315.000; -316.000
420.382;  466.150; -665.000; -687.000
420.507;   45.400; -649.000; -778.000
420.632;  196.450; -337.000; -339.000
420.758;  355.400; -251.000; -425.000
420.883;  -68.275; -876.000; -672.000
421.008;  -97.550; -775.000; -619.000
421.133;  -85.100; -509.000; -467.000
421.259;  -59.950; -325.000; -259.000
421.384;  -99.850; -834.000; -693.000
421.509;   -1.525;-1052.000; -862.000
421.634; 1671.025; -936.000; -820.000
421.759;  708.475; -359.000; -327.000
421.885;  -34.225; -717.000; -656.000
422.010;  -62.225; -673.000; -542.000
422.135; -152.825; -695.000; -727.000
422.260;   37.400;  340.000;  280.000
422.385;  -43.475;   12.000;  -98.000
422.510;   10.700;  151.000;  -26.000
422.635;   14.125;  -87.000;  -43.000
422.760;  109.525; -766.000; -791.000
422.885;   61.875;  -57.000;  -80.000
423.010;  -26.425; -112.000; -169.000
423.135;  -85.475; -481.000; -561.000
423.260;   -7.550; -150.000; -245.000
423.385;   63.600;  476.000;  222.000
423.510;   47.725;   71.000;  -22.000
423.635;   97.025;  133.000;   45.000
423.760;   57.175;  383.000;  328.000
423.885;   56.050;  336.000;  391.000
424.010;   24.300;  -68.000;  -13.000
424.135;  -19.450;    5.000;  -33.000
424.259;  -92.400; -654.000; -457.000
424.384;  -67.925; -279.000; -272.000
424.509;  -28.800; -260.000; -186.000
424.634; -111.150; -761.000; -623.000
424.759;  -39.275; -688.000; -544.000
424.883;  -29.550; -506.000; -527.000
425.008;  145.650; -502.000; -410.000
425.133; 1713.500; -679.000; -653.000
425.258;  796.400; -517.000; -381.000
425.382; 1211.825; -867.000; -774.000
425.507; 3086.925; -487.000; -543.000
425.632;  462.775; -802.000; -663.000
425.756;  368.125; -256.000; -146.000
425.881; 5106.400; -831.000; -857.000
426.006;13441.650; -604.000; -355.000
426.130; 2160.925; -696.000; -508.000
426.255;  269.675; -611.000; -491.000
426.379;  129.975; -189.000; -577.000
426.504;  319.750;  660.000;  544.000
426.629; 3629.475; -519.000; -466.000
426.753; 2466.600;   64.000;  -46.000
426.878;  268.075; -252.000; -288.000
427.002;  112.525; -651.000; -668.000
427.127; 1425.325;  -35.000; -158.000
427.251; 9648.475;  372.000;  401.000
427.375; 2746.650; -191.000; -173.000
427.500; 2685.775; -616.000; -610.000
427.624;  907.150; -234.000; -400.000
427.749;  126.625; -216.000; -225.000
427.873;  -19.775; -499.000; -412.000
427.997;  -47.125; -222.000; -230.000
428.122;   77.775;  795.000;  703.000
428.246;   88.800;  433.000;  434.000
428.371; -129.375; -869.000; -773.000
428.495; -106.825; -624.000; -646.000
428.619;  -27.525; -186.000; -117.000
428.743;   27.600;   65.000;  132.000
428.868;   42.400; -732.000; -643.000
428.992; 1733.350; -219.000; -326.000
429.116;  719.925; -329.000; -357.000
429.240;  336.900;  419.000;  426.000
429.365;   -6.500; -454.000; -574.000
429.489;  -27.400; -638.000; -647.000
429.613;   16.175; -236.000; -177.000
429.737;    5.775; -563.000; -432.000
429.861;  230.575; -247.000; -133.000
429.985; 4814.425; -425.000; -305.000
430.109; 5190.675; -770.000; -908.000
430.234;  594.525;   76.000;  -50.000
430.358;   51.225; -250.000; -160.000
430.482;  -79.550; -672.000; -564.000
430.606;  -54.650; -655.000; -375.000
430.730;   57.250; -437.000; -388.000
430.854;  199.800; -909.000; -835.000
430.978;  -54.150; -795.000; -764.000
431.102;  -64.850; -499.000; -422.000
431.226; -110.575; -874.000; -815.000
431.350;   53.725;  345.000;  422.000
431.474;  -66.750; -661.000; -373.000
431.597; -144.275;-1060.000; -848.000
431.721;  -92.250; -276.000; -267.000
431.845; -136.225; -704.000; -472.000
431.969;  -83.775; -304.000; -349.000
432.093;  -92.850; -395.000; -317.000
432.217;  -13.400;   32.000;   82.000
432.341;  -93.375; -523.000; -518.000
432.464;   17.550;   96.000;   40.000
432.588;  296.475; -401.000; -329.000
432.712;  139.475;  -52.000;  -52.000
432.836;   51.250;  213.000;  263.000
432.959;  -16.475; -372.000; -311.000
433.083;   62.750;   11.000;    2.000
433.207;  319.300;  285.000;  930.000
433.330; 4244.825; -391.000; -200.000
433.454; 5160.750; -654.000; -638.000
433.578; 3038.600;  583.000;  278.000
433.701;  551.725; -623.000; -675.000
433.825;  195.750; -292.000; -299.000
433.949;  290.900;   28.000;  -72.000
434.072;  120.975; -410.000; -323.000
434.196;  -18.525; -309.000; -117.000
434.319; 3790.350;25482.000;25124.000
434.443;  723.600; -656.000; -603.000
434.566; 2260.875;  281.000;   62.000
434.690;  348.225; -637.000; -383.000
434.813;   49.950; -251.000; -173.000
434.937;  -71.700; -569.000; -696.000
435.060;  -20.650; -423.000; -332.000
435.184;  522.275; -492.000; -217.000
435.307;  285.875;  159.000;  102.000
435.431;   11.075;  -40.000;   24.000
435.554;  -67.550; -399.000; -240.000
435.677;  -97.375; -350.000; -258.000
435.801;  -54.675;  -25.000;   49.000
435.924;   -2.825;    1.000;  -67.000
436.048;  -96.200;-1019.000; -732.000
436.171;  -63.075; -240.000;  -66.000
436.294;  -34.900; -248.000; -229.000
436.417;   50.175; -963.000; -849.000
436.541; -108.550; -814.000; -840.000
436.664;  -47.025; -242.000; -316.000
436.787;  -15.300;   13.000;  113.000
436.910; -113.850; -792.000; -422.000
437.034;   15.100;  142.000;  143.000
437.157;   96.850;  -11.000;    0.000
437.280;  -23.950; -392.000; -292.000
437.403;  -65.700; -982.000; -869.000
437.526;  979.600; -903.000; -865.000
437.649; 3339.000; -505.000; -332.000
437.772;  544.525; -692.000; -540.000
437.896;  153.900;  700.000;  544.000
438.019;  -90.075; -758.000; -503.000
438.142;  -82.800; -596.000; -506.000
438.265;   22.275; -639.000; -670.000
438.388;  771.125; -520.000; -410.000
438.511;  175.650; -597.000; -394.000
438.634;  -28.350; -247.000; -125.000
438.757; -118.725; -693.000; -619.000
438.880;  -31.825;  -34.000;  -57.000
439.003;  -76.825; -417.000; -437.000
439.126;  -58.950; -287.000; -167.000
439.248;  -71.875;  -98.000; -139.000
439.371;  -49.950;    9.000;  -53.000
439.494;   15.375;  510.000;  439.000
439.617;  -39.775;   65.000;  -88.000
439.740; -187.025; -968.000; -816.000
439.863; -140.075; -755.000; -595.000
439.986; -129.650; -476.000; -431.000
440.108;  -49.025; -161.000; -112.000
440.231; -153.500; -950.000; -836.000
440.354;  -38.575;  -64.000; -150.000
440.477;   83.675; -566.000; -542.000
440.599;    9.625; -200.000; -225.000
440.722; -126.375; -709.000; -586.000
440.845;   56.650;  751.000;  928.000
440.968; -110.275; -415.000; -311.000
441.090;  -72.575; -199.000;  -33.000
441.213; -181.850;-1021.000; -825.000
441.336;  -53.300; -159.000;   -5.000
441.458;  -80.150; -549.000; -396.000
441.581;  -72.850; -628.000; -629.000
441.703;  -77.025; -152.000;   13.000
441.826; -110.750; -557.000; -400.000
441.948;  -49.600;   56.000;   51.000
442.071;   30.900;  555.000;  424.000
442.193; -112.375; -531.000; -485.000
442.316;   29.575;  152.000;   97.000
442.438;   31.825; -233.000;  -10.000
442.561;   85.225;  272.000;  262.000
442.683;  800.325; -809.000; -522.000
442.806; 1641.725;   -8.000;   74.000
442.928;  102.125; -859.000; -604.000
443.051;  -52.200; -577.000; -373.000
443.173;  -88.500; -341.000; -339.000
443.295; -108.050; -263.000; -371.000
443.418;  -69.900; -321.000;  -29.000
443.540;   -4.950; -106.000;   -4.000
443.662; -120.650; -563.000; -465.000
443.785;   -4.825;  335.000;  199.000
443.907; -106.100; -362.000; -208.000
444.029; -134.150; -767.000; -494.000
444.152; -149.425; -644.000; -554.000
444.274;  -28.225;  -18.000;  -24.000
444.396; -109.325; -461.000; -221.000
444.518; -143.275; -691.000; -454.000
444.640; -115.700; -268.000; -111.000
444.763;  -19.150;  388.000;  249.000
444.885; -120.025; -432.000; -392.000
445.007;  -42.100;   35.000;   86.000
445.129; -124.575; -610.000; -515.000
445.251; -108.375; -372.000; -439.000
445.373; -152.450; -537.000; -386.000
445.495;    5.325;  242.000;  350.000
445.617;   59.200;  853.000;  753.000
445.739;  -65.400; -215.000;  -97.000
445.861;  -39.925; -245.000; -112.000
445.984;  -39.750; -267.000; -101.000
446.105;  315.550; -418.000; -251.000
446.227;  831.975; -176.000;  -19.000
446.349;   38.450; -358.000; -249.000
446.471;  -93.800; -615.000; -448.000
446.593;  -67.600; -316.000;   19.000
446.715;   -6.425;  -67.000;   41.000
446.837;   63.150;  697.000;  832.000
446.959;  -90.600; -457.000; -478.000
447.081; -133.025; -628.000; -518.000
447.203;   49.875;  862.000;  834.000
447.325;  -86.125; -270.000;   42.000
447.446;   -7.450;  286.000;  530.000
447.568; -149.150; -921.000; -803.000
447.690;  -95.925; -236.000; -245.000
447.812; -149.575; -798.000; -519.000
447.933;  -40.925;  155.000;  127.000
448.055;  -75.850; -306.000; -261.000
448.177;  187.275;   31.000;   79.000
448.299;  154.025; -935.000; -727.000
448.420;   36.275;  -25.000;  159.000
448.542;  -51.950;   -3.000;   33.000
448.664;  -22.325;  109.000;  322.000
448.785;  -43.850;  265.000;   83.000
448.907;  -74.475; -614.000; -353.000
449.028;  -19.600; -771.000; -471.000
449.150;   65.775;  492.000;  589.000
449.272; -174.075;-1044.000; -913.000
449.393;   32.400;  612.000;  694.000
449.515; -152.300; -634.000; -581.000
449.636;  -63.775; -264.000; -155.000
449.758;   85.150;  763.000;  622.000
449.879;  -92.800; -498.000; -396.000
450.001;  -70.325; -149.000;  -49.000
450.122;  -44.200;  -95.000;  162.000
450.244;  -24.325;   37.000;  364.000
450.365;  -98.125; -495.000; -301.000
450.486;  -41.375;   80.000;  268.000
450.608;    2.500;  393.000;  326.000
450.729;   47.525;  578.000;  645.000
450.850;  -28.525; -574.000; -466.000
450.972;  567.000; -552.000; -389.000
451.093; 3919.850;  190.000;  588.000
451.214; 1651.475; -516.000; -337.000
451.336;  281.525;  773.000;  579.000
451.457;   36.475;  264.000;  393.000
451.578;  -47.950; -118.000;  -74.000
451.699; -140.625; -546.000; -540.000
451.821;  -65.100; -284.000;  -50.000
451.942;    1.900;  278.000;  285.000
452.063;   15.375;  228.000;  419.000
452.184;  455.075;  -54.000;  -49.000
452.305;  890.125;  103.000;  170.000
452.427;   76.400; -549.000; -301.000
452.548;  -28.675;   23.000;   79.000
452.669;  -47.100; -257.000;  -89.000
452.790;  -34.025;    3.000;  -18.000
452.911;  -15.525;  195.000;  259.000
453.032;  -49.925; -289.000;  -60.000
453.153;  -34.075;  -29.000;   81.000
453.274;   62.150;  737.000;  868.000
453.395;  -59.350;  -51.000;  175.000
453.516;  122.625; 1317.000; 1388.000
453.637;  -58.800; -205.000; -150.000
453.758;  -71.150;   15.000;   69.000
453.879; -123.450; -462.000; -250.000
454.000;   83.000; 1086.000;  948.000
454.121; -111.725; -554.000; -326.000
454.242; -114.900; -599.000; -383.000
454.362;  -57.250;  -99.000;  114.000
454.483;  -36.350; -309.000; -229.000
454.604;   54.700;  512.000;  580.000
454.725; -124.975; -627.000; -555.000
454.846; -126.475; -474.000; -406.000
454.967;  -29.950;  230.000;  539.000
455.087;  -45.575;  179.000;  153.000
455.208;   18.725;  554.000;  856.000
455.329;  -73.875;  -22.000;   82.000
455.450;   21.850;  473.000;  633.000
455.570;  -82.900; -234.000; -211.000
455.691;  -57.800;  201.000;  407.000
455.812; -121.800; -270.000;  -92.000
455.932;  -58.350;  107.000;  -97.000
456.053;  -88.425;   36.000;   24.000
456.173; -119.875; -433.000; -355.000
456.294; -134.750; -476.000; -303.000
456.415;  -72.475;  -73.000;   70.000
456.535;  -39.125;  297.000;  273.000
456.656;  -49.375;  132.000;  240.000
456.776;  -68.275;    3.000;  298.000
456.897;   -6.625;  308.000;  513.000
457.017;  -60.700; -153.000;   -3.000
457.138; -102.400; -402.000; -249.000
457.258;  -38.600;  263.000;  224.000
457.379;  -24.350;  509.000;  521.000
457.499;  -28.375;  443.000;  432.000
457.620; -119.475; -407.000; -231.000
457.740;  -98.150; -132.000;  -11.000
457.860;  -70.875;   87.000;   44.000
457.981;  -51.225;  132.000;  124.000
458.101;  -82.250;  -89.000;   40.000
458.221;  -25.425;  336.000;  402.000
458.342;  -57.950;   -4.000;  -37.000
458.462;    6.050;  617.000;  352.000
458.582;  -60.325; -302.000; -294.000
458.703;  -17.425;  303.000;  154.000
458.823;  -45.750;   22.000;  163.000
458.943;   25.100;  341.000;  467.000
459.063;  -16.025; 1124.000;  192.000
459.183;  -24.300;  328.000;  313.000
459.304;  -10.050;  315.000;  517.000
459.424;  -67.800; -246.000;  -89.000
459.544;  282.375;  388.000;  764.000
459.664;  701.225;  499.000;  506.000
459.784;  278.650; 1004.000; 1175.000
459.904;   42.275;  867.000;  744.000
460.024;   75.875;  867.000;  684.000
460.144;   13.025;  449.000;  554.000
460.264;   -9.050;  515.000;  327.000
460.385;  -94.650; -145.000; -119.000
460.505;   32.575;  905.000;  858.000
460.625; -109.150;  -17.000;  -68.000
460.745;  -24.575;  396.000;  541.000
460.864;  -51.100;  153.000;  469.000
460.984;   21.650;  499.000;  573.000
461.104;  134.550; 1656.000; 1775.000
461.224;   11.375;  657.000;  650.000
461.344;  -21.775;  431.000;  360.000
461.464;  -28.175;  258.000;  513.000
461.584;  -14.875;  283.000;  466.000
461.704;  -30.925;   58.000;  108.000
461.824;  -58.800;  238.000;  259.000
461.943;  -46.825;  191.000;  130.000
462.063;  -76.875;    2.000;  324.000
462.183;   39.300;  639.000;  717.000
462.303;  116.175; 1678.000; 1230.000
462.422;   22.175;  781.000;  840.000
462.542;  -47.350;  271.000;  391.000
462.662;   40.125;  353.000;  380.000
462.782;  203.725;  833.000;  572.000
462.901;  421.150;  545.000;  717.000
463.021;  252.175; 1702.000; 1638.000
463.141;  -13.525;  337.000;  770.000
463.260;  -25.350;  614.000;  474.000
463.380;    9.100;  902.000;  884.000
463.499;  -54.125;  342.000;  332.000
463.619;  -48.375;  581.000;  559.000
463.738;  115.625; 1644.000;  903.000
463.858;    3.800;  657.000;  811.000
463.978;  -35.925;  542.000;  396.000
464.097;   38.400;  921.000; 1114.000
464.217;   96.900; 1196.000; 1143.000
464.336;  107.775; 1068.000; 1130.000
464.455;  -55.825;  328.000;  659.000
464.575;   39.475;  597.000;  602.000
464.694;  199.250; 1204.000; 1179.000
464.814;  121.475; 1190.000; 1138.000
464.933;   75.600; 1095.000; 1027.000
465.052;   84.825; 1412.000; 1054.000
465.172;   71.700;  922.000;  799.000
465.291;  147.775; 1376.000; 1320.000
465.410;    5.850;  462.000;  735.000
465.530;   70.375; 1355.000; 1310.000
465.649;   59.400; 1209.000; 1273.000
465.768;  149.175; 1673.000; 1508.000
465.888;   47.700;  941.000; 1174.000
466.007;   73.900; 1335.000; 1440.000
466.126;    1.400;  721.000;  641.000
466.245;   31.100; 1176.000; 1187.000
466.364;   21.375;  950.000; 1060.000
466.484;   60.300; 1024.000; 1213.000
466.603;   35.350; 1101.000; 1222.000
466.722;  110.900; 1490.000; 1769.000
466.841;   76.400; 1151.000; 1401.000
466.960;   22.775; 1069.000;  972.000
467.079;  128.775; 1971.000; 1786.000
467.198;   35.500; 1238.000; 1181.000
467.317;   86.725; 1768.000; 1162.000
467.436;   72.325; 1709.000; 1261.000
467.555;  129.725; 1796.000; 1746.000
467.674;   78.550; 1227.000; 1329.000
467.793;   48.125; 1376.000; 1374.000
467.912;   89.250; 1658.000; 1539.000
468.031;  133.775; 2038.000; 1930.000
468.150;  150.400; 1842.000; 1837.000
468.269;  197.875; 2313.000; 2090.000
468.388;  186.250; 2168.000; 2339.000
468.507;  242.175; 2884.000; 2903.000
468.626;  231.025; 2555.000; 2541.000
468.744;  123.975; 2018.000; 2174.000
468.863;  199.425; 2312.000; 2523.000
468.982;   80.875; 1503.000; 1555.000
469.101;  230.525; 2788.000; 2692.000
469.220;  136.550; 2333.000; 2176.000
469.338;  252.250; 2935.000; 3051.000
469.457;  199.250; 2719.000; 2545.000
469.576;  352.300; 3953.000; 3784.000
469.695;  245.625; 2877.000; 3066.000
469.813;  409.925; 4148.000; 4192.000
469.932;  408.400; 4255.000; 4485.000
470.051;  414.375; 4075.000; 4161.000
470.169;  798.375; 4470.000; 4338.000
470.288; 1330.300; 4700.000; 4809.000
470.406;  798.950; 5059.000; 5194.000
470.525;  612.650; 6101.000; 5787.000
470.644;  640.775; 6847.000; 6794.000
470.762;  817.400; 8397.000; 7873.000
470.881;  894.075; 8651.000; 8464.000
470.999; 1045.750; 9685.000; 9151.000
471.118; 1114.375;11174.000;10711.000

