
Integration time [ms]: 200.000
Averaging Nr. [scans]: 10
Smoothing Nr. [pixels]: 0
Data measured with spectrometer [name]: 2101012U2
Wave   ;Sample   ;Dark     ;Reference
[nm]   ;[counts] ;[counts] ;[counts] 

197.733;  133.300;  516.000;  404.000
197.879; -176.300; -610.000; -634.000
198.025; -103.100; -475.000; -420.000
198.171; -147.500; -602.000; -612.000
198.317;  -36.300; -401.000; -316.000
198.463; -136.500; -655.000; -404.000
198.609;   62.100;  181.000; -137.000
198.755; -182.300; -644.000; -410.000
198.901; -125.800; -505.000; -424.000
199.047; -164.500; -615.000; -488.000
199.193;  -93.500; -230.000; -468.000
199.339;  -63.200; -222.000; -369.000
199.485;   83.900;  330.000;  271.000
199.631;   51.600;  227.000;  310.000
199.777; -123.400; -466.000; -398.000
199.923; -146.300; -610.000; -424.000
200.069;  -12.800; -141.000;  -58.000
200.215;  108.700;  128.000;  453.000
200.361;   55.200;  243.000;  477.000
200.507; -169.300; -600.000; -373.000
200.653;  -74.200; -371.000; -194.000
200.798;  -70.100; -215.000; -125.000
200.944;   -9.500; -146.000;  -41.000
201.090;   74.000;   61.000;  222.000
201.236;   -8.000; -116.000; -158.000
201.382;  227.800;  874.000;  903.000
201.528;    5.000;  -58.000;  -48.000
201.674; -109.800; -386.000; -293.000
201.819; -120.800; -540.000; -439.000
201.965; -175.600; -699.000; -447.000
202.111;  -56.100; -273.000; -226.000
202.257;  -83.000; -250.000; -238.000
202.402;   30.600;   13.000;  -36.000
202.548;  -72.200; -169.000; -116.000
202.694;  155.000;  410.000; -183.000
202.840; -168.900; -603.000; -531.000
202.985; -151.600; -681.000; -639.000
203.131; -259.600; -832.000; -666.000
203.277;  -55.200; -199.000; -262.000
203.423; -146.900; -434.000; -520.000
203.568;  -77.100; -462.000; -237.000
203.714; -144.300; -535.000; -542.000
203.860; -174.900; -682.000; -641.000
204.005;   26.500;  112.000;  167.000
204.151;  175.200;  561.000;  556.000
204.296;  -92.000; -354.000; -221.000
204.442; -177.300; -600.000; -547.000
204.588; -155.700; -592.000; -579.000
204.733;   48.800;  178.000;  168.000
204.879; -280.800;-1018.000; -822.000
205.025;   20.000;  -99.000;  126.000
205.170;  -41.800;  -17.000;   94.000
205.316;  196.500;  438.000;  661.000
205.461; -160.600; -698.000; -554.000
205.607;  169.400;  609.000;  665.000
205.752; -173.900; -626.000; -551.000
205.898; -110.400; -501.000; -391.000
206.043; -129.300; -578.000; -506.000
206.189; -111.000; -243.000; -285.000
206.334;  134.800;  554.000;  606.000
206.480;  177.100;  409.000;  239.000
206.625; -177.300; -529.000; -552.000
206.771;  -82.300; -451.000; -373.000
206.916; -122.300; -210.000; -537.000
207.062; -148.400; -545.000; -591.000
207.207; -140.000; -546.000; -443.000
207.353;  118.700;  185.000;  460.000
207.498;   30.500;  196.000;   85.000
207.643; -120.200; -501.000; -370.000
207.789; -284.500;-1069.000; -910.000
207.934; -203.400; -665.000; -713.000
208.080;  -44.700; -154.000;   66.000
208.225;  -29.500;  -22.000;  -57.000
208.370; -209.000; -727.000; -619.000
208.516; -143.100; -741.000; -487.000
208.661;  -82.000; -127.000;  -69.000
208.806;  -50.800; -165.000; -171.000
208.952; -290.800;-1044.000; -731.000
209.097;  173.400;  378.000;  349.000
209.242; -114.100; -307.000; -382.000
209.387;  114.900;  392.000;  350.000
209.533;  -92.400; -321.000; -350.000
209.678;  163.800;  472.000;  543.000
209.823; -128.300; -408.000; -310.000
209.969; -190.900; -860.000; -757.000
210.114; -240.600; -907.000; -719.000
210.259; -233.700; -939.000; -889.000
210.404;  -43.700; -171.000;  103.000
210.549;   38.000;  108.000;    3.000
210.695;  -48.500;   -3.000;  -95.000
210.840;   68.000;   94.000;   67.000
210.985; -114.800; -484.000; -303.000
211.130;  175.100;  268.000;  406.000
211.275;   44.900;  207.000;  199.000
211.420; -121.200; -300.000; -289.000
211.566; -149.600; -536.000; -489.000
211.711;   49.200;  218.000;  157.000
211.856; -148.500; -545.000; -519.000
212.001;   20.000;  151.000;   44.000
212.146;    6.100;  153.000;   49.000
212.291;  -36.400; -210.000; -186.000
212.436;  -51.900; -280.000;   -6.000
212.581; -184.700; -685.000; -653.000
212.726; -179.400; -487.000; -538.000
212.871;  -94.700; -552.000; -217.000
213.016; -306.200;-1172.000;-1029.000
213.161;  124.900;  406.000;  291.000
213.306; -166.400; -435.000; -577.000
213.451; -207.400; -778.000; -689.000
213.596;  -95.800; -455.000; -347.000
213.741; -101.600; -448.000; -538.000
213.886; -165.000; -498.000; -517.000
214.031;  -52.300; -294.000; -124.000
214.176; -101.800; -408.000; -341.000
214.321;  -54.000; -296.000; -157.000
214.466;  -61.900; -163.000;  -43.000
214.611;  -22.200;  -61.000;  -10.000
214.756; -263.700; -948.000; -858.000
214.901;  -50.500; -388.000; -226.000
215.046; -281.100; -797.000; -825.000
215.191;   25.200;  128.000;   35.000
215.336;  -48.100; -157.000;  -19.000
215.480; -139.700; -684.000; -505.000
215.625;  -19.100; -175.000;  -19.000
215.770; -152.600; -757.000; -662.000
215.915;   19.000;   -5.000;  -97.000
216.060;   12.400; -113.000;  -21.000
216.205; -231.500; -731.000; -779.000
216.349; -142.900; -470.000; -533.000
216.494; -293.900; -939.000; -867.000
216.639; -238.400; -823.000; -888.000
216.784; -185.100; -577.000; -525.000
216.929;  123.200;  392.000;  281.000
217.073;  -21.400; -244.000;  -31.000
217.218;   26.300;   78.000;  -47.000
217.363; -210.800; -656.000; -618.000
217.507; -179.600; -623.000; -588.000
217.652; -275.400; -845.000; -874.000
217.797; -167.400; -708.000; -659.000
217.942; -257.500; -856.000; -720.000
218.086;  195.800;  608.000;  539.000
218.231;  -57.500; -174.000;  -26.000
218.376;  -55.300; -337.000; -229.000
218.520;   36.400;  -41.000;   96.000
218.665;  -69.000; -338.000; -204.000
218.810;  -82.300; -275.000; -233.000
218.954;   56.500;  201.000;   35.000
219.099; -250.300; -713.000; -963.000
219.243; -158.100; -589.000; -554.000
219.388;  -89.500; -264.000; -136.000
219.532;  -24.300; -116.000; -116.000
219.677; -161.500; -564.000; -521.000
219.822;    1.100;   33.000;   89.000
219.966;   36.000;   17.000;  -99.000
220.111;  -52.100; -328.000;  -40.000
220.255; -223.400; -797.000; -750.000
220.400;  -22.800; -180.000; -146.000
220.544; -150.000; -516.000; -450.000
220.689;  -89.400; -422.000; -451.000
220.833;  -33.100; -123.000;  -58.000
220.978;  -55.400; -393.000; -563.000
221.122;   22.100;  319.000;  307.000
221.267; -222.400; -906.000; -837.000
221.411; -162.500; -478.000; -394.000
221.555;  -11.000; -104.000;  -23.000
221.700; -120.600; -329.000; -222.000
221.844;   75.700;  255.000;  272.000
221.989; -124.400; -328.000; -311.000
222.133;  -71.100; -289.000; -307.000
222.277;  -30.100;    5.000;   78.000
222.422;   58.200;  227.000;  113.000
222.566;  -86.200; -381.000; -214.000
222.711; -114.000; -414.000; -479.000
222.855; -197.000; -643.000; -586.000
222.999; -184.400; -642.000; -717.000
223.144;  -51.300; -195.000; -194.000
223.288;  136.000;  423.000;  251.000
223.432;  -23.700;  184.000;  230.000
223.576;   40.000;  152.000;  -21.000
223.721;   83.300;  364.000;  273.000
223.865; -105.400; -472.000; -475.000
224.009;  466.700; 1673.000; 1631.000
224.153; -152.800; -660.000; -671.000
224.298; -169.300; -531.000; -489.000
224.442;  -49.100;  -74.000;  -33.000
224.586;  -22.900; -169.000; -106.000
224.730; -182.700; -858.000; -670.000
224.875; -245.400; -739.000; -688.000
225.019;   26.400;  102.000;  188.000
225.163;  120.000;  208.000;  341.000
225.307;   23.900;   97.000;  -91.000
225.451;  110.800;  360.000;  481.000
225.595;   51.600;  264.000;  176.000
225.739;  -17.300; -170.000;  -94.000
225.884;   34.300;   86.000;    5.000
226.028; -232.200; -760.000; -626.000
226.172;  -43.800; -260.000; -273.000
226.316; -243.100; -941.000; -902.000
226.460; -119.800; -645.000; -493.000
226.604; -116.100; -406.000; -400.000
226.748; -194.900; -836.000; -733.000
226.892;  -88.700; -227.000; -181.000
227.036;  -84.100; -537.000; -447.000
227.180; -123.300; -551.000; -375.000
227.324; -120.300; -561.000; -580.000
227.468; -230.300; -819.000; -717.000
227.612;   30.400;  242.000;  -28.000
227.756; -238.300; -845.000; -698.000
227.900;  117.600;  342.000;  441.000
228.044; -114.100; -509.000; -290.000
228.188;  139.900;  448.000;  568.000
228.332; -198.500; -546.000; -472.000
228.476;  -56.900; -223.000; -149.000
228.620;  -41.400; -210.000; -150.000
228.764;  152.200;  431.000;  349.000
228.908;  -56.400; -155.000;   30.000
229.052; -141.900; -615.000; -528.000
229.195;   -0.400; -172.000;   13.000
229.339;  -26.300; -235.000; -305.000
229.483;  -47.000;    5.000; -162.000
229.627;   35.600; -156.000;  139.000
229.771;  -90.300; -218.000; -294.000
229.915;   19.400;  230.000;   79.000
230.059; -179.700; -648.000; -663.000
230.202;  -67.800; -370.000; -317.000
230.346;  -14.800; -107.000;  107.000
230.490;  -87.600; -489.000; -521.000
230.634; -220.000; -736.000; -553.000
230.777;  167.300;  478.000;  509.000
230.921; -137.600; -450.000; -359.000
231.065;  -50.900; -246.000; -286.000
231.209;   79.100;  261.000;  265.000
231.352;   56.000;   54.000;   40.000
231.496;   30.300;  568.000;  188.000
231.640; -118.400; -693.000; -621.000
231.783;  156.500;  546.000;  525.000
231.927;  -62.500; -294.000; -365.000
232.071; -258.500; -962.000; -736.000
232.214; -215.500; -980.000; -764.000
232.358; -226.800; -683.000; -599.000
232.502;    0.500;  -19.000;    7.000
232.645; -297.100;-1090.000; -927.000
232.789;  -30.200; -257.000; -218.000
232.933; -109.400; -407.000; -224.000
233.076; -254.000;-1038.000; -897.000
233.220; -258.100; -752.000; -777.000
233.363; -154.500; -669.000; -477.000
233.507;  109.400;  371.000;  129.000
233.650; -198.100; -764.000; -834.000
233.794;   99.000;  438.000;  461.000
233.938; -112.900; -530.000; -362.000
234.081;  -65.400;  -93.000;   31.000
234.225; -110.700; -631.000; -539.000
234.368; -250.800; -773.000; -723.000
234.512;  -85.400; -385.000; -299.000
234.655; -171.200; -582.000; -555.000
234.798; -139.300; -493.000; -466.000
234.942; -286.500; -884.000;-1002.000
235.085; -139.200; -651.000; -443.000
235.229; -148.900; -405.000; -410.000
235.372;  -81.200; -247.000; -191.000
235.516; -109.900; -397.000; -321.000
235.659;   53.200;   92.000;  121.000
235.802;  -50.600;  -38.000;  -22.000
235.946;   48.800;  335.000;  215.000
236.089;   71.100;  126.000;  250.000
236.233;  121.900;  275.000;  298.000
236.376; -122.100; -235.000; -378.000
236.519;  -93.300; -297.000; -319.000
236.663;   -8.000; -215.000; -117.000
236.806; -289.400;-1029.000; -999.000
236.949;  148.300;  543.000;  431.000
237.092;  121.300;  412.000;  391.000
237.236; -178.300; -589.000; -502.000
237.379;  104.700;  352.000;  428.000
237.522; -255.100; -879.000; -768.000
237.666;  -18.600; -271.000;   18.000
237.809; -248.300; -851.000; -823.000
237.952;  117.900;  469.000;  271.000
238.095; -147.100; -447.000; -442.000
238.238;  177.400;  688.000;  700.000
238.382;   -1.400;  166.000;  103.000
238.525; -129.500; -598.000; -511.000
238.668; -287.900;-1060.000; -985.000
238.811; -152.100; -638.000; -643.000
238.954; -132.400; -483.000; -334.000
239.097;  211.500;  617.000;  664.000
239.241;   51.500;  394.000;  326.000
239.384;  -76.700; -254.000; -214.000
239.527; -143.900; -424.000; -224.000
239.670; -308.600; -994.000;-1091.000
239.813; -238.700; -696.000; -658.000
239.956;  199.100;  579.000;  473.000
240.099; -211.200; -778.000; -725.000
240.242;  122.500;  428.000;  432.000
240.385;  136.300;  466.000;  450.000
240.528; -152.800; -706.000; -473.000
240.671;   31.600;  189.000;  134.000
240.814;  -67.700; -441.000; -158.000
240.957; -184.000; -767.000; -578.000
241.100; -212.200; -779.000; -755.000
241.243; -313.100;-1234.000; -893.000
241.386; -110.300; -508.000; -379.000
241.529; -204.300; -735.000; -547.000
241.672; -115.600; -566.000; -495.000
241.815; -227.300; -832.000; -808.000
241.958;  -47.100; -125.000; -182.000
242.101; -178.900; -545.000; -390.000
242.244;  -71.600; -270.000; -325.000
242.387;  -91.400; -304.000; -246.000
242.530;  147.900;  470.000;  134.000
242.673; -123.200; -381.000; -309.000
242.815; -253.900; -925.000; -899.000
242.958; -116.000; -482.000; -381.000
243.101;   28.800;  132.000;  187.000
243.244; -165.200; -564.000; -521.000
243.387;  -93.600; -313.000; -316.000
243.530; -196.000; -657.000; -674.000
243.672;   -0.600;   43.000;  -92.000
243.815;  -95.500; -355.000; -283.000
243.958;   39.000;   98.000;  -26.000
244.101;  -11.600;   59.000;  -16.000
244.243;   -4.400;  -47.000;  101.000
244.386; -224.800; -761.000; -630.000
244.529;  -25.500; -132.000; -139.000
244.672; -324.100;-1154.000; -951.000
244.814; -195.700; -621.000; -794.000
244.957; -141.200; -380.000; -304.000
245.100; -124.600; -489.000; -489.000
245.242; -112.900; -387.000; -374.000
245.385;   -9.900;  -59.000;  -39.000
245.528; -246.500; -871.000; -705.000
245.670;  197.800;  612.000;  634.000
245.813; -176.200; -599.000; -547.000
245.956;  -53.900; -324.000; -275.000
246.098; -167.100; -508.000; -650.000
246.241;    0.200;  194.000;   48.000
246.383;  -28.500; -119.000;  -73.000
246.526; -177.400; -454.000; -525.000
246.669; -253.200; -889.000; -780.000
246.811;   50.600;  172.000;   -1.000
246.954; -156.900; -512.000; -426.000
247.096;  -42.200;  -84.000;   -6.000
247.239; -143.800; -482.000; -445.000
247.381; -144.900; -647.000; -488.000
247.524;  182.200;  645.000;  679.000
247.666;    9.100;   58.000;   11.000
247.809; -241.700; -887.000; -691.000
247.951;   -6.500;  -75.000;  138.000
248.094;   61.700;  432.000;  308.000
248.236; -329.500;-1262.000;-1238.000
248.378;  -27.200; -356.000;  -81.000
248.521;  -74.100; -334.000; -337.000
248.663; -101.100; -236.000; -267.000
248.806;  -59.700; -300.000; -266.000
248.948; -203.300; -886.000; -763.000
249.090; -100.600; -428.000; -398.000
249.233; -112.900; -344.000; -381.000
249.375; -134.200; -474.000; -451.000
249.518;  -32.800;  -83.000; -133.000
249.660;   -0.500; -103.000;    3.000
249.802; -364.200;-1303.000;-1189.000
249.945; -124.300; -612.000; -540.000
250.087; -231.500; -834.000; -768.000
250.229; -119.200; -362.000; -480.000
250.371; -150.000; -494.000; -439.000
250.514;  -86.000; -310.000; -244.000
250.656;  -32.000;   69.000;  102.000
250.798; -252.700; -849.000; -800.000
250.940; -122.000; -322.000; -322.000
251.083;  -58.500; -335.000; -111.000
251.225;  100.800;  338.000;  310.000
251.367;  -56.000; -274.000; -373.000
251.509;  -33.100; -265.000; -210.000
251.651; -179.800; -731.000; -671.000
251.794;  121.200;  538.000;  632.000
251.936; -185.300; -821.000; -747.000
252.078; -180.800; -540.000; -461.000
252.220; -129.700; -645.000; -477.000
252.362;  146.000;  344.000;  462.000
252.504; -120.900; -677.000; -584.000
252.646; -251.800; -875.000; -722.000
252.788;    9.000;   14.000; -128.000
252.931;  -46.200; -257.000; -253.000
253.073;  -82.500; -376.000; -317.000
253.215;  -16.400;  141.000;  122.000
253.357;   11.200;   82.000; -153.000
253.499; -111.500; -374.000; -234.000
253.641; -152.700; -749.000; -594.000
253.783; -190.000; -609.000; -527.000
253.925; -160.900; -586.000; -591.000
254.067; -224.800; -744.000; -667.000
254.209;  -63.300; -391.000; -259.000
254.351; -286.900; -865.000; -883.000
254.493;  -98.800; -441.000; -417.000
254.635; -243.600; -936.000; -818.000
254.777; -157.200; -752.000; -687.000
254.918; -185.600; -512.000; -430.000
255.060; -110.200; -551.000; -395.000
255.202; -124.000; -473.000; -261.000
255.344; -125.700; -658.000; -455.000
255.486; -144.300; -471.000; -406.000
255.628; -212.300; -780.000; -781.000
255.770; -165.700; -676.000; -536.000
255.912; -104.800; -559.000; -468.000
256.053; -182.300; -730.000; -508.000
256.195;  348.100; 1008.000;  903.000
256.337; -214.600; -861.000; -595.000
256.479;  149.800;  532.000;  416.000
256.621; -105.600; -394.000; -212.000
256.762; -161.700; -789.000; -742.000
256.904;  126.600;  485.000;  487.000
257.046;  -79.000; -381.000; -271.000
257.188;  -90.700; -351.000; -264.000
257.329; -153.100; -525.000; -464.000
257.471; -258.800; -939.000; -807.000
257.613; -108.200; -584.000; -498.000
257.755; -297.900;-1073.000; -982.000
257.896;   97.300;  286.000;  392.000
258.038; -115.600; -403.000; -352.000
258.180;  -81.800; -354.000; -279.000
258.321; -188.600; -581.000; -457.000
258.463;    3.100;  -71.000;  133.000
258.605; -182.100; -562.000; -570.000
258.746; -205.700; -886.000; -772.000
258.888; -334.400;-1026.000;-1020.000
259.029;   64.100;  121.000;   -8.000
259.171; -190.800; -614.000; -550.000
259.313;    2.000;  -49.000;  -47.000
259.454; -151.000; -536.000; -414.000
259.596; -104.900; -483.000; -390.000
259.737; -146.100; -590.000; -474.000
259.879;  109.100;  217.000;  311.000
260.020;  229.400;  901.000;  636.000
260.162;  -41.000; -146.000; -253.000
260.303; -230.400; -768.000; -687.000
260.445; -155.100; -609.000; -613.000
260.586;   76.600;  392.000;  157.000
260.728;  -82.900; -360.000; -248.000
260.869; -143.400; -350.000; -343.000
261.011;  199.500;  706.000;  537.000
261.152; -143.200; -479.000; -319.000
261.293; -146.300; -576.000; -595.000
261.435;  -39.500; -219.000; -184.000
261.576;  -90.700; -455.000; -325.000
261.718;   90.300;  420.000;  470.000
261.859; -262.300; -940.000; -949.000
262.000; -257.500; -951.000;-1016.000
262.142;   -8.400;  -52.000;  -60.000
262.283; -238.700; -808.000; -691.000
262.424; -159.400; -666.000; -625.000
262.566; -295.700;-1161.000; -983.000
262.707; -231.700; -840.000; -830.000
262.848; -238.500; -769.000; -726.000
262.990;  -73.500; -362.000; -345.000
263.131;  216.100;  650.000;  681.000
263.272;   -1.500;  -61.000;  -41.000
263.413; -176.100; -589.000; -561.000
263.555; -150.100; -669.000; -143.000
263.696; -177.800; -550.000; -641.000
263.837; -141.700; -449.000; -551.000
263.978;    3.300;   -5.000;  -77.000
264.119;  -86.900; -283.000; -264.000
264.261; -236.500; -847.000; -630.000
264.402;   27.100;   33.000;   40.000
264.543; -178.400; -509.000; -524.000
264.684;   -9.100;   61.000;  -50.000
264.825; -144.800; -816.000; -538.000
264.966;   -7.600;  -84.000;  -67.000
265.107; -248.600; -646.000; -670.000
265.248; -238.700; -825.000; -812.000
265.390;  -17.400;  152.000;   -9.000
265.531;  -53.700; -238.000; -107.000
265.672; -212.500; -557.000; -630.000
265.813;  171.800;  563.000;  439.000
265.954; -320.700; -959.000; -940.000
266.095;    2.000; -372.000; -322.000
266.236; -197.800; -686.000; -548.000
266.377;  -43.400; -243.000; -297.000
266.518; -119.400; -619.000; -547.000
266.659;   56.800;  170.000;  268.000
266.800;   31.300;   83.000;   85.000
266.941; -159.400; -487.000; -478.000
267.082;   48.600;  354.000;   99.000
267.223; -113.300; -344.000; -273.000
267.364; -231.400; -892.000; -686.000
267.504;  -41.000;    3.000;  135.000
267.645;    9.500;  160.000;   67.000
267.786;  -48.800; -147.000;  -86.000
267.927; -122.700; -473.000; -379.000
268.068;   -8.800; -186.000;  -61.000
268.209;  -86.700; -175.000; -413.000
268.350; -108.900; -388.000; -532.000
268.490; -187.800; -648.000; -521.000
268.631;   73.300;  127.000;  225.000
268.772; -234.200; -874.000; -647.000
268.913;  -56.600; -328.000; -476.000
269.054;  -31.400; -117.000;   12.000
269.194;  -84.900; -418.000; -402.000
269.335; -351.600;-1137.000;-1074.000
269.476;  -17.100;   33.000;  -35.000
269.617;  -94.800; -347.000; -392.000
269.757; -186.000; -713.000; -646.000
269.898; -201.500; -856.000; -613.000
270.039; -132.200; -415.000; -405.000
270.180; -280.800; -952.000; -816.000
270.320;  -44.600; -190.000; -250.000
270.461;  -83.600; -277.000; -249.000
270.602;   -4.600; -186.000; -156.000
270.742; -265.000; -868.000; -943.000
270.883;  -82.000; -442.000; -390.000
271.023;  -96.500; -358.000; -357.000
271.164; -109.300; -607.000; -528.000
271.305; -206.900; -666.000; -654.000
271.445; -190.800; -722.000; -683.000
271.586; -144.000; -462.000; -283.000
271.726;  -61.800; -397.000; -322.000
271.867; -135.300; -594.000; -534.000
272.008;  269.400; -473.000; -285.000
272.148;  230.700;  462.000;  468.000
272.289;   -0.900; -113.000; -181.000
272.429;   29.800;   19.000;  185.000
272.570; -157.900; -633.000; -737.000
272.710; -223.900; -825.000; -775.000
272.851;  -43.200;  113.000; -130.000
272.991; -315.400;-1173.000;-1077.000
273.131;  -97.000; -419.000; -459.000
273.272; -207.000; -683.000; -723.000
273.412;   24.100; -143.000;  -31.000
273.553; -115.400; -488.000; -507.000
273.693;  339.200;  913.000;  858.000
273.834; -245.200; -894.000; -692.000
273.974; -156.400; -664.000; -615.000
274.114; -190.500; -772.000; -560.000
274.255;  186.500;  414.000;  373.000
274.395;   -8.900; -180.000; -125.000
274.535;   93.100;  199.000;  350.000
274.676;   28.700;  225.000;   94.000
274.816;   21.300;  110.000;   34.000
274.956; -190.900; -624.000; -690.000
275.097; -181.400;-1014.000; -922.000
275.237; -210.300; -913.000; -803.000
275.377; -181.800; -778.000; -689.000
275.517; -299.800; -878.000; -937.000
275.658; -102.600; -590.000; -555.000
275.798; -145.400; -606.000; -413.000
275.938;   83.800;  215.000;  323.000
276.078; -166.500; -626.000; -395.000
276.218;   23.100;   99.000;  104.000
276.359; -283.400;-1026.000;-1024.000
276.499; -124.100; -605.000; -446.000
276.639;  -55.600; -305.000; -151.000
276.779;  -70.200; -475.000; -357.000
276.919; -214.100; -783.000; -624.000
277.059;  -24.600; -261.000; -212.000
277.199;  -73.300; -357.000; -259.000
277.340;  115.700;  287.000;  175.000
277.480; -231.500; -840.000; -693.000
277.620;   87.600;  192.000;   16.000
277.760; -408.800;-1533.000;-1294.000
277.900;   29.800;  113.000;   33.000
278.040;   31.400;  137.000;  159.000
278.180;   97.300;  270.000;  170.000
278.320;   -7.000;   21.000;   56.000
278.460; -135.100; -443.000; -469.000
278.600; -168.000; -708.000; -598.000
278.740;  116.300;  448.000;  224.000
278.880; -163.600; -768.000; -791.000
279.020;   23.400; -194.000; -144.000
279.160; -183.700; -672.000; -595.000
279.300; -232.100; -926.000; -873.000
279.440; -188.600; -709.000; -622.000
279.579;  -81.800;-1014.000; -929.000
279.719; -106.900; -410.000; -394.000
279.859;  130.200;   -4.000;   41.000
279.999;   61.800; -208.000;  101.000
280.139;  -28.600; -435.000; -387.000
280.279; -207.100; -708.000; -745.000
280.419;  -15.800; -229.000; -147.000
280.559;  -38.700; -259.000; -180.000
280.698; -149.300; -790.000; -639.000
280.838; -197.900; -778.000; -800.000
280.978; -208.900; -846.000; -790.000
281.118; -244.600; -811.000; -704.000
281.257;   42.300;   24.000;    6.000
281.397; -254.200;-1094.000; -960.000
281.537; -150.100; -599.000; -712.000
281.677;  -39.700; -150.000; -101.000
281.816; -174.100; -700.000; -630.000
281.956;  -65.100; -193.000; -257.000
282.096; -101.000; -539.000; -396.000
282.235; -211.600; -672.000; -638.000
282.375;  -49.900; -243.000;  -98.000
282.515; -216.800; -715.000; -707.000
282.654;   72.100;   29.000;  106.000
282.794;   70.600;  388.000;  244.000
282.934;  -58.800; -530.000; -491.000
283.073; -248.200;-1030.000; -857.000
283.213;  -94.500; -460.000; -467.000
283.353;  -69.900; -408.000; -349.000
283.492;  -68.000; -264.000; -296.000
283.632;  -80.100; -254.000; -168.000
283.771; -189.400; -859.000; -730.000
283.911;  -79.300; -369.000; -260.000
284.050; -191.800; -794.000; -748.000
284.190; -325.300;-1229.000;-1096.000
284.329; -289.600;-1055.000; -964.000
284.469; -138.500; -516.000; -591.000
284.608;  -82.100; -559.000; -598.000
284.748; -162.400; -614.000; -570.000
284.887;   -4.700;  -87.000;  -20.000
285.027; -243.000; -844.000; -892.000
285.166;  -57.300; -192.000; -249.000
285.306;   38.700; -116.000;  -33.000
285.445;  -52.600; -229.000; -343.000
285.584; -168.000; -630.000; -494.000
285.724;  -74.100; -282.000; -322.000
285.863; -254.500; -857.000; -507.000
286.002;  -69.400; -366.000; -276.000
286.142; -240.700; -715.000; -622.000
286.281; -122.300; -525.000; -493.000
286.420; -183.500; -554.000; -417.000
286.560;  209.600;  653.000;  623.000
286.699; -297.600; -958.000; -912.000
286.838; -137.500; -590.000; -591.000
286.978; -192.100; -533.000; -537.000
287.117; -255.100;-1085.000; -950.000
287.256;  -68.900; -228.000; -211.000
287.395;  -87.100; -197.000; -378.000
287.535;  -85.300; -370.000; -298.000
287.674; -138.200; -509.000; -484.000
287.813;  130.400;  661.000;  533.000
287.952; -243.600;-1010.000; -871.000
288.091; -277.900;-1049.000; -915.000
288.231;   57.900;   13.000;   15.000
288.370; -346.200;-1217.000;-1200.000
288.509; -185.000; -728.000; -645.000
288.648; -191.500; -770.000; -548.000
288.787;  -14.800; -243.000;  -87.000
288.926; -123.700; -454.000; -475.000
289.065;  263.600;  859.000;  672.000
289.204; -105.400; -377.000; -217.000
289.344; -187.200; -791.000; -690.000
289.483;   37.500;  416.000;  304.000
289.622;  -38.900; -291.000; -149.000
289.761;  -33.900; -309.000; -166.000
289.900; -201.800; -785.000; -626.000
290.039;  -25.500;  -12.000;  -95.000
290.178;  -50.900; -274.000; -180.000
290.317; -166.600; -618.000; -479.000
290.456; -138.200; -463.000; -451.000
290.595; -282.800; -961.000; -833.000
290.734; -287.900; -904.000; -891.000
290.873; -124.300; -456.000; -420.000
291.011; -186.700; -833.000; -843.000
291.150; -220.100; -770.000; -682.000
291.289;  -39.100; -343.000; -110.000
291.428; -205.800; -599.000; -480.000
291.567; -120.500; -370.000; -442.000
291.706;   13.000;  109.000;  154.000
291.845; -162.800; -597.000; -505.000
291.984; -312.500;-1234.000;-1061.000
292.122;  189.500;  602.000;  582.000
292.261;   84.000;  620.000;  463.000
292.400;   38.500; -144.000;  211.000
292.539; -257.300; -959.000; -813.000
292.678;  -45.900; -325.000; -300.000
292.816; -290.900;-1136.000; -965.000
292.955; -181.900; -844.000; -684.000
293.094;  -45.200; -173.000; -337.000
293.233;  -95.200; -556.000; -400.000
293.371;  -46.600; -225.000;  -84.000
293.510; -176.500; -866.000; -780.000
293.649; -279.700; -959.000; -924.000
293.787; -149.500;-1083.000;-1012.000
293.926;    1.700; -113.000;  -32.000
294.065;  -72.900; -379.000; -290.000
294.203;  100.200;  298.000;  406.000
294.342;   61.400;   74.000;  156.000
294.481;11664.500;51180.000; -836.000
294.619;  -27.000; -425.000; -582.000
294.758; -302.700;-1230.000;-1137.000
294.896;  100.000; -125.000;    5.000
295.035; -266.400;-1040.000;-1006.000
295.174; -229.100;-1082.000; -954.000
295.312;  -73.200; -323.000; -203.000
295.451;   -9.800; -307.000; -428.000
295.589;  -99.400; -389.000; -518.000
295.728;   63.500; -292.000; -165.000
295.866;    0.400;  -36.000;  -51.000
296.005; -115.400; -584.000; -341.000
296.143; -152.100; -558.000; -596.000
296.282; -182.500; -957.000; -881.000
296.420; -160.700; -657.000; -557.000
296.559; -177.300; -892.000; -633.000
296.697;   18.700; -847.000; -665.000
296.835;   31.100;-1141.000;-1002.000
296.974;  106.200;  -23.000;   39.000
297.112;   31.600; -443.000; -504.000
297.251; -157.900; -815.000; -755.000
297.389;  123.500; -576.000; -438.000
297.527;   90.000; -145.000;  -83.000
297.666;  -85.000; -486.000; -438.000
297.804; -117.100; -404.000; -264.000
297.942;   21.500; -136.000; -161.000
298.081;  -11.600; -183.000;   63.000
298.219;  120.000;  -17.000;  -19.000
298.357;   57.800; -144.000;  -71.000
298.495;    8.200; -810.000; -812.000
298.634;  146.900;  245.000;  219.000
298.772;   96.100; -220.000; -338.000
298.910;  -82.200; -309.000; -182.000
299.048;   15.400; -130.000; -153.000
299.187;  -71.400; -350.000; -250.000
299.325;   26.700;   52.000;  122.000
299.463;   58.500; -389.000; -299.000
299.601;  210.200; -327.000; -271.000
299.739; -214.000; -908.000; -883.000
299.877; -173.000; -791.000; -703.000
300.016; -154.900;-1095.000; -935.000
300.154;  288.900;  -19.000; -161.000
300.292;   48.000; -428.000; -348.000
300.430;   29.700; -408.000; -291.000
300.568; -210.800; -940.000; -874.000
300.706; -110.900; -366.000; -469.000
300.844; -186.200;-1108.000; -979.000
300.982;  266.700;  246.000;  282.000
301.120; -249.400; -965.000; -866.000
301.258; -148.700; -812.000; -705.000
301.396;   73.100;  104.000;  -41.000
301.534;  114.600; -218.000; -293.000
301.672;  -81.300; -664.000; -521.000
301.810;   12.100; -613.000; -545.000
301.948;  212.800;   53.000;  149.000
302.086;  877.100; -250.000;  -32.000
302.224; 1440.100; -610.000; -585.000
302.362;   34.700; -558.000; -622.000
302.500;  -94.900; -923.000; -893.000
302.638;  180.400;  128.000;  245.000
302.776;  -23.900; -352.000; -408.000
302.913;  132.700;  447.000;  236.000
303.051;   -6.300;  -86.000;  -23.000
303.189;  109.300;   90.000;  118.000
303.327;  -45.200; -341.000; -256.000
303.465; -152.600; -832.000; -588.000
303.603; -164.100; -805.000; -604.000
303.740;  203.700;  417.000;  241.000
303.878;   -8.900; -800.000; -759.000
304.016; -193.500; -915.000; -790.000
304.154; -276.900;-1123.000;-1152.000
304.291;  -60.300; -505.000; -554.000
304.429;   30.400;  102.000;   74.000
304.567; -247.800; -908.000; -893.000
304.705; -107.600; -408.000; -515.000
304.842;   84.000; -616.000; -540.000
304.980;  110.800;  215.000;   35.000
305.118;   54.600; -367.000; -365.000
305.255; -189.600; -945.000; -927.000
305.393;  132.700;  178.000;  239.000
305.531; -245.600;-1173.000; -956.000
305.668; -139.700; -663.000; -582.000
305.806;  145.800; -358.000; -439.000
305.943;  134.000; -629.000; -637.000
306.081;  100.100; -378.000; -267.000
306.219; -176.000; -863.000; -748.000
306.356;   46.300;  158.000;   27.000
306.494;  272.500;  981.000;  761.000
306.631;   14.400;  -11.000;  -55.000
306.769;  -21.100; -613.000; -485.000
306.906;   -6.700; -284.000; -258.000
307.044; -106.000; -473.000; -488.000
307.181; -106.600; -410.000; -332.000
307.319;  116.600;  112.000;   87.000
307.456; -333.300;-1191.000;-1153.000
307.594; -184.500; -980.000; -727.000
307.731;  -45.100; -371.000; -164.000
307.868;   17.600;  -15.000;   20.000
308.006; -262.200; -961.000; -847.000
308.143; -127.400; -618.000; -330.000
308.281;  312.200;  -37.000; -254.000
308.418;  -11.500; -748.000; -640.000
308.555; -119.400; -400.000; -250.000
308.693; -110.700; -577.000; -573.000
308.830; -191.100; -712.000; -657.000
308.967;    7.000; -215.000;  -95.000
309.105;  -53.800; -507.000; -396.000
309.242;   93.400; -468.000; -367.000
309.379;  601.700; -577.000; -655.000
309.517;  -91.600; -936.000; -948.000
309.654; -180.000; -910.000; -734.000
309.791; -131.400; -662.000; -580.000
309.928; -215.400; -977.000; -914.000
310.065;  353.800;  819.000;  697.000
310.203;  -62.300; -825.000; -850.000
310.340;    8.700; -465.000; -321.000
310.477; -150.100; -412.000; -516.000
310.614; -110.900; -383.000; -473.000
310.751; -134.300; -427.000; -518.000
310.889;  -10.700;    1.000;   11.000
311.026; -289.300;-1161.000; -939.000
311.163;  -62.300; -386.000; -380.000
311.300; -128.400; -512.000; -479.000
311.437; -130.700; -658.000; -619.000
311.574; -315.800;-1226.000; -985.000
311.711; -105.900; -595.000; -433.000
311.848;  -42.000; -380.000; -388.000
311.985;   47.400;  270.000;   93.000
312.122; -210.100; -932.000; -762.000
312.259; -196.500; -941.000; -994.000
312.396; -132.500; -508.000; -551.000
312.533; -149.600; -812.000; -790.000
312.670; -236.000;-1070.000; -898.000
312.807;  -73.900; -352.000; -367.000
312.944; -137.200; -513.000; -611.000
313.081;  -39.400; -150.000; -415.000
313.218; -210.700;-1111.000; -867.000
313.355;   26.300; -531.000; -449.000
313.492;   29.100; -455.000; -292.000
313.629;  276.400;  815.000;  735.000
313.766; -305.400;-1176.000;-1008.000
313.902;   28.000; -186.000;   21.000
314.039;  -96.000; -372.000; -289.000
314.176;   97.400;  286.000;  192.000
314.313; -123.500; -569.000; -473.000
314.450; -123.600; -788.000; -684.000
314.587;  -88.700; -468.000; -480.000
314.723;   26.300;  -78.000;  130.000
314.860;  117.500;  318.000;  332.000
314.997;  103.200;  223.000;  142.000
315.134;  -65.000; -385.000; -368.000
315.270;  -52.900; -480.000; -496.000
315.407; -266.500;-1094.000; -967.000
315.544; -109.500; -657.000; -538.000
315.681; -145.300; -681.000; -565.000
315.817;   81.800; -133.000; -176.000
315.954;   -5.000; -613.000; -392.000
316.091; -249.800;-1045.000;-1023.000
316.227;  -25.200;  -71.000; -179.000
316.364;   55.100;   23.000;    6.000
316.500;  -34.300; -113.000; -300.000
316.637;  -31.900; -181.000; -302.000
316.774; -179.100; -625.000; -358.000
316.910; -151.300; -598.000; -629.000
317.047; -131.400; -487.000; -351.000
317.183;  -85.600; -435.000; -566.000
317.320;   -7.100; -367.000; -321.000
317.456;  -96.200; -733.000; -805.000
317.593; -181.700; -598.000; -641.000
317.729;   48.600;  168.000;  -67.000
317.866; -415.100;-1434.000;-1285.000
318.002; -153.500; -708.000; -948.000
318.139; -239.900; -883.000; -867.000
318.275; -192.200;-1003.000; -738.000
318.412; -114.900; -517.000; -336.000
318.548; -110.900; -751.000; -720.000
318.685; -190.200; -985.000; -888.000
318.821; -154.100; -762.000; -735.000
318.957;   -7.700;   34.000;  -23.000
319.094;  104.500;  297.000;  154.000
319.230; -138.800; -756.000; -742.000
319.367;  193.500; -471.000; -520.000
319.503;   80.300; -538.000; -436.000
319.639; -169.900; -877.000; -793.000
319.775; -132.400; -750.000; -685.000
319.912;  -92.000; -424.000; -519.000
320.048; -203.500;-1184.000;-1184.000
320.184;  140.900;   59.000;   70.000
320.321; -111.800; -497.000; -467.000
320.457;  163.600;  475.000;  662.000
320.593;  -98.700; -375.000; -382.000
320.729; -184.500; -732.000; -734.000
320.866; -143.300; -577.000; -635.000
321.002; -145.600; -759.000; -809.000
321.138;  -24.500; -135.000; -211.000
321.274;  134.100; -148.000; -115.000
321.410;  -61.200; -585.000; -353.000
321.546;  -86.400;-1011.000; -911.000
321.683;  122.800;  400.000;  185.000
321.819;   66.600;  -48.000; -117.000
321.955; -231.800; -743.000; -722.000
322.091;  -71.700; -585.000; -540.000
322.227;  -17.100; -382.000; -202.000
322.363;  -32.000; -320.000; -215.000
322.499;  -50.400; -343.000; -331.000
322.635;  333.900;  636.000;  443.000
322.771;   34.300; -139.000;   12.000
322.907;  202.100;  129.000;  327.000
323.043;  -25.200; -115.000; -206.000
323.179;  -25.100; -394.000; -363.000
323.315;   26.000; -401.000; -371.000
323.451;  155.900; -328.000; -236.000
323.587;  116.000;  -60.000;  -77.000
323.723;    6.700; -682.000; -601.000
323.859;  -34.700; -258.000;  -76.000
323.995;  -49.700; -467.000; -409.000
324.131; -249.600; -967.000; -892.000
324.267;  -66.600; -254.000; -276.000
324.402; -253.000; -960.000; -983.000
324.538;  -43.700; -279.000; -104.000
324.674;   30.700;  164.000;   77.000
324.810;  225.000;  226.000;  308.000
324.946;    1.000; -810.000; -658.000
325.082; -104.300; -568.000; -475.000
325.217;   -4.100;  -62.000;   16.000
325.353; -190.800; -764.000; -659.000
325.489; -182.100; -540.000; -506.000
325.625; -127.400; -579.000; -525.000
325.760;  138.900;  517.000;  376.000
325.896;  -14.900; -515.000; -702.000
326.032;  -89.300; -403.000; -352.000
326.168;  -81.200; -462.000; -369.000
326.303;  -98.300; -352.000; -461.000
326.439;   -6.300; -336.000; -276.000
326.575;    6.900; -190.000;  -29.000
326.710;   12.500; -156.000;  -30.000
326.846;    0.400;  146.000;  103.000
326.982; -142.100; -530.000; -548.000
327.117; -134.300; -481.000; -442.000
327.253; -173.100; -745.000; -742.000
327.388; -272.500;-1137.000;-1153.000
327.524;  -82.700; -811.000; -578.000
327.659;  -27.700;  -58.000;  -22.000
327.795;    7.800;   69.000;   45.000
327.931; -134.500; -723.000; -499.000
328.066;  -46.000; -417.000; -276.000
328.202;  -28.500;   12.000; -129.000
328.337;  306.000;  957.000;  713.000
328.473;   28.800;  -12.000;  -74.000
328.608;  -15.500; -256.000; -267.000
328.743; -187.300; -799.000; -664.000
328.879;   54.200;  214.000;  114.000
329.014; -112.700; -102.000; -122.000
329.150; -125.100; -358.000; -483.000
329.285; -145.600; -465.000; -466.000
329.421;  -61.400; -548.000; -246.000
329.556;  -23.300;  -36.000;   85.000
329.691; -133.800; -633.000; -615.000
329.827; -178.300; -626.000; -480.000
329.962;  -41.600;  131.000; -301.000
330.097; -180.200; -673.000; -585.000
330.233;  -66.500; -410.000; -223.000
330.368; -235.000; -839.000; -628.000
330.503;  -11.800;    3.000;   98.000
330.638;   -7.400;  -93.000; -125.000
330.774; -109.700; -609.000; -530.000
330.909;  -48.200; -434.000; -244.000
331.044; -176.500; -714.000; -708.000
331.179; -345.300;-1217.000;-1109.000
331.315;   56.300;   77.000;   20.000
331.450;   48.600;  157.000;  285.000
331.585; -164.200; -805.000; -706.000
331.720; -139.700; -510.000; -460.000
331.855;    7.200;  -35.000; -102.000
331.990;  496.200;   62.000;  138.000
332.126;  272.000; -110.000;   71.000
332.261;  -21.600; -379.000; -265.000
332.396;   28.500; -135.000; -242.000
332.531; -199.600;-1074.000;-1031.000
332.666;   90.600; -519.000; -363.000
332.801; -182.500; -726.000; -807.000
332.936;  -39.100; -192.000; -122.000
333.071; -293.400; -870.000; -817.000
333.206;   33.600;  307.000;  379.000
333.341;   83.000;  344.000;  418.000
333.476; -167.000; -627.000; -623.000
333.611;  -59.300; -251.000; -173.000
333.746;  -80.500; -381.000; -464.000
333.881; -253.400; -973.000; -935.000
334.016; -220.300; -936.000; -917.000
334.151; -219.800; -746.000; -702.000
334.286;   69.900;  152.000;  186.000
334.421;    3.700; -125.000; -178.000
334.556; -131.100; -611.000; -567.000
334.690; -188.600; -631.000; -577.000
334.825;  143.600;  381.000;   83.000
334.960; -128.000; -285.000; -413.000
335.095;   32.100;  135.000;  -91.000
335.230; -207.800; -722.000; -738.000
335.365; -280.900;-1084.000; -990.000
335.499; -281.400;-1108.000;-1037.000
335.634;   64.000;    9.000;  534.000
335.769; -208.200; -755.000; -720.000
335.904;  -95.900; -603.000; -561.000
336.038; -120.200; -735.000; -657.000
336.173; -212.300;-1206.000;-1194.000
336.308;   14.500; -116.000; -189.000
336.443;   61.000; -544.000; -634.000
336.577; -149.500; -936.000; -787.000
336.712;  127.900;   -4.000;  -12.000
336.847; -128.600; -724.000; -607.000
336.981;   79.000; -272.000; -208.000
337.116;  445.500;  615.000;  501.000
337.250;  225.700; -434.000; -421.000
337.385;  455.800; -297.000; -208.000
337.520;  167.500; -632.000; -603.000
337.654;  -41.700; -215.000; -126.000
337.789; -219.300; -989.000; -933.000
337.923;  -49.100; -104.000; -205.000
338.058; -133.900; -673.000; -738.000
338.192;  -84.200; -611.000; -488.000
338.327;    4.100;  -18.000; -155.000
338.461; -131.300; -299.000; -469.000
338.596; -158.800; -780.000; -638.000
338.730; -163.700; -767.000; -803.000
338.865;  199.900;  -46.000; -140.000
338.999; -114.000; -846.000; -702.000
339.134;  -30.300; -634.000; -536.000
339.268;   44.400; -741.000; -603.000
339.403;  669.400; -740.000; -775.000
339.537;  258.000; -894.000; -820.000
339.671; -198.600; -829.000; -813.000
339.806; -111.200; -556.000; -512.000
339.940;   56.900; -261.000; -235.000
340.074; -176.800; -685.000; -510.000
340.209;  -34.300; -351.000; -230.000
340.343; -166.200; -517.000; -573.000
340.477;  335.000;  998.000; 1036.000
340.612;  -80.800;-1033.000; -900.000
340.746;  284.900; -199.000; -243.000
340.880; -140.800; -924.000; -785.000
341.014;   23.400;  -45.000; -154.000
341.149; -195.100; -756.000; -718.000
341.283; -186.200; -839.000; -754.000
341.417; -204.000;-1124.000; -938.000
341.551;  155.200; -768.000; -708.000
341.685;  -60.400; -633.000; -611.000
341.820;  -80.800; -562.000; -493.000
341.954;  -81.600; -218.000; -349.000
342.088; -291.200;-1102.000;-1019.000
342.222;  108.500;  565.000;  618.000
342.356; -125.000; -395.000; -335.000
342.490; -200.100; -880.000; -841.000
342.624;  -55.600; -339.000; -242.000
342.758;  -35.600; -364.000; -312.000
342.892; -125.100; -710.000; -585.000
343.026;  -52.600;  -58.000; -116.000
343.160;  -91.300; -426.000; -376.000
343.294; -137.300; -474.000; -337.000
343.428;  -51.200; -488.000; -448.000
343.562;   -5.900; -172.000;  -23.000
343.696;  -49.300; -385.000; -314.000
343.830;  -47.200; -362.000; -356.000
343.964;   67.400; -231.000; -168.000
344.098; 1334.000;  199.000;   70.000
344.232; 1104.000; -266.000; -127.000
344.366;  132.800; -567.000; -453.000
344.500;   31.500; -665.000; -744.000
344.634;   22.200; -324.000; -164.000
344.768;  -16.800; -531.000; -341.000
344.902;   56.200;  278.000;  256.000
345.035;  -83.600; -556.000; -496.000
345.169; -248.100; -933.000; -656.000
345.303;  -53.000; -308.000; -482.000
345.437; -133.300; -826.000; -717.000
345.571; -109.300; -675.000; -594.000
345.704; -110.000; -309.000; -532.000
345.838;    6.800; -331.000; -284.000
345.972;  -68.400; -543.000; -495.000
346.106;  358.300; -179.000; -190.000
346.239;  748.400; -312.000; -243.000
346.373;   32.800; -343.000; -302.000
346.507; -303.200; -950.000; -962.000
346.640;  212.600;  -30.000;   13.000
346.774; -122.400; -650.000; -797.000
346.908;   25.900; -138.000;  -11.000
347.041; -167.300; -646.000; -593.000
347.175;   60.000;  259.000;   27.000
347.309; -129.000; -698.000; -628.000
347.442; -174.500; -883.000; -732.000
347.576;  494.600;  670.000;  668.000
347.709;  314.400; -123.000;  -52.000
347.843; -199.700; -933.000; -825.000
347.976;  123.200;  235.000;  294.000
348.110; -345.300;-1268.000;-1186.000
348.243; -172.000; -679.000; -772.000
348.377;   24.300;  -26.000;   60.000
348.510;  161.400;  403.000;  540.000
348.644;  -51.600;  -37.000; -159.000
348.777;   48.300;  180.000;  191.000
348.911;  -54.700; -142.000; -112.000
349.044;  314.900;  471.000;  448.000
349.178;  150.000;-1069.000;-1006.000
349.311;  247.400;  141.000;  255.000
349.444;  -14.100; -927.000; -813.000
349.578;  -15.000; -347.000; -200.000
349.711; -207.400; -959.000; -862.000
349.845;  -15.500; -661.000; -591.000
349.978; -299.500;-1224.000;-1137.000
350.111; -137.400; -546.000; -612.000
350.244; -155.700; -596.000; -700.000
350.378;    3.800; -392.000; -393.000
350.511;  -96.400; -393.000; -426.000
350.644; -178.000; -808.000; -806.000
350.778;   36.400;  168.000;  104.000
350.911;   59.800;  134.000;  140.000
351.044; -168.900; -685.000; -615.000
351.177;  -24.900; -321.000; -281.000
351.310;    6.500;    3.000; -131.000
351.444; -151.900; -888.000; -788.000
351.577;  220.400;  140.000;   90.000
351.710;  217.000;  593.000;  417.000
351.843;  -20.500; -165.000;  -77.000
351.976;   49.100;  149.000;  -79.000
352.109; -192.300; -621.000; -612.000
352.242;  -14.100; -464.000; -419.000
352.376; -108.800; -580.000; -636.000
352.509;  260.600; -437.000; -356.000
352.642;  -62.800; -654.000; -604.000
352.775;  150.200; -141.000;  -98.000
352.908; -209.100; -933.000; -904.000
353.041; -198.200; -814.000; -824.000
353.174; -119.800; -551.000; -424.000
353.307; -157.700; -753.000; -764.000
353.440;  169.400;  541.000;  453.000
353.573; -213.500; -957.000;-1008.000
353.706; -112.000; -384.000; -558.000
353.839;  -46.200; -264.000; -220.000
353.971; -176.300; -657.000; -512.000
354.104; -198.700; -896.000; -835.000
354.237;  -84.700; -627.000; -662.000
354.370; -186.400; -846.000; -879.000
354.503; -356.900;-1231.000;-1308.000
354.636;  -60.300; -529.000; -348.000
354.769; -247.600; -937.000; -860.000
354.902;   19.100; -230.000; -139.000
355.034;   -2.300; -164.000; -220.000
355.167;   -4.000; -262.000; -162.000
355.300; -198.300;-1061.000; -880.000
355.433; 1875.300;  -71.000;  -14.000
355.565; 2819.100; -402.000; -384.000
355.698;  739.000; -356.000; -296.000
355.831;  -44.700; -882.000; -801.000
355.964;  134.600; -285.000; -170.000
356.096; -216.200; -856.000; -843.000
356.229;   32.800; -523.000; -530.000
356.362;  616.400; -373.000; -266.000
356.494; 1127.900; -229.000; -162.000
356.627;  822.500;  269.000;  377.000
356.760; 1244.200;  120.000;   53.000
356.892; 1763.600; -286.000; -601.000
357.025; 1065.500;  403.000;  389.000
357.157;  893.500; -167.000; -179.000
357.290; 1302.100; -856.000; -713.000
357.423;  324.000; -667.000; -556.000
357.555;  165.800; -217.000; -228.000
357.688;  180.600; -483.000; -364.000
357.820;  618.400; -870.000; -877.000
357.953; 5438.600; -563.000; -589.000
358.085; 1161.000; -632.000; -612.000
358.218; 1568.800;-1131.000; -932.000
358.350;  344.200;  -58.000;  312.000
358.483; -258.300;-1300.000;-1187.000
358.615;  -85.500;-1182.000;-1078.000
358.747; -162.600;-1187.000;-1058.000
358.880;  -11.900; -810.000; -744.000
359.012;  -15.000; -376.000; -202.000
359.145;  -65.900; -480.000; -511.000
359.277;    8.600; -962.000; -913.000
359.409; 4502.900;  536.000;  231.000
359.542; 1064.300; -738.000; -688.000
359.674;  152.800;   46.000;   13.000
359.806; -122.700; -565.000; -438.000
359.939;  -34.800; -617.000; -516.000
360.071;  -33.300; -583.000; -579.000
360.203;   -9.500; -411.000; -364.000
360.335;   96.100;  164.000;  -16.000
360.468;  317.700; -249.000; -307.000
360.600; 3727.700; -547.000; -454.000
360.732; 5205.400; -546.000; -423.000
360.864;  638.800;-1216.000;-1044.000
360.996;  416.600; -516.000; -554.000
361.129;   35.600; -389.000; -598.000
361.261;   90.200;  110.000; -113.000
361.393;  -38.900; -252.000; -214.000
361.525;  108.900;   94.000;  244.000
361.657;  -90.600; -821.000; -703.000
361.789;   38.000; -139.000; -155.000
361.921;  291.300; -642.000; -593.000
362.053;  427.300;  524.000;  541.000
362.185;  123.300;  288.000;   72.000
362.318; -146.900; -709.000; -705.000
362.450;  180.800;  294.000;  444.000
362.582;   84.200; -913.000; -870.000
362.714;  -70.200; -353.000; -332.000
362.846; -116.100; -606.000; -490.000
362.978; -252.100; -941.000; -811.000
363.109;   88.400; -161.000; -260.000
363.241;  652.900; -739.000; -749.000
363.373;  793.400; -649.000; -564.000
363.505; 1276.000; -186.000;  -91.000
363.637;  286.900; -787.000; -601.000
363.769; -255.700;-1067.000;-1080.000
363.901; -103.900; -596.000; -654.000
364.033; -294.200;-1103.000;-1062.000
364.165;   29.000; -283.000; -283.000
364.296;  175.100; -316.000; -177.000
364.428;  113.900;-1344.000;-1220.000
364.560; -100.000; -679.000; -661.000
364.692;  -89.900; -738.000; -835.000
364.824;  389.200; -588.000; -456.000
364.955;  761.500; -402.000; -564.000
365.087; 1780.900;-1097.000; -852.000
365.219;   67.800; -686.000; -816.000
365.351; -155.700; -526.000; -572.000
365.482;  122.300;  300.000;  240.000
365.614;  -70.700; -402.000; -314.000
365.746; -181.900; -729.000; -752.000
365.877; -152.900; -706.000; -672.000
366.009;  544.000;  -35.000;  -62.000
366.141; -155.800;-1249.000;-1134.000
366.272; -201.700; -803.000; -719.000
366.404; -196.800;-1005.000; -874.000
366.535;   38.200; -139.000;  -12.000
366.667; -173.700; -644.000; -649.000
366.799;   97.300;  353.000;  203.000
366.930; -229.500; -862.000; -996.000
367.062;  223.900; -639.000; -613.000
367.193;  286.200; -872.000; -842.000
367.325;  -77.700; -580.000; -684.000
367.456;   52.600; -246.000;   31.000
367.588;  312.000; -371.000; -318.000
367.719;   67.700;  -44.000;  -45.000
367.851;   -0.700; -222.000; -241.000
367.982; -112.800; -875.000; -732.000
368.113;  156.200; -475.000; -358.000
368.245; -250.200; -960.000; -841.000
368.376;  -10.200; -254.000; -302.000
368.508;  -19.900; -188.000; -263.000
368.639; -247.600;-1166.000;-1034.000
368.770;  -65.400; -670.000; -589.000
368.902; -126.500; -836.000; -926.000
369.033; -210.300; -906.000; -855.000
369.164;  -47.000; -720.000; -653.000
369.296; -169.600; -452.000; -601.000
369.427;   37.600; -209.000; -144.000
369.558; -108.400; -593.000; -377.000
369.689; -143.100; -721.000; -569.000
369.821; -244.100; -951.000; -845.000
369.952;    4.200;   42.000; -108.000
370.083;  -91.500; -229.000; -108.000
370.214; -138.200; -735.000; -650.000
370.345;   25.500;   65.000;   81.000
370.477; -146.200; -810.000; -790.000
370.608;  316.200; -328.000; -264.000
370.739; -151.700;-1233.000;-1292.000
370.870;  -95.800;-1102.000; -923.000
371.001;  110.100; -378.000; -467.000
371.132; -177.500; -754.000; -735.000
371.263;  -10.000;  -42.000; -148.000
371.394; -241.900; -841.000; -748.000
371.525;  107.200;  345.000;  225.000
371.657; -175.600; -808.000; -670.000
371.788;  178.600;  103.000;  199.000
371.919;  260.500; -384.000; -304.000
372.050; 5373.400;  -91.000; -156.000
372.181; 1529.100; -188.000; -294.000
372.311;  580.100;   42.000; -127.000
372.442;   33.400; -457.000; -451.000
372.573;  -46.500; -444.000; -340.000
372.704; -215.300;-1008.000; -980.000
372.835;  138.400; -228.000; -289.000
372.966; -123.400; -646.000; -554.000
373.097; -132.100; -575.000; -711.000
373.228; -122.500; -717.000; -542.000
373.359;  130.500; -824.000; -536.000
373.490; 1294.000; -881.000; -727.000
373.620; 1624.200;-1001.000; -803.000
373.751; 2553.800; -332.000; -396.000
373.882; 1083.100; -663.000; -733.000
374.013;   94.000; -449.000; -262.000
374.143;  -76.200; -581.000; -659.000
374.274; -204.600; -987.000; -908.000
374.405;  273.900; -388.000; -276.000
374.536;  641.200; -526.000; -387.000
374.666; 1610.100; -759.000; -807.000
374.797;  274.100; -817.000; -868.000
374.928; 1222.400; -710.000; -560.000
375.058; 1226.500; -535.000; -500.000
375.189;  131.400;  -59.000;  -93.000
375.320; -240.400; -928.000;-1034.000
375.450;  -70.800; -625.000; -616.000
375.581;  -79.200; -526.000; -436.000
375.712;  -28.000; -574.000; -250.000
375.842;  429.900; -438.000; -415.000
375.973;  284.200; -554.000; -513.000
376.103;  -65.300; -665.000; -648.000
376.234; -149.900; -531.000; -552.000
376.364;  -84.300; -944.000; -867.000
376.495;  596.500;  925.000;  529.000
376.625;  -59.300; -472.000; -485.000
376.756;   89.500; -709.000; -678.000
376.886; -185.800;-1178.000;-1026.000
377.017;  110.200;-1048.000;-1061.000
377.147;  659.700; -786.000; -782.000
377.278;  146.500;  174.000;  228.000
377.408; -214.800; -801.000; -815.000
377.538; -171.100; -707.000; -693.000
377.669; -145.400; -537.000; -613.000
377.799; -158.000; -645.000; -635.000
377.929; -118.600; -610.000; -428.000
378.060; -216.300; -781.000; -847.000
378.190;  -89.000; -726.000; -531.000
378.320;  -73.900; -401.000; -406.000
378.451;    9.000; -131.000;  -22.000
378.581;   24.200;  -67.000; -110.000
378.711;  331.900; 1035.000;  866.000
378.841;  -33.800; -533.000; -675.000
378.972; -152.900; -871.000; -751.000
379.102;  -10.000; -652.000; -579.000
379.232;  -23.700; -126.000;  -73.000
379.362; -184.000;-1001.000; -885.000
379.492;  -20.800; -373.000; -424.000
379.623;  215.200;    0.000;  111.000
379.753; -199.900;-1107.000; -974.000
379.883;  353.900;   59.000;  156.000
380.013;  -56.400;-1081.000;-1017.000
380.143; -192.700;-1097.000;-1056.000
380.273; -194.200; -985.000; -861.000
380.403;   21.600; -344.000; -257.000
380.533;  -85.500; -651.000; -664.000
380.663;  167.200;  173.000;  128.000
380.793; -233.900;-1027.000;-1074.000
380.923;   -3.500; -103.000;  -34.000
381.053; -155.400; -613.000; -623.000
381.183;  -26.900; -106.000; -248.000
381.313;   71.300; -656.000; -470.000
381.443;   61.200; -692.000; -473.000
381.573;  264.000; -402.000; -409.000
381.703;  291.000;-1249.000;-1095.000
381.833; -262.700;-1454.000;-1336.000
381.963;  259.900; -134.000;  -87.000
382.093; 2071.300; -925.000; -909.000
382.223;  551.900; -713.000; -602.000
382.353;  -56.600; -801.000; -608.000
382.482;  508.700;-1091.000; -964.000
382.612; 1142.100; -872.000; -644.000
382.742;  617.500; -695.000; -622.000
382.872;  364.600; -565.000; -551.000
383.002;  160.200;  347.000; -132.000
383.131;  -18.900; -226.000; -160.000
383.261;  -80.800; -706.000; -768.000
383.391;  534.400; -552.000; -377.000
383.521; 6154.200;  451.000;  263.000
383.650; 1363.900; -947.000; -904.000
383.780;  -25.800; -783.000; -656.000
383.910;  253.000;  880.000;  802.000
384.039;   18.200; -794.000; -656.000
384.169;  237.000;-1205.000;-1017.000
384.299;  -62.600; -650.000; -662.000
384.428; -174.300; -764.000; -680.000
384.558;  -32.900; -308.000; -275.000
384.687;  -36.900; -414.000; -334.000
384.817;   67.900;   75.000;   -2.000
384.947;   61.300; -234.000; -141.000
385.076;  558.200;  982.000;  912.000
385.206;  209.100;  369.000;  480.000
385.335;  -55.200; -549.000; -417.000
385.465; -114.600; -655.000; -663.000
385.594;  231.700;  -53.000;  -44.000
385.724;  555.900; -868.000; -838.000
385.853;  204.900; -296.000; -270.000
385.982; 1969.200; -743.000; -787.000
386.112; 2991.200;-1052.000; -871.000
386.241;  208.000; -307.000; -312.000
386.371;   75.300; -174.000;  -87.000
386.500;  -16.100; -825.000; -789.000
386.629;   75.800; -874.000; -817.000
386.759;  157.600;  -43.000;   68.000
386.888;   23.100; -170.000; -250.000
387.017; -161.600; -648.000; -620.000
387.147; -151.800; -771.000; -798.000
387.276;  -15.700; -410.000; -397.000
387.405;   51.300; -398.000; -342.000
387.535;  -82.100; -452.000; -361.000
387.664;  -96.200; -692.000; -620.000
387.793;   99.400; -198.000; -113.000
387.922;  820.900;  255.000;  200.000
388.052;   19.200; -576.000; -423.000
388.181;   37.300; -342.000; -472.000
388.310;   -7.600; -889.000; -710.000
388.439;  -68.400; -749.000; -742.000
388.568;  323.700;  365.000;  244.000
388.697; 1489.900; -756.000; -653.000
388.826;  250.300; -768.000; -666.000
388.956;  100.700; -285.000; -307.000
389.085;  -45.300; -347.000; -287.000
389.214; -172.900; -842.000; -872.000
389.343; -101.300; -645.000; -413.000
389.472;  851.600;  126.000;  149.000
389.601;  882.300;   91.000;    0.000
389.730;   26.600; -568.000; -687.000
389.859;  113.600;  226.000;   46.000
389.988;  296.400; -423.000; -408.000
390.117;  243.600; -168.000; -146.000
390.246;   19.700; -331.000; -320.000
390.375;  149.900; -673.000; -626.000
390.504;  -63.900; -703.000; -621.000
390.633; -148.300; -672.000; -726.000
390.761; -103.600; -732.000; -645.000
390.890;   46.200;   -4.000; -130.000
391.019;  -39.100; -421.000; -441.000
391.148; -239.300; -826.000; -855.000
391.277;  -95.800; -576.000; -493.000
391.406; -177.000; -821.000; -805.000
391.534;   97.700;  574.000; -301.000
391.663; -113.700; -583.000; -645.000
391.792; -140.600; -673.000; -701.000
391.921;  182.000;   -3.000;   15.000
392.050;  264.200; -287.000; -228.000
392.178; -143.800;-1206.000;-1061.000
392.307;  187.300; -758.000; -712.000
392.436;   68.400; -427.000; -641.000
392.564;   80.100;  166.000;   -6.000
392.693; -173.400; -860.000; -682.000
392.822;  281.900; -529.000; -534.000
392.950;   97.600; -880.000; -714.000
393.079;  477.500; -188.000; -328.000
393.208;   17.500; -488.000; -511.000
393.336;   14.900; -170.000; -145.000
393.465;  -67.200; -317.000; -199.000
393.593;   37.500;   62.000;   79.000
393.722; -280.500;-1121.000; -916.000
393.850;    8.000; -188.000;  -61.000
393.979; -254.900; -926.000; -805.000
394.107;  -48.800; -517.000; -537.000
394.236;  -23.500; -570.000; -507.000
394.364;  487.400;  383.000;  206.000
394.493;  654.700; -911.000; -767.000
394.621;   13.000; -955.000; -916.000
394.750; 1463.700; -873.000; -923.000
394.878; 5822.500; -247.000; -149.000
395.007; 7411.000; -721.000; -807.000
395.135;  547.900; -790.000; -721.000
395.263; -158.800;-1038.000;-1040.000
395.392;   54.900;  -25.000; -107.000
395.520; -184.700; -818.000; -679.000
395.648; -184.100; -865.000; -915.000
395.777;  -13.900; -366.000; -405.000
395.905;  -45.500; -449.000; -564.000
396.033;   77.000;  217.000;  172.000
396.162; 1115.700; -399.000; -453.000
396.290;  968.100;  -17.000;   -2.000
396.418;  155.600; -555.000; -514.000
396.546; -161.000; -571.000; -466.000
396.674; -187.800; -850.000; -878.000
396.803;   31.000;  -72.000;  -23.000
396.931;  150.100; -179.000; -199.000
397.059;  -32.700;-1026.000; -989.000
397.187; -215.700;-1026.000; -975.000
397.315; -235.300; -884.000; -649.000
397.443; -133.900; -592.000; -443.000
397.572; -147.300; -578.000; -424.000
397.700;  -40.800; -607.000; -614.000
397.828;   55.000;  120.000;  -90.000
397.956;  -39.800; -508.000; -478.000
398.084; -123.900; -767.000; -626.000
398.212;  120.700;  137.000;  124.000
398.340;   50.800;  -56.000;  159.000
398.468;   62.900; -390.000; -169.000
398.596; -260.200; -993.000; -953.000
398.724; -202.800; -762.000; -767.000
398.852; -278.500;-1024.000; -976.000
398.980;  -84.000; -560.000; -560.000
399.108; -119.600; -982.000; -735.000
399.236;   74.400;   13.000;    8.000
399.363;   28.300;  222.000;  196.000
399.491; -100.500; -404.000; -398.000
399.619; -254.000; -829.000; -800.000
399.747; -195.500; -859.000; -771.000
399.875;  169.500;  220.000;  234.000
400.003;  -62.100; -359.000; -284.000
400.130; -181.000; -421.000; -341.000
400.258;  -14.800;  -83.000;   38.000
400.386;  -81.800; -352.000; -168.000
400.514;  -90.300; -526.000; -587.000
400.641; -183.500; -928.000; -802.000
400.769; -258.900; -979.000; -888.000
400.897; -194.300; -838.000; -793.000
401.025;    8.900; -166.000; -152.000
401.152;   56.800;  220.000;   38.000
401.280; -131.400; -430.000; -429.000
401.408; -218.300; -712.000; -576.000
401.535; -150.200; -735.000; -758.000
401.663; -340.200;-1134.000;-1054.000
401.790; -124.200; -514.000; -525.000
401.918;  115.200;  436.000;  405.000
402.046;   22.100;  134.000;  122.000
402.173;  -11.100;  -18.000;    7.000
402.301;  -89.900; -519.000; -397.000
402.428;   95.400;  528.000;  383.000
402.556; -248.600;-1188.000; -913.000
402.683;   -6.200;  -20.000;   -1.000
402.811;  -12.900;  -37.000; -206.000
402.938;    9.700;   20.000;   27.000
403.066;  291.300; -574.000; -558.000
403.193;  491.500;  299.000;  239.000
403.321;  366.100; -396.000; -574.000
403.448;  497.100;   83.000;   27.000
403.575;  269.100;  -90.000;  -46.000
403.703; -177.200; -732.000; -557.000
403.830;  -62.200; -531.000; -496.000
403.957; -231.300;-1117.000;-1023.000
404.085;   85.700;  -61.000; -172.000
404.212;  174.200;  -50.000;   63.000
404.339;  600.400; -566.000; -306.000
404.467;11587.400; -612.000; -524.000
404.594; 6764.100; -287.000; -227.000
404.721; 1402.200; -869.000; -764.000
404.848;  165.900; -113.000; -202.000
404.976; -163.700; -856.000; -783.000
405.103;   22.300;  -14.000;  -82.000
405.230;   44.300;  190.000;  226.000
405.357;  123.700;  117.000;   44.000
405.484;  542.700;  -49.000;    5.000
405.612;  134.100; -548.000; -563.000
405.739; -117.100; -488.000; -243.000
405.866;  230.100;  669.000;  385.000
405.993;  -70.400; -398.000; -102.000
406.120; -196.800; -801.000; -887.000
406.247;  -79.400; -323.000; -342.000
406.374;  760.800;  540.000;  629.000
406.501;   92.300; -632.000; -702.000
406.628; -105.100; -621.000; -589.000
406.755; -156.200; -803.000; -620.000
406.882;  -36.900; -228.000; -277.000
407.009; -169.400; -719.000; -628.000
407.136;   83.900; -480.000; -401.000
407.263;  164.700; -939.000; -829.000
407.390; -148.700; -692.000; -614.000
407.517; -309.800;-1139.000;-1187.000
407.644;  -97.700; -332.000; -256.000
407.771; -105.400; -249.000; -287.000
407.898;   64.700;  168.000;  328.000
408.025; -111.600; -421.000; -313.000
408.151;   22.600;   82.000;  153.000
408.278;  -70.200; -267.000; -216.000
408.405; -162.400; -931.000; -899.000
408.532; -141.800; -549.000; -542.000
408.659; -215.000; -677.000; -648.000
408.785; -381.300;-1298.000;-1170.000
408.912;  -44.100; -412.000; -296.000
409.039; -170.300; -610.000; -686.000
409.166; -162.000; -591.000; -555.000
409.292; -162.100; -571.000; -534.000
409.419; -174.300; -665.000; -649.000
409.546; -117.600; -431.000; -192.000
409.672; -161.600; -713.000; -545.000
409.799;    7.500;  -36.000;   34.000
409.926;  -33.900; -180.000; -179.000
410.052; -319.800;-1127.000;-1091.000
410.179;  -72.100; -368.000; -392.000
410.305; -157.700; -375.000; -493.000
410.432;  -39.200; -220.000; -333.000
410.558; -125.900; -305.000; -380.000
410.685; -194.300; -688.000; -431.000
410.812; -168.900; -409.000; -588.000
410.938; -202.600; -964.000; -808.000
411.065; -162.900; -671.000; -645.000
411.191;   -3.200; -189.000; -174.000
411.317; -198.600; -823.000; -742.000
411.444;  -94.000; -317.000; -246.000
411.570;  -86.900; -339.000; -294.000
411.697; -194.900; -758.000; -752.000
411.823; -310.100; -989.000; -999.000
411.949;  -15.700;  -56.000;   17.000
412.076; -181.400; -539.000; -519.000
412.202; -219.600; -758.000; -757.000
412.329; -241.600; -798.000; -752.000
412.455; -205.900; -821.000; -657.000
412.581;  -30.800;  -15.000;  172.000
412.707; -102.700; -540.000; -457.000
412.834;   44.800;  156.000;  219.000
412.960; -155.000; -785.000; -784.000
413.086; -198.800; -743.000; -701.000
413.212;  323.200;  604.000;  578.000
413.339; -137.800; -685.000; -701.000
413.465;   -6.400; -364.000; -310.000
413.591; -186.700; -757.000; -474.000
413.717;  -46.700; -358.000; -366.000
413.843; -254.000; -839.000; -861.000
413.969;  -77.900;  -47.000; -292.000
414.096; -184.200; -679.000; -679.000
414.222;   21.900;  -33.000;   85.000
414.348;  -24.900; -652.000; -385.000
414.474;  183.100;   38.000;  -52.000
414.600;   -2.900; -126.000; -144.000
414.726;   -1.600;  -96.000;  -55.000
414.852; -109.300; -365.000; -342.000
414.978;  136.500;  104.000;  -18.000
415.104;  113.100;   38.000;   80.000
415.230;   86.300; -329.000; -330.000
415.356;  100.600; -409.000; -514.000
415.482;  405.300;   13.000;  -35.000
415.608;  564.500; -247.000; -323.000
415.734; 1912.800;   67.000;   38.000
415.860;40236.500; -875.000; -767.000
415.986;26136.800; -685.000; -607.000
416.111; 2109.200; -798.000; -652.000
416.237;  483.800; -424.000; -571.000
416.363; 2397.700; -765.000; -733.000
416.489; 8056.700; -324.000; -251.000
416.615;  782.000; -707.000; -742.000
416.741;   -7.600; -677.000; -784.000
416.866; -132.700; -673.000; -736.000
416.992; -169.500; -801.000; -818.000
417.118;  -45.800;  -41.000;  -80.000
417.244;  -90.100; -798.000; -531.000
417.369; -134.000; -801.000; -612.000
417.495;   16.500; -325.000; -254.000
417.621; -144.800;-1015.000; -803.000
417.746;   34.800; -579.000; -572.000
417.872;   87.500; -254.000; -144.000
417.998;  153.400; -515.000; -530.000
418.123; 2239.500;-1073.000; -845.000
418.249;10437.000; -512.000; -601.000
418.374; 1292.800; -916.000; -824.000
418.500;  277.200; -383.000; -482.000
418.626;  272.000;   70.000;  -59.000
418.751;  287.300; -549.000; -448.000
418.877;  408.400; -637.000; -643.000
419.002; 3898.500; -688.000; -560.000
419.128;24659.300; -930.000; -721.000
419.253; 5247.700; -967.000; -837.000
419.379;  736.400; -391.000; -338.000
419.504;  820.500;  325.000;  415.000
419.629; 1010.200; -393.000; -212.000
419.755; 7648.700; -317.000; -254.000
419.880;40796.000;  -98.000;   67.000
420.006;22699.400; -280.000; -221.000
420.131;54679.500; -662.000; -775.000
420.256; 7055.700; -315.000; -316.000
420.382; 1009.100; -665.000; -687.000
420.507;  152.800; -649.000; -778.000
420.632;  232.800; -337.000; -339.000
420.758;  351.800; -251.000; -425.000
420.883; -140.100; -876.000; -672.000
421.008; -148.300; -775.000; -619.000
421.133; -110.200; -509.000; -467.000
421.259;  -55.900; -325.000; -259.000
421.384; -201.200; -834.000; -693.000
421.509; -126.300;-1052.000; -862.000
421.634; 1520.800; -936.000; -820.000
421.759;  565.100; -359.000; -327.000
421.885; -104.400; -717.000; -656.000
422.010; -111.700; -673.000; -542.000
422.135; -244.300; -695.000; -727.000
422.260;  123.200;  340.000;  280.000
422.385;  -34.100;   12.000;  -98.000
422.510;   70.900;  151.000;  -26.000
422.635;   87.700;  -87.000;  -43.000
422.760;  170.600; -766.000; -791.000
422.885;  150.600;  -57.000;  -80.000
423.010;  -30.900; -112.000; -169.000
423.135; -149.300; -481.000; -561.000
423.260;   33.100; -150.000; -245.000
423.385;  153.900;  476.000;  222.000
423.510;   70.100;   71.000;  -22.000
423.635;  156.500;  133.000;   45.000
423.760;  182.100;  383.000;  328.000
423.885;  128.200;  336.000;  391.000
424.010;   61.800;  -68.000;  -13.000
424.135;   27.100;    5.000;  -33.000
424.259; -122.700; -654.000; -457.000
424.384;  -94.700; -279.000; -272.000
424.509;   22.500; -260.000; -186.000
424.634; -197.100; -761.000; -623.000
424.759;  -50.300; -688.000; -544.000
424.883;   20.600; -506.000; -527.000
425.008;  371.600; -502.000; -410.000
425.133; 3935.600; -679.000; -653.000
425.258; 1669.400; -517.000; -381.000
425.382; 1580.700; -867.000; -774.000
425.507; 3723.100; -487.000; -543.000
425.632;  679.100; -802.000; -663.000
425.756;  890.600; -256.000; -146.000
425.881;13973.700; -831.000; -857.000
426.006;34076.900; -604.000; -355.000
426.130; 4649.400; -696.000; -508.000
426.255;  676.000; -611.000; -491.000
426.379;  340.200; -189.000; -577.000
426.504;  809.400;  660.000;  544.000
426.629; 8259.100; -519.000; -466.000
426.753; 5044.900;   64.000;  -46.000
426.878;  597.000; -252.000; -288.000
427.002;  312.300; -651.000; -668.000
427.127; 3328.300;  -35.000; -158.000
427.251;22607.200;  372.000;  401.000
427.375; 5611.200; -191.000; -173.000
427.500; 3461.000; -616.000; -610.000
427.624; 1031.900; -234.000; -400.000
427.749;  156.900; -216.000; -225.000
427.873;  -41.900; -499.000; -412.000
427.997;  -27.800; -222.000; -230.000
428.122;  201.700;  795.000;  703.000
428.246;  221.500;  433.000;  434.000
428.371; -219.900; -869.000; -773.000
428.495; -143.300; -624.000; -646.000
428.619;  -22.000; -186.000; -117.000
428.743;  120.800;   65.000;  132.000
428.868;   15.000; -732.000; -643.000
428.992; 2100.900; -219.000; -326.000
429.116;  771.700; -329.000; -357.000
429.240;  477.400;  419.000;  426.000
429.365;  -47.700; -454.000; -574.000
429.489;  -37.300; -638.000; -647.000
429.613;   98.600; -236.000; -177.000
429.737;  123.200; -563.000; -432.000
429.861;  605.800; -247.000; -133.000
429.985;11639.600; -425.000; -305.000
430.109;11154.900; -770.000; -908.000
430.234; 1240.100;   76.000;  -50.000
430.358;  184.500; -250.000; -160.000
430.482;  -90.900; -672.000; -564.000
430.606; -106.100; -655.000; -375.000
430.730;   64.900; -437.000; -388.000
430.854;  106.400; -909.000; -835.000
430.978; -130.400; -795.000; -764.000
431.102; -142.900; -499.000; -422.000
431.226; -171.000; -874.000; -815.000
431.350;  126.100;  345.000;  422.000
431.474; -103.700; -661.000; -373.000
431.597; -271.700;-1060.000; -848.000
431.721;  -74.100; -276.000; -267.000
431.845; -209.300; -704.000; -472.000
431.969; -104.600; -304.000; -349.000
432.093; -132.200; -395.000; -317.000
432.217;   18.800;   32.000;   82.000
432.341; -170.800; -523.000; -518.000
432.464;   72.900;   96.000;   40.000
432.588;  301.500; -401.000; -329.000
432.712;  191.800;  -52.000;  -52.000
432.836;  126.100;  213.000;  263.000
432.959;   40.700; -372.000; -311.000
433.083;  228.500;   11.000;    2.000
433.207;  789.400;  285.000;  930.000
433.330;10538.600; -391.000; -200.000
433.454;11616.000; -654.000; -638.000
433.578; 6896.100;  583.000;  278.000
433.701; 1148.900; -623.000; -675.000
433.825;  217.800; -292.000; -299.000
433.949;  260.000;   28.000;  -72.000
434.072;   87.300; -410.000; -323.000
434.196;   17.200; -309.000; -117.000
434.319; 7923.700;25482.000;25124.000
434.443; 1497.600; -656.000; -603.000
434.566; 5104.400;  281.000;   62.000
434.690;  748.100; -637.000; -383.000
434.813;   87.700; -251.000; -173.000
434.937; -133.500; -569.000; -696.000
435.060;  -65.600; -423.000; -332.000
435.184;  425.500; -492.000; -217.000
435.307;  215.500;  159.000;  102.000
435.431;    3.000;  -40.000;   24.000
435.554; -127.000; -399.000; -240.000
435.677; -106.800; -350.000; -258.000
435.801;  -33.300;  -25.000;   49.000
435.924;   47.300;    1.000;  -67.000
436.048; -207.300;-1019.000; -732.000
436.171;  -57.900; -240.000;  -66.000
436.294;   -3.700; -248.000; -229.000
436.417;  231.300; -963.000; -849.000
436.541; -166.800; -814.000; -840.000
436.664;  -27.300; -242.000; -316.000
436.787;   41.000;   13.000;  113.000
436.910; -173.800; -792.000; -422.000
437.034;   93.300;  142.000;  143.000
437.157;  119.100;  -11.000;    0.000
437.280;  -91.800; -392.000; -292.000
437.403; -153.200; -982.000; -869.000
437.526;  887.300; -903.000; -865.000
437.649; 2917.100; -505.000; -332.000
437.772;  288.700; -692.000; -540.000
437.896;  282.000;  700.000;  544.000
438.019; -162.400; -758.000; -503.000
438.142; -144.800; -596.000; -506.000
438.265;  -48.700; -639.000; -670.000
438.388;  823.900; -520.000; -410.000
438.511;   60.700; -597.000; -394.000
438.634;  -65.300; -247.000; -125.000
438.757; -228.900; -693.000; -619.000
438.880;    7.600;  -34.000;  -57.000
439.003; -117.200; -417.000; -437.000
439.126;  -50.600; -287.000; -167.000
439.248;  -77.500;  -98.000; -139.000
439.371;   -8.000;    9.000;  -53.000
439.494;  130.900;  510.000;  439.000
439.617;  -10.800;   65.000;  -88.000
439.740; -286.000; -968.000; -816.000
439.863; -234.900; -755.000; -595.000
439.986; -209.800; -476.000; -431.000
440.108;  -43.900; -161.000; -112.000
440.231; -317.000; -950.000; -836.000
440.354;  -18.100;  -64.000; -150.000
440.477;   49.100; -566.000; -542.000
440.599;   32.700; -200.000; -225.000
440.722; -205.900; -709.000; -586.000
440.845;  209.500;  751.000;  928.000
440.968; -181.700; -415.000; -311.000
441.090;  -87.300; -199.000;  -33.000
441.213; -276.100;-1021.000; -825.000
441.336;  -42.400; -159.000;   -5.000
441.458; -120.600; -549.000; -396.000
441.581; -131.900; -628.000; -629.000
441.703;  -85.300; -152.000;   13.000
441.826; -143.100; -557.000; -400.000
441.948;  -43.100;   56.000;   51.000
442.071;  122.000;  555.000;  424.000
442.193; -180.500; -531.000; -485.000
442.316;   98.900;  152.000;   97.000
442.438;  145.600; -233.000;  -10.000
442.561;  186.000;  272.000;  262.000
442.683;  731.000; -809.000; -522.000
442.806; 1488.500;   -8.000;   74.000
442.928;  -54.500; -859.000; -604.000
443.051; -115.500; -577.000; -373.000
443.173; -159.200; -341.000; -339.000
443.295; -130.100; -263.000; -371.000
443.418; -119.200; -321.000;  -29.000
443.540;   -6.800; -106.000;   -4.000
443.662; -197.400; -563.000; -465.000
443.785;   30.000;  335.000;  199.000
443.907; -159.600; -362.000; -208.000
444.029; -192.700; -767.000; -494.000
444.152; -262.900; -644.000; -554.000
444.274;  -10.200;  -18.000;  -24.000
444.396; -211.700; -461.000; -221.000
444.518; -227.100; -691.000; -454.000
444.640; -136.000; -268.000; -111.000
444.763;   36.300;  388.000;  249.000
444.885; -188.800; -432.000; -392.000
445.007;  -29.800;   35.000;   86.000
445.129; -175.200; -610.000; -515.000
445.251; -143.700; -372.000; -439.000
445.373; -227.900; -537.000; -386.000
445.495;   44.100;  242.000;  350.000
445.617;  191.100;  853.000;  753.000
445.739;  -85.700; -215.000;  -97.000
445.861;  -48.500; -245.000; -112.000
445.984;  -36.400; -267.000; -101.000
446.105;  266.500; -418.000; -251.000
446.227;  833.000; -176.000;  -19.000
446.349;  -38.300; -358.000; -249.000
446.471; -184.400; -615.000; -448.000
446.593; -118.400; -316.000;   19.000
446.715;   52.100;  -67.000;   41.000
446.837;  183.100;  697.000;  832.000
446.959; -121.000; -457.000; -478.000
447.081; -200.800; -628.000; -518.000
447.203;  182.400;  862.000;  834.000
447.325; -112.600; -270.000;   42.000
447.446;   45.800;  286.000;  530.000
447.568; -287.700; -921.000; -803.000
447.690; -103.800; -236.000; -245.000
447.812; -261.500; -798.000; -519.000
447.933;   35.500;  155.000;  127.000
448.055;  -67.500; -306.000; -261.000
448.177;  271.500;   31.000;   79.000
448.299;   46.400; -935.000; -727.000
448.420;   51.200;  -25.000;  159.000
448.542;  -61.000;   -3.000;   33.000
448.664;    3.700;  109.000;  322.000
448.785;   -8.600;  265.000;   83.000
448.907; -111.500; -614.000; -353.000
449.028; -102.700; -771.000; -471.000
449.150;  178.900;  492.000;  589.000
449.272; -309.600;-1044.000; -913.000
449.393;  141.000;  612.000;  694.000
449.515; -228.700; -634.000; -581.000
449.636;  -36.200; -264.000; -155.000
449.758;  211.900;  763.000;  622.000
449.879; -132.100; -498.000; -396.000
450.001;  -94.600; -149.000;  -49.000
450.122;    5.600;  -95.000;  162.000
450.244;   28.100;   37.000;  364.000
450.365; -112.600; -495.000; -301.000
450.486;  -35.700;   80.000;  268.000
450.608;  144.800;  393.000;  326.000
450.729;  176.500;  578.000;  645.000
450.850;   92.600; -574.000; -466.000
450.972; 1693.500; -552.000; -389.000
451.093; 9980.900;  190.000;  588.000
451.214; 3750.300; -516.000; -337.000
451.336;  778.100;  773.000;  579.000
451.457;  133.600;  264.000;  393.000
451.578;  -29.700; -118.000;  -74.000
451.699; -209.600; -546.000; -540.000
451.821;  -71.300; -284.000;  -50.000
451.942;   56.500;  278.000;  285.000
452.063;  114.900;  228.000;  419.000
452.184; 1267.800;  -54.000;  -49.000
452.305; 2212.600;  103.000;  170.000
452.427;  236.100; -549.000; -301.000
452.548;   46.800;   23.000;   79.000
452.669;  -66.800; -257.000;  -89.000
452.790;  -44.100;    3.000;  -18.000
452.911;   84.800;  195.000;  259.000
453.032;  -78.400; -289.000;  -60.000
453.153;  -46.700;  -29.000;   81.000
453.274;  233.300;  737.000;  868.000
453.395;  -60.300;  -51.000;  175.000
453.516;  328.500; 1317.000; 1388.000
453.637;  -96.300; -205.000; -150.000
453.758;  -43.000;   15.000;   69.000
453.879; -221.700; -462.000; -250.000
454.000;  257.000; 1086.000;  948.000
454.121; -177.300; -554.000; -326.000
454.242; -185.200; -599.000; -383.000
454.362;  -23.500;  -99.000;  114.000
454.483;   12.700; -309.000; -229.000
454.604;  175.200;  512.000;  580.000
454.725; -209.700; -627.000; -555.000
454.846; -212.700; -474.000; -406.000
454.967;   13.300;  230.000;  539.000
455.087;  -29.800;  179.000;  153.000
455.208;  109.000;  554.000;  856.000
455.329;  -53.000;  -22.000;   82.000
455.450;  137.800;  473.000;  633.000
455.570; -118.000; -234.000; -211.000
455.691;  -18.800;  201.000;  407.000
455.812; -178.000; -270.000;  -92.000
455.932;  -46.100;  107.000;  -97.000
456.053;  -70.100;   36.000;   24.000
456.173; -139.800; -433.000; -355.000
456.294; -260.800; -476.000; -303.000
456.415;  -74.500;  -73.000;   70.000
456.535;   -8.400;  297.000;  273.000
456.656;  -38.300;  132.000;  240.000
456.776; -105.100;    3.000;  298.000
456.897;   78.500;  308.000;  513.000
457.017;  -69.500; -153.000;   -3.000
457.138; -155.600; -402.000; -249.000
457.258;    0.800;  263.000;  224.000
457.379;   59.600;  509.000;  521.000
457.499;    0.000;  443.000;  432.000
457.620; -181.500; -407.000; -231.000
457.740; -137.500; -132.000;  -11.000
457.860;  -46.900;   87.000;   44.000
457.981;  -42.100;  132.000;  124.000
458.101;  -94.200;  -89.000;   40.000
458.221;   49.200;  336.000;  402.000
458.342;  -15.400;   -4.000;  -37.000
458.462;  107.600;  617.000;  352.000
458.582;  -24.100; -302.000; -294.000
458.703;  105.500;  303.000;  154.000
458.823;    0.600;   22.000;  163.000
458.943;   76.300;  341.000;  467.000
459.063;   20.000; 1124.000;  192.000
459.183;  -10.200;  328.000;  313.000
459.304;   87.700;  315.000;  517.000
459.424;  -71.800; -246.000;  -89.000
459.544;  768.900;  388.000;  764.000
459.664; 1709.200;  499.000;  506.000
459.784;  641.900; 1004.000; 1175.000
459.904;  162.300;  867.000;  744.000
460.024;  199.500;  867.000;  684.000
460.144;   55.800;  449.000;  554.000
460.264;   53.500;  515.000;  327.000
460.385; -123.300; -145.000; -119.000
460.505;  169.100;  905.000;  858.000
460.625; -147.600;  -17.000;  -68.000
460.745;   31.500;  396.000;  541.000
460.864;  -15.300;  153.000;  469.000
460.984;  118.500;  499.000;  573.000
461.104;  335.600; 1656.000; 1775.000
461.224;  115.700;  657.000;  650.000
461.344;   -5.300;  431.000;  360.000
461.464;    6.600;  258.000;  513.000
461.584;  -15.000;  283.000;  466.000
461.704;  -61.500;   58.000;  108.000
461.824;  -88.400;  238.000;  259.000
461.943;  -10.400;  191.000;  130.000
462.063; -110.400;    2.000;  324.000
462.183;  118.300;  639.000;  717.000
462.303;  283.300; 1678.000; 1230.000
462.422;  146.300;  781.000;  840.000
462.542;  -39.400;  271.000;  391.000
462.662;  147.300;  353.000;  380.000
462.782;  528.900;  833.000;  572.000
462.901; 1044.200;  545.000;  717.000
463.021;  594.200; 1702.000; 1638.000
463.141;   56.900;  337.000;  770.000
463.260;   24.100;  614.000;  474.000
463.380;  111.000;  902.000;  884.000
463.499;  -17.600;  342.000;  332.000
463.619;    1.900;  581.000;  559.000
463.738;  305.500; 1644.000;  903.000
463.858;  127.200;  657.000;  811.000
463.978;  -11.800;  542.000;  396.000
464.097;  150.200;  921.000; 1114.000
464.217;  301.900; 1196.000; 1143.000
464.336;  312.400; 1068.000; 1130.000
464.455;    1.000;  328.000;  659.000
464.575;  141.800;  597.000;  602.000
464.694;  341.700; 1204.000; 1179.000
464.814;  327.300; 1190.000; 1138.000
464.933;  172.900; 1095.000; 1027.000
465.052;  263.700; 1412.000; 1054.000
465.172;  211.700;  922.000;  799.000
465.291;  329.800; 1376.000; 1320.000
465.410;   79.400;  462.000;  735.000
465.530;  233.400; 1355.000; 1310.000
465.649;  200.500; 1209.000; 1273.000
465.768;  349.400; 1673.000; 1508.000
465.888;  160.300;  941.000; 1174.000
466.007;  288.800; 1335.000; 1440.000
466.126;   42.700;  721.000;  641.000
466.245;  168.600; 1176.000; 1187.000
466.364;   88.900;  950.000; 1060.000
466.484;  191.000; 1024.000; 1213.000
466.603;  144.100; 1101.000; 1222.000
466.722;  283.300; 1490.000; 1769.000
466.841;  213.700; 1151.000; 1401.000
466.960;  157.200; 1069.000;  972.000
467.079;  337.400; 1971.000; 1786.000
467.198;  173.300; 1238.000; 1181.000
467.317;  248.300; 1768.000; 1162.000
467.436;  219.500; 1709.000; 1261.000
467.555;  343.700; 1796.000; 1746.000
467.674;  191.000; 1227.000; 1329.000
467.793;  159.800; 1376.000; 1374.000
467.912;  262.500; 1658.000; 1539.000
468.031;  361.500; 2038.000; 1930.000
468.150;  380.300; 1842.000; 1837.000
468.269;  450.100; 2313.000; 2090.000
468.388;  462.800; 2168.000; 2339.000
468.507;  609.700; 2884.000; 2903.000
468.626;  646.700; 2555.000; 2541.000
468.744;  368.500; 2018.000; 2174.000
468.863;  479.300; 2312.000; 2523.000
468.982;  247.100; 1503.000; 1555.000
469.101;  517.500; 2788.000; 2692.000
469.220;  349.300; 2333.000; 2176.000
469.338;  603.600; 2935.000; 3051.000
469.457;  458.500; 2719.000; 2545.000
469.576;  792.100; 3953.000; 3784.000
469.695;  527.700; 2877.000; 3066.000
469.813;  962.200; 4148.000; 4192.000
469.932;  857.500; 4255.000; 4485.000
470.051;  965.100; 4075.000; 4161.000
470.169; 1874.000; 4470.000; 4338.000
470.288; 3024.100; 4700.000; 4809.000
470.406; 1711.700; 5059.000; 5194.000
470.525; 1361.400; 6101.000; 5787.000
470.644; 1399.300; 6847.000; 6794.000
470.762; 1725.700; 8397.000; 7873.000
470.881; 1887.000; 8651.000; 8464.000
470.999; 2205.700; 9685.000; 9151.000
471.118; 2247.000;11174.000;10711.000

