
Integration time [ms]: 200.000
Averaging Nr. [scans]: 10
Smoothing Nr. [pixels]: 0
Data measured with spectrometer [name]: 2101012U2
Wave   ;Sample   ;Dark     ;Reference
[nm]   ;[counts] ;[counts] ;[counts] 

197.733;  126.300;  516.000;  404.000
197.879; -150.700; -610.000; -634.000
198.025;  -80.000; -475.000; -420.000
198.171; -148.600; -602.000; -612.000
198.317;  -50.100; -401.000; -316.000
198.463; -108.400; -655.000; -404.000
198.609;   64.000;  181.000; -137.000
198.755; -160.400; -644.000; -410.000
198.901; -132.100; -505.000; -424.000
199.047; -128.600; -615.000; -488.000
199.193;  -76.000; -230.000; -468.000
199.339;  -83.600; -222.000; -369.000
199.485;  108.300;  330.000;  271.000
199.631;   19.300;  227.000;  310.000
199.777;  -87.400; -466.000; -398.000
199.923; -146.800; -610.000; -424.000
200.069;    1.000; -141.000;  -58.000
200.215;  126.800;  128.000;  453.000
200.361;   85.200;  243.000;  477.000
200.507; -136.400; -600.000; -373.000
200.653;  -53.400; -371.000; -194.000
200.798;  -59.800; -215.000; -125.000
200.944;  -16.800; -146.000;  -41.000
201.090;   85.600;   61.000;  222.000
201.236;    3.300; -116.000; -158.000
201.382;  286.100;  874.000;  903.000
201.528;   33.600;  -58.000;  -48.000
201.674;  -43.600; -386.000; -293.000
201.819; -132.600; -540.000; -439.000
201.965; -140.500; -699.000; -447.000
202.111;  -39.100; -273.000; -226.000
202.257;  -89.200; -250.000; -238.000
202.402;   29.000;   13.000;  -36.000
202.548;  -37.100; -169.000; -116.000
202.694;  187.700;  410.000; -183.000
202.840; -130.500; -603.000; -531.000
202.985; -162.200; -681.000; -639.000
203.131; -199.500; -832.000; -666.000
203.277;  -40.900; -199.000; -262.000
203.423;  -75.400; -434.000; -520.000
203.568; -105.000; -462.000; -237.000
203.714; -131.800; -535.000; -542.000
203.860; -168.400; -682.000; -641.000
204.005;   40.600;  112.000;  167.000
204.151;  177.400;  561.000;  556.000
204.296;  -80.800; -354.000; -221.000
204.442; -133.700; -600.000; -547.000
204.588; -139.300; -592.000; -579.000
204.733;   53.000;  178.000;  168.000
204.879; -262.500;-1018.000; -822.000
205.025;   23.900;  -99.000;  126.000
205.170;   12.900;  -17.000;   94.000
205.316;  161.900;  438.000;  661.000
205.461; -150.800; -698.000; -554.000
205.607;  151.100;  609.000;  665.000
205.752; -163.000; -626.000; -551.000
205.898;  -88.500; -501.000; -391.000
206.043; -135.300; -578.000; -506.000
206.189;  -53.500; -243.000; -285.000
206.334;  177.400;  554.000;  606.000
206.480;  192.200;  409.000;  239.000
206.625; -146.200; -529.000; -552.000
206.771;  -55.300; -451.000; -373.000
206.916;  -65.700; -210.000; -537.000
207.062; -149.200; -545.000; -591.000
207.207; -122.400; -546.000; -443.000
207.353;  138.800;  185.000;  460.000
207.498;    9.400;  196.000;   85.000
207.643;  -96.900; -501.000; -370.000
207.789; -272.900;-1069.000; -910.000
207.934; -205.000; -665.000; -713.000
208.080;  -28.200; -154.000;   66.000
208.225;   10.200;  -22.000;  -57.000
208.370; -145.700; -727.000; -619.000
208.516; -132.200; -741.000; -487.000
208.661;  -59.900; -127.000;  -69.000
208.806;  -53.600; -165.000; -171.000
208.952; -254.300;-1044.000; -731.000
209.097;  171.900;  378.000;  349.000
209.242;  -58.800; -307.000; -382.000
209.387;   98.700;  392.000;  350.000
209.533; -116.700; -321.000; -350.000
209.678;  143.900;  472.000;  543.000
209.823;  -85.700; -408.000; -310.000
209.969; -171.900; -860.000; -757.000
210.114; -220.900; -907.000; -719.000
210.259; -249.000; -939.000; -889.000
210.404;  -30.900; -171.000;  103.000
210.549;   50.500;  108.000;    3.000
210.695;  -18.400;   -3.000;  -95.000
210.840;   72.100;   94.000;   67.000
210.985; -103.900; -484.000; -303.000
211.130;  164.200;  268.000;  406.000
211.275;   57.700;  207.000;  199.000
211.420; -102.900; -300.000; -289.000
211.566; -134.300; -536.000; -489.000
211.711;   83.800;  218.000;  157.000
211.856; -130.300; -545.000; -519.000
212.001;   27.500;  151.000;   44.000
212.146;   13.500;  153.000;   49.000
212.291;  -26.600; -210.000; -186.000
212.436;  -54.200; -280.000;   -6.000
212.581; -173.800; -685.000; -653.000
212.726; -141.800; -487.000; -538.000
212.871;  -89.300; -552.000; -217.000
213.016; -308.600;-1172.000;-1029.000
213.161;  127.000;  406.000;  291.000
213.306; -139.600; -435.000; -577.000
213.451; -187.300; -778.000; -689.000
213.596;  -96.600; -455.000; -347.000
213.741; -100.200; -448.000; -538.000
213.886; -151.600; -498.000; -517.000
214.031;  -38.000; -294.000; -124.000
214.176; -100.600; -408.000; -341.000
214.321;  -16.000; -296.000; -157.000
214.466;  -30.200; -163.000;  -43.000
214.611;    1.000;  -61.000;  -10.000
214.756; -218.100; -948.000; -858.000
214.901;  -68.300; -388.000; -226.000
215.046; -260.600; -797.000; -825.000
215.191;   56.800;  128.000;   35.000
215.336;  -21.100; -157.000;  -19.000
215.480; -117.700; -684.000; -505.000
215.625;   -7.500; -175.000;  -19.000
215.770; -160.500; -757.000; -662.000
215.915;   -5.200;   -5.000;  -97.000
216.060;    3.100; -113.000;  -21.000
216.205; -185.400; -731.000; -779.000
216.349; -109.800; -470.000; -533.000
216.494; -235.900; -939.000; -867.000
216.639; -241.500; -823.000; -888.000
216.784; -160.200; -577.000; -525.000
216.929;  150.000;  392.000;  281.000
217.073;  -27.300; -244.000;  -31.000
217.218;   48.200;   78.000;  -47.000
217.363; -180.800; -656.000; -618.000
217.507; -141.600; -623.000; -588.000
217.652; -254.200; -845.000; -874.000
217.797; -183.800; -708.000; -659.000
217.942; -215.100; -856.000; -720.000
218.086;  143.100;  608.000;  539.000
218.231;  -49.400; -174.000;  -26.000
218.376;  -67.100; -337.000; -229.000
218.520;    1.800;  -41.000;   96.000
218.665;  -53.100; -338.000; -204.000
218.810;  -64.900; -275.000; -233.000
218.954;   57.800;  201.000;   35.000
219.099; -238.100; -713.000; -963.000
219.243; -156.800; -589.000; -554.000
219.388;  -41.900; -264.000; -136.000
219.532;  -11.400; -116.000; -116.000
219.677; -141.400; -564.000; -521.000
219.822;    6.500;   33.000;   89.000
219.966;   25.800;   17.000;  -99.000
220.111;  -58.700; -328.000;  -40.000
220.255; -184.000; -797.000; -750.000
220.400;  -42.800; -180.000; -146.000
220.544; -150.800; -516.000; -450.000
220.689;  -94.900; -422.000; -451.000
220.833;  -28.600; -123.000;  -58.000
220.978;  -98.400; -393.000; -563.000
221.122;   55.900;  319.000;  307.000
221.267; -241.100; -906.000; -837.000
221.411; -134.000; -478.000; -394.000
221.555;  -10.400; -104.000;  -23.000
221.700;  -62.700; -329.000; -222.000
221.844;   97.900;  255.000;  272.000
221.989; -109.200; -328.000; -311.000
222.133;  -73.400; -289.000; -307.000
222.277;  -16.200;    5.000;   78.000
222.422;   51.900;  227.000;  113.000
222.566;  -56.300; -381.000; -214.000
222.711;  -93.500; -414.000; -479.000
222.855; -160.200; -643.000; -586.000
222.999; -162.200; -642.000; -717.000
223.144;  -50.600; -195.000; -194.000
223.288;  121.100;  423.000;  251.000
223.432;   25.500;  184.000;  230.000
223.576;   36.800;  152.000;  -21.000
223.721;  107.500;  364.000;  273.000
223.865; -114.700; -472.000; -475.000
224.009;  550.600; 1673.000; 1631.000
224.153; -148.000; -660.000; -671.000
224.298; -108.800; -531.000; -489.000
224.442;   -3.500;  -74.000;  -33.000
224.586;   -5.800; -169.000; -106.000
224.730; -183.300; -858.000; -670.000
224.875; -211.000; -739.000; -688.000
225.019;   52.300;  102.000;  188.000
225.163;  170.800;  208.000;  341.000
225.307;   53.100;   97.000;  -91.000
225.451;   97.700;  360.000;  481.000
225.595;   61.700;  264.000;  176.000
225.739;  -47.500; -170.000;  -94.000
225.884;   36.100;   86.000;    5.000
226.028; -176.700; -760.000; -626.000
226.172;  -45.500; -260.000; -273.000
226.316; -254.300; -941.000; -902.000
226.460; -150.900; -645.000; -493.000
226.604;  -81.500; -406.000; -400.000
226.748; -167.000; -836.000; -733.000
226.892;  -72.200; -227.000; -181.000
227.036;  -53.000; -537.000; -447.000
227.180; -113.000; -551.000; -375.000
227.324; -124.500; -561.000; -580.000
227.468; -198.700; -819.000; -717.000
227.612;   31.700;  242.000;  -28.000
227.756; -206.600; -845.000; -698.000
227.900;  103.100;  342.000;  441.000
228.044;  -83.100; -509.000; -290.000
228.188;  145.900;  448.000;  568.000
228.332; -184.500; -546.000; -472.000
228.476;  -38.100; -223.000; -149.000
228.620;  -54.000; -210.000; -150.000
228.764;  138.300;  431.000;  349.000
228.908;  -32.800; -155.000;   30.000
229.052; -118.200; -615.000; -528.000
229.195;    7.200; -172.000;   13.000
229.339;  -62.000; -235.000; -305.000
229.483;  -44.400;    5.000; -162.000
229.627;   13.400; -156.000;  139.000
229.771;  -59.000; -218.000; -294.000
229.915;   28.700;  230.000;   79.000
230.059; -174.100; -648.000; -663.000
230.202;  -56.900; -370.000; -317.000
230.346;  -20.400; -107.000;  107.000
230.490; -132.300; -489.000; -521.000
230.634; -199.300; -736.000; -553.000
230.777;  206.700;  478.000;  509.000
230.921; -109.700; -450.000; -359.000
231.065; -102.800; -246.000; -286.000
231.209;   80.600;  261.000;  265.000
231.352;   49.300;   54.000;   40.000
231.496;   56.400;  568.000;  188.000
231.640; -156.800; -693.000; -621.000
231.783;  172.900;  546.000;  525.000
231.927;  -83.200; -294.000; -365.000
232.071; -256.900; -962.000; -736.000
232.214; -206.600; -980.000; -764.000
232.358; -198.900; -683.000; -599.000
232.502;    6.000;  -19.000;    7.000
232.645; -281.000;-1090.000; -927.000
232.789;  -51.800; -257.000; -218.000
232.933;  -57.800; -407.000; -224.000
233.076; -260.100;-1038.000; -897.000
233.220; -215.500; -752.000; -777.000
233.363; -129.300; -669.000; -477.000
233.507;  143.100;  371.000;  129.000
233.650; -200.000; -764.000; -834.000
233.794;  129.600;  438.000;  461.000
233.938; -111.300; -530.000; -362.000
234.081;  -18.400;  -93.000;   31.000
234.225; -142.500; -631.000; -539.000
234.368; -211.300; -773.000; -723.000
234.512;  -53.000; -385.000; -299.000
234.655; -189.000; -582.000; -555.000
234.798; -113.800; -493.000; -466.000
234.942; -267.000; -884.000;-1002.000
235.085; -131.600; -651.000; -443.000
235.229; -131.500; -405.000; -410.000
235.372;  -85.500; -247.000; -191.000
235.516; -102.100; -397.000; -321.000
235.659;   59.700;   92.000;  121.000
235.802;   17.600;  -38.000;  -22.000
235.946;   63.700;  335.000;  215.000
236.089;  108.400;  126.000;  250.000
236.233;  131.300;  275.000;  298.000
236.376;  -82.700; -235.000; -378.000
236.519;  -87.900; -297.000; -319.000
236.663;  -44.200; -215.000; -117.000
236.806; -271.700;-1029.000; -999.000
236.949;  158.300;  543.000;  431.000
237.092;  156.600;  412.000;  391.000
237.236; -165.800; -589.000; -502.000
237.379;  136.900;  352.000;  428.000
237.522; -225.000; -879.000; -768.000
237.666;   -8.600; -271.000;   18.000
237.809; -250.100; -851.000; -823.000
237.952;  102.300;  469.000;  271.000
238.095; -127.800; -447.000; -442.000
238.238;  184.400;  688.000;  700.000
238.382;   30.700;  166.000;  103.000
238.525; -114.700; -598.000; -511.000
238.668; -265.500;-1060.000; -985.000
238.811; -159.600; -638.000; -643.000
238.954;  -88.500; -483.000; -334.000
239.097;  172.200;  617.000;  664.000
239.241;   77.300;  394.000;  326.000
239.384;  -66.500; -254.000; -214.000
239.527; -123.800; -424.000; -224.000
239.670; -276.900; -994.000;-1091.000
239.813; -202.900; -696.000; -658.000
239.956;  148.400;  579.000;  473.000
240.099; -222.000; -778.000; -725.000
240.242;  128.400;  428.000;  432.000
240.385;   98.900;  466.000;  450.000
240.528; -113.000; -706.000; -473.000
240.671;   43.600;  189.000;  134.000
240.814;  -69.600; -441.000; -158.000
240.957; -219.000; -767.000; -578.000
241.100; -177.300; -779.000; -755.000
241.243; -269.600;-1234.000; -893.000
241.386; -133.300; -508.000; -379.000
241.529; -177.600; -735.000; -547.000
241.672; -101.300; -566.000; -495.000
241.815; -218.500; -832.000; -808.000
241.958;  -63.300; -125.000; -182.000
242.101; -137.000; -545.000; -390.000
242.244;  -61.900; -270.000; -325.000
242.387;  -69.900; -304.000; -246.000
242.530;  151.000;  470.000;  134.000
242.673;  -66.600; -381.000; -309.000
242.815; -219.600; -925.000; -899.000
242.958; -157.000; -482.000; -381.000
243.101;   47.800;  132.000;  187.000
243.244; -177.300; -564.000; -521.000
243.387;  -72.900; -313.000; -316.000
243.530; -216.500; -657.000; -674.000
243.672;    0.000;   43.000;  -92.000
243.815;  -82.000; -355.000; -283.000
243.958;   56.500;   98.000;  -26.000
244.101;   17.600;   59.000;  -16.000
244.243;  -45.100;  -47.000;  101.000
244.386; -225.600; -761.000; -630.000
244.529;  -34.700; -132.000; -139.000
244.672; -315.300;-1154.000; -951.000
244.814; -195.900; -621.000; -794.000
244.957;  -83.000; -380.000; -304.000
245.100; -159.300; -489.000; -489.000
245.242; -117.300; -387.000; -374.000
245.385;   23.200;  -59.000;  -39.000
245.528; -229.800; -871.000; -705.000
245.670;  234.600;  612.000;  634.000
245.813; -149.500; -599.000; -547.000
245.956;  -36.700; -324.000; -275.000
246.098; -129.400; -508.000; -650.000
246.241;   40.200;  194.000;   48.000
246.383;   -7.700; -119.000;  -73.000
246.526; -159.300; -454.000; -525.000
246.669; -242.300; -889.000; -780.000
246.811;   49.500;  172.000;   -1.000
246.954; -101.300; -512.000; -426.000
247.096;  -29.000;  -84.000;   -6.000
247.239; -110.200; -482.000; -445.000
247.381; -152.700; -647.000; -488.000
247.524;  215.100;  645.000;  679.000
247.666;   16.900;   58.000;   11.000
247.809; -240.800; -887.000; -691.000
247.951;   16.300;  -75.000;  138.000
248.094;   47.700;  432.000;  308.000
248.236; -306.000;-1262.000;-1238.000
248.378;   35.800; -356.000;  -81.000
248.521;  -73.200; -334.000; -337.000
248.663;  -40.900; -236.000; -267.000
248.806;  -20.300; -300.000; -266.000
248.948; -191.500; -886.000; -763.000
249.090; -108.700; -428.000; -398.000
249.233;  -94.000; -344.000; -381.000
249.375; -117.500; -474.000; -451.000
249.518;  -22.000;  -83.000; -133.000
249.660;   27.500; -103.000;    3.000
249.802; -336.300;-1303.000;-1189.000
249.945; -145.000; -612.000; -540.000
250.087; -229.600; -834.000; -768.000
250.229; -103.900; -362.000; -480.000
250.371; -140.100; -494.000; -439.000
250.514;  -86.400; -310.000; -244.000
250.656; -104.700;   69.000;  102.000
250.798; -237.100; -849.000; -800.000
250.940; -128.300; -322.000; -322.000
251.083;  -34.000; -335.000; -111.000
251.225;  137.000;  338.000;  310.000
251.367;  -62.400; -274.000; -373.000
251.509;  -29.700; -265.000; -210.000
251.651; -181.100; -731.000; -671.000
251.794;  126.500;  538.000;  632.000
251.936; -194.700; -821.000; -747.000
252.078; -128.300; -540.000; -461.000
252.220;  -96.200; -645.000; -477.000
252.362;  124.700;  344.000;  462.000
252.504; -110.400; -677.000; -584.000
252.646; -221.900; -875.000; -722.000
252.788;  -22.700;   14.000; -128.000
252.931;  -70.000; -257.000; -253.000
253.073;  -77.400; -376.000; -317.000
253.215;   -1.300;  141.000;  122.000
253.357;   22.200;   82.000; -153.000
253.499;  -97.700; -374.000; -234.000
253.641; -161.800; -749.000; -594.000
253.783; -158.600; -609.000; -527.000
253.925; -161.000; -586.000; -591.000
254.067; -222.700; -744.000; -667.000
254.209;  -17.100; -391.000; -259.000
254.351; -247.700; -865.000; -883.000
254.493; -116.300; -441.000; -417.000
254.635; -193.300; -936.000; -818.000
254.777; -159.500; -752.000; -687.000
254.918; -117.500; -512.000; -430.000
255.060; -114.600; -551.000; -395.000
255.202;  -91.200; -473.000; -261.000
255.344; -128.900; -658.000; -455.000
255.486; -110.800; -471.000; -406.000
255.628; -183.100; -780.000; -781.000
255.770; -141.900; -676.000; -536.000
255.912; -104.800; -559.000; -468.000
256.053; -187.400; -730.000; -508.000
256.195;  346.300; 1008.000;  903.000
256.337; -184.000; -861.000; -595.000
256.479;  140.200;  532.000;  416.000
256.621;  -52.900; -394.000; -212.000
256.762; -167.500; -789.000; -742.000
256.904;  135.000;  485.000;  487.000
257.046;  -82.900; -381.000; -271.000
257.188;  -70.100; -351.000; -264.000
257.329; -110.700; -525.000; -464.000
257.471; -216.900; -939.000; -807.000
257.613; -113.600; -584.000; -498.000
257.755; -305.200;-1073.000; -982.000
257.896;  118.800;  286.000;  392.000
258.038;  -89.600; -403.000; -352.000
258.180;  -52.100; -354.000; -279.000
258.321; -117.300; -581.000; -457.000
258.463;   -4.400;  -71.000;  133.000
258.605; -167.000; -562.000; -570.000
258.746; -200.300; -886.000; -772.000
258.888; -273.000;-1026.000;-1020.000
259.029;   43.200;  121.000;   -8.000
259.171; -154.500; -614.000; -550.000
259.313;   19.600;  -49.000;  -47.000
259.454; -117.200; -536.000; -414.000
259.596; -101.000; -483.000; -390.000
259.737; -131.200; -590.000; -474.000
259.879;   87.300;  217.000;  311.000
260.020;  218.600;  901.000;  636.000
260.162;  -28.800; -146.000; -253.000
260.303; -200.000; -768.000; -687.000
260.445; -176.300; -609.000; -613.000
260.586;   48.200;  392.000;  157.000
260.728;  -87.700; -360.000; -248.000
260.869;  -96.900; -350.000; -343.000
261.011;  186.100;  706.000;  537.000
261.152; -119.200; -479.000; -319.000
261.293; -158.100; -576.000; -595.000
261.435;  -28.900; -219.000; -184.000
261.576;  -98.200; -455.000; -325.000
261.718;  144.700;  420.000;  470.000
261.859; -235.200; -940.000; -949.000
262.000; -248.800; -951.000;-1016.000
262.142;  -10.800;  -52.000;  -60.000
262.283; -217.400; -808.000; -691.000
262.424; -149.400; -666.000; -625.000
262.566; -294.000;-1161.000; -983.000
262.707; -233.300; -840.000; -830.000
262.848; -239.600; -769.000; -726.000
262.990;  -58.100; -362.000; -345.000
263.131;  176.200;  650.000;  681.000
263.272;    7.800;  -61.000;  -41.000
263.413; -167.500; -589.000; -561.000
263.555; -100.900; -669.000; -143.000
263.696; -149.000; -550.000; -641.000
263.837; -136.900; -449.000; -551.000
263.978;   15.200;   -5.000;  -77.000
264.119;  -68.300; -283.000; -264.000
264.261; -198.700; -847.000; -630.000
264.402;   -7.200;   33.000;   40.000
264.543; -147.800; -509.000; -524.000
264.684;   -3.600;   61.000;  -50.000
264.825; -153.000; -816.000; -538.000
264.966;   60.100;  -84.000;  -67.000
265.107; -224.800; -646.000; -670.000
265.248; -217.100; -825.000; -812.000
265.390;    4.600;  152.000;   -9.000
265.531;   -3.800; -238.000; -107.000
265.672; -146.800; -557.000; -630.000
265.813;  147.700;  563.000;  439.000
265.954; -258.400; -959.000; -940.000
266.095;    9.900; -372.000; -322.000
266.236; -166.900; -686.000; -548.000
266.377;  -53.200; -243.000; -297.000
266.518; -136.400; -619.000; -547.000
266.659;   55.500;  170.000;  268.000
266.800;   21.200;   83.000;   85.000
266.941; -165.200; -487.000; -478.000
267.082;   42.500;  354.000;   99.000
267.223;  -82.900; -344.000; -273.000
267.364; -240.000; -892.000; -686.000
267.504;   -3.600;    3.000;  135.000
267.645;    8.100;  160.000;   67.000
267.786;  -41.300; -147.000;  -86.000
267.927; -106.400; -473.000; -379.000
268.068;  -31.300; -186.000;  -61.000
268.209;  -82.000; -175.000; -413.000
268.350; -106.500; -388.000; -532.000
268.490; -180.100; -648.000; -521.000
268.631;   86.400;  127.000;  225.000
268.772; -205.500; -874.000; -647.000
268.913;  -78.500; -328.000; -476.000
269.054;  -15.200; -117.000;   12.000
269.194;  -75.500; -418.000; -402.000
269.335; -292.200;-1137.000;-1074.000
269.476;  -17.400;   33.000;  -35.000
269.617;  -93.300; -347.000; -392.000
269.757; -168.600; -713.000; -646.000
269.898; -173.200; -856.000; -613.000
270.039; -113.800; -415.000; -405.000
270.180; -253.800; -952.000; -816.000
270.320;  -22.700; -190.000; -250.000
270.461;  -71.200; -277.000; -249.000
270.602;   -3.300; -186.000; -156.000
270.742; -229.000; -868.000; -943.000
270.883; -126.500; -442.000; -390.000
271.023;  -67.400; -358.000; -357.000
271.164; -152.000; -607.000; -528.000
271.305; -202.700; -666.000; -654.000
271.445; -136.700; -722.000; -683.000
271.586; -139.600; -462.000; -283.000
271.726;  -72.400; -397.000; -322.000
271.867; -126.400; -594.000; -534.000
272.008;  227.400; -473.000; -285.000
272.148;  221.800;  462.000;  468.000
272.289;   13.000; -113.000; -181.000
272.429;   20.500;   19.000;  185.000
272.570; -148.800; -633.000; -737.000
272.710; -161.800; -825.000; -775.000
272.851;  -16.000;  113.000; -130.000
272.991; -334.600;-1173.000;-1077.000
273.131; -106.300; -419.000; -459.000
273.272; -184.200; -683.000; -723.000
273.412;   -9.100; -143.000;  -31.000
273.553;  -92.000; -488.000; -507.000
273.693;  307.500;  913.000;  858.000
273.834; -187.500; -894.000; -692.000
273.974; -153.100; -664.000; -615.000
274.114; -166.500; -772.000; -560.000
274.255;  176.400;  414.000;  373.000
274.395;   14.200; -180.000; -125.000
274.535;   99.300;  199.000;  350.000
274.676;   54.400;  225.000;   94.000
274.816;   27.300;  110.000;   34.000
274.956; -170.700; -624.000; -690.000
275.097; -169.800;-1014.000; -922.000
275.237; -234.400; -913.000; -803.000
275.377; -162.200; -778.000; -689.000
275.517; -292.900; -878.000; -937.000
275.658; -137.600; -590.000; -555.000
275.798; -138.400; -606.000; -413.000
275.938;   94.900;  215.000;  323.000
276.078; -146.400; -626.000; -395.000
276.218;   13.500;   99.000;  104.000
276.359; -222.400;-1026.000;-1024.000
276.499; -125.100; -605.000; -446.000
276.639;  -76.900; -305.000; -151.000
276.779;  -67.500; -475.000; -357.000
276.919; -179.000; -783.000; -624.000
277.059;  -10.100; -261.000; -212.000
277.199; -107.800; -357.000; -259.000
277.340;  119.100;  287.000;  175.000
277.480; -192.500; -840.000; -693.000
277.620;   79.200;  192.000;   16.000
277.760; -373.400;-1533.000;-1294.000
277.900;   48.700;  113.000;   33.000
278.040;   76.200;  137.000;  159.000
278.180;   97.600;  270.000;  170.000
278.320;   52.900;   21.000;   56.000
278.460; -104.500; -443.000; -469.000
278.600; -156.100; -708.000; -598.000
278.740;  148.800;  448.000;  224.000
278.880; -148.200; -768.000; -791.000
279.020;   15.200; -194.000; -144.000
279.160; -147.600; -672.000; -595.000
279.300; -232.700; -926.000; -873.000
279.440; -169.300; -709.000; -622.000
279.579; -134.700;-1014.000; -929.000
279.719; -112.800; -410.000; -394.000
279.859;  130.500;   -4.000;   41.000
279.999;   34.900; -208.000;  101.000
280.139;  -20.000; -435.000; -387.000
280.279; -131.500; -708.000; -745.000
280.419;  -21.300; -229.000; -147.000
280.559;  -29.200; -259.000; -180.000
280.698; -145.200; -790.000; -639.000
280.838; -201.500; -778.000; -800.000
280.978; -177.000; -846.000; -790.000
281.118; -217.200; -811.000; -704.000
281.257;   57.000;   24.000;    6.000
281.397; -270.600;-1094.000; -960.000
281.537; -157.900; -599.000; -712.000
281.677;  -15.300; -150.000; -101.000
281.816; -169.100; -700.000; -630.000
281.956;  -46.100; -193.000; -257.000
282.096; -113.500; -539.000; -396.000
282.235; -183.000; -672.000; -638.000
282.375;  -16.300; -243.000;  -98.000
282.515; -193.300; -715.000; -707.000
282.654;   91.100;   29.000;  106.000
282.794;  104.100;  388.000;  244.000
282.934;  -77.800; -530.000; -491.000
283.073; -253.000;-1030.000; -857.000
283.213;  -88.000; -460.000; -467.000
283.353;  -60.800; -408.000; -349.000
283.492;  -47.600; -264.000; -296.000
283.632;  -80.400; -254.000; -168.000
283.771; -185.100; -859.000; -730.000
283.911;  -90.000; -369.000; -260.000
284.050; -205.800; -794.000; -748.000
284.190; -306.200;-1229.000;-1096.000
284.329; -282.500;-1055.000; -964.000
284.469; -152.200; -516.000; -591.000
284.608;  -88.900; -559.000; -598.000
284.748; -160.500; -614.000; -570.000
284.887;   14.100;  -87.000;  -20.000
285.027; -226.200; -844.000; -892.000
285.166;  -33.600; -192.000; -249.000
285.306;   17.100; -116.000;  -33.000
285.445;  -53.000; -229.000; -343.000
285.584; -160.200; -630.000; -494.000
285.724;  -64.100; -282.000; -322.000
285.863; -191.000; -857.000; -507.000
286.002;  -84.700; -366.000; -276.000
286.142; -202.300; -715.000; -622.000
286.281; -108.300; -525.000; -493.000
286.420; -131.400; -554.000; -417.000
286.560;  251.600;  653.000;  623.000
286.699; -254.800; -958.000; -912.000
286.838; -154.500; -590.000; -591.000
286.978; -184.400; -533.000; -537.000
287.117; -269.200;-1085.000; -950.000
287.256;  -45.500; -228.000; -211.000
287.395;  -98.100; -197.000; -378.000
287.535;  -56.200; -370.000; -298.000
287.674; -130.900; -509.000; -484.000
287.813;  150.200;  661.000;  533.000
287.952; -262.500;-1010.000; -871.000
288.091; -267.100;-1049.000; -915.000
288.231;   53.900;   13.000;   15.000
288.370; -309.400;-1217.000;-1200.000
288.509; -149.800; -728.000; -645.000
288.648; -184.800; -770.000; -548.000
288.787;  -24.600; -243.000;  -87.000
288.926; -108.000; -454.000; -475.000
289.065;  253.300;  859.000;  672.000
289.204; -115.600; -377.000; -217.000
289.344; -165.700; -791.000; -690.000
289.483;   63.900;  416.000;  304.000
289.622;  -43.500; -291.000; -149.000
289.761;    6.100; -309.000; -166.000
289.900; -218.300; -785.000; -626.000
290.039;  -16.400;  -12.000;  -95.000
290.178;  -47.400; -274.000; -180.000
290.317; -128.800; -618.000; -479.000
290.456; -119.700; -463.000; -451.000
290.595; -276.200; -961.000; -833.000
290.734; -268.400; -904.000; -891.000
290.873; -110.700; -456.000; -420.000
291.011; -165.500; -833.000; -843.000
291.150; -210.400; -770.000; -682.000
291.289;  -15.300; -343.000; -110.000
291.428; -179.700; -599.000; -480.000
291.567; -101.300; -370.000; -442.000
291.706;   15.700;  109.000;  154.000
291.845; -139.000; -597.000; -505.000
291.984; -310.800;-1234.000;-1061.000
292.122;  211.700;  602.000;  582.000
292.261;  108.600;  620.000;  463.000
292.400;   44.100; -144.000;  211.000
292.539; -246.600; -959.000; -813.000
292.678;  -46.700; -325.000; -300.000
292.816; -309.800;-1136.000; -965.000
292.955; -175.000; -844.000; -684.000
293.094;  -32.500; -173.000; -337.000
293.233; -109.500; -556.000; -400.000
293.371;  -31.500; -225.000;  -84.000
293.510; -186.300; -866.000; -780.000
293.649; -253.600; -959.000; -924.000
293.787; -176.800;-1083.000;-1012.000
293.926;    0.200; -113.000;  -32.000
294.065;  -86.100; -379.000; -290.000
294.203;  107.200;  298.000;  406.000
294.342;   58.200;   74.000;  156.000
294.481;12086.200;51180.000; -836.000
294.619;  -50.700; -425.000; -582.000
294.758; -279.200;-1230.000;-1137.000
294.896;   78.300; -125.000;    5.000
295.035; -242.900;-1040.000;-1006.000
295.174; -254.200;-1082.000; -954.000
295.312;  -82.400; -323.000; -203.000
295.451;  -42.500; -307.000; -428.000
295.589;  -91.500; -389.000; -518.000
295.728;    6.100; -292.000; -165.000
295.866;   26.900;  -36.000;  -51.000
296.005; -114.000; -584.000; -341.000
296.143; -157.200; -558.000; -596.000
296.282; -215.300; -957.000; -881.000
296.420; -135.700; -657.000; -557.000
296.559; -144.400; -892.000; -633.000
296.697;  -57.700; -847.000; -665.000
296.835;  -16.500;-1141.000;-1002.000
296.974;  114.500;  -23.000;   39.000
297.112;  -17.300; -443.000; -504.000
297.251; -150.200; -815.000; -755.000
297.389;  109.000; -576.000; -438.000
297.527;   52.100; -145.000;  -83.000
297.666; -101.100; -486.000; -438.000
297.804; -111.400; -404.000; -264.000
297.942;   11.100; -136.000; -161.000
298.081;   12.400; -183.000;   63.000
298.219;   88.000;  -17.000;  -19.000
298.357;   78.100; -144.000;  -71.000
298.495;  -23.800; -810.000; -812.000
298.634;  100.500;  245.000;  219.000
298.772;   84.500; -220.000; -338.000
298.910;  -47.200; -309.000; -182.000
299.048;   -4.300; -130.000; -153.000
299.187;  -45.300; -350.000; -250.000
299.325;   27.800;   52.000;  122.000
299.463;   66.900; -389.000; -299.000
299.601;  131.200; -327.000; -271.000
299.739; -215.400; -908.000; -883.000
299.877; -117.000; -791.000; -703.000
300.016; -151.700;-1095.000; -935.000
300.154;  258.600;  -19.000; -161.000
300.292;   67.900; -428.000; -348.000
300.430;   35.500; -408.000; -291.000
300.568; -201.400; -940.000; -874.000
300.706;  -81.700; -366.000; -469.000
300.844; -190.200;-1108.000; -979.000
300.982;  206.600;  246.000;  282.000
301.120; -227.700; -965.000; -866.000
301.258; -160.400; -812.000; -705.000
301.396;   75.400;  104.000;  -41.000
301.534;  106.800; -218.000; -293.000
301.672;  -54.900; -664.000; -521.000
301.810;   14.400; -613.000; -545.000
301.948;  191.000;   53.000;  149.000
302.086;  790.000; -250.000;  -32.000
302.224; 1220.200; -610.000; -585.000
302.362;   22.600; -558.000; -622.000
302.500; -110.800; -923.000; -893.000
302.638;  179.700;  128.000;  245.000
302.776;   -5.600; -352.000; -408.000
302.913;  125.500;  447.000;  236.000
303.051;  -23.300;  -86.000;  -23.000
303.189;  106.200;   90.000;  118.000
303.327;  -40.300; -341.000; -256.000
303.465; -142.000; -832.000; -588.000
303.603; -183.600; -805.000; -604.000
303.740;  204.000;  417.000;  241.000
303.878;   -5.500; -800.000; -759.000
304.016; -162.800; -915.000; -790.000
304.154; -255.200;-1123.000;-1152.000
304.291;  -82.400; -505.000; -554.000
304.429;   32.800;  102.000;   74.000
304.567; -243.900; -908.000; -893.000
304.705; -101.100; -408.000; -515.000
304.842;   95.400; -616.000; -540.000
304.980;  118.400;  215.000;   35.000
305.118;   30.300; -367.000; -365.000
305.255; -182.600; -945.000; -927.000
305.393;  144.000;  178.000;  239.000
305.531; -218.600;-1173.000; -956.000
305.668; -152.300; -663.000; -582.000
305.806;  121.000; -358.000; -439.000
305.943;  115.700; -629.000; -637.000
306.081;   59.000; -378.000; -267.000
306.219; -206.200; -863.000; -748.000
306.356;   45.400;  158.000;   27.000
306.494;  265.100;  981.000;  761.000
306.631;   42.000;  -11.000;  -55.000
306.769;    3.700; -613.000; -485.000
306.906;  -14.100; -284.000; -258.000
307.044;  -87.800; -473.000; -488.000
307.181;  -91.200; -410.000; -332.000
307.319;   61.700;  112.000;   87.000
307.456; -297.600;-1191.000;-1153.000
307.594; -205.100; -980.000; -727.000
307.731;   19.700; -371.000; -164.000
307.868;   51.000;  -15.000;   20.000
308.006; -235.500; -961.000; -847.000
308.143;  -82.400; -618.000; -330.000
308.281;  309.800;  -37.000; -254.000
308.418;   -6.600; -748.000; -640.000
308.555; -114.700; -400.000; -250.000
308.693; -138.300; -577.000; -573.000
308.830; -160.800; -712.000; -657.000
308.967;    7.700; -215.000;  -95.000
309.105;  -51.700; -507.000; -396.000
309.242;   99.800; -468.000; -367.000
309.379;  595.900; -577.000; -655.000
309.517; -120.500; -936.000; -948.000
309.654; -176.400; -910.000; -734.000
309.791; -120.900; -662.000; -580.000
309.928; -216.600; -977.000; -914.000
310.065;  355.600;  819.000;  697.000
310.203;  -50.100; -825.000; -850.000
310.340;  -31.400; -465.000; -321.000
310.477; -133.800; -412.000; -516.000
310.614; -111.900; -383.000; -473.000
310.751; -131.400; -427.000; -518.000
310.889;    8.400;    1.000;   11.000
311.026; -298.200;-1161.000; -939.000
311.163;  -72.300; -386.000; -380.000
311.300; -121.400; -512.000; -479.000
311.437; -127.300; -658.000; -619.000
311.574; -295.700;-1226.000; -985.000
311.711;  -95.700; -595.000; -433.000
311.848;  -38.200; -380.000; -388.000
311.985;   46.200;  270.000;   93.000
312.122; -201.200; -932.000; -762.000
312.259; -200.800; -941.000; -994.000
312.396; -150.000; -508.000; -551.000
312.533; -142.800; -812.000; -790.000
312.670; -259.400;-1070.000; -898.000
312.807;  -42.000; -352.000; -367.000
312.944; -118.500; -513.000; -611.000
313.081;  -29.000; -150.000; -415.000
313.218; -190.000;-1111.000; -867.000
313.355;   25.000; -531.000; -449.000
313.492;   11.600; -455.000; -292.000
313.629;  255.600;  815.000;  735.000
313.766; -289.800;-1176.000;-1008.000
313.902;   20.600; -186.000;   21.000
314.039;  -49.900; -372.000; -289.000
314.176;   98.100;  286.000;  192.000
314.313; -105.400; -569.000; -473.000
314.450; -147.700; -788.000; -684.000
314.587; -112.000; -468.000; -480.000
314.723;   33.900;  -78.000;  130.000
314.860;   47.300;  318.000;  332.000
314.997;   96.500;  223.000;  142.000
315.134;  -74.300; -385.000; -368.000
315.270;  -58.200; -480.000; -496.000
315.407; -244.600;-1094.000; -967.000
315.544; -128.600; -657.000; -538.000
315.681; -114.600; -681.000; -565.000
315.817;   43.800; -133.000; -176.000
315.954;   -9.700; -613.000; -392.000
316.091; -266.800;-1045.000;-1023.000
316.227;  -11.200;  -71.000; -179.000
316.364;   45.700;   23.000;    6.000
316.500;  -30.400; -113.000; -300.000
316.637;  -58.600; -181.000; -302.000
316.774; -135.800; -625.000; -358.000
316.910; -162.600; -598.000; -629.000
317.047; -117.900; -487.000; -351.000
317.183;  -71.900; -435.000; -566.000
317.320;  -16.400; -367.000; -321.000
317.456; -120.000; -733.000; -805.000
317.593; -175.500; -598.000; -641.000
317.729;   36.500;  168.000;  -67.000
317.866; -366.800;-1434.000;-1285.000
318.002; -143.900; -708.000; -948.000
318.139; -218.600; -883.000; -867.000
318.275; -225.700;-1003.000; -738.000
318.412;  -76.500; -517.000; -336.000
318.548;  -92.900; -751.000; -720.000
318.685; -182.200; -985.000; -888.000
318.821; -172.200; -762.000; -735.000
318.957;   -4.300;   34.000;  -23.000
319.094;  102.200;  297.000;  154.000
319.230; -108.200; -756.000; -742.000
319.367;  167.800; -471.000; -520.000
319.503;   24.600; -538.000; -436.000
319.639; -177.600; -877.000; -793.000
319.775;  -93.700; -750.000; -685.000
319.912;  -80.600; -424.000; -519.000
320.048; -219.500;-1184.000;-1184.000
320.184;  166.700;   59.000;   70.000
320.321; -102.800; -497.000; -467.000
320.457;  146.500;  475.000;  662.000
320.593; -107.000; -375.000; -382.000
320.729; -175.900; -732.000; -734.000
320.866; -127.600; -577.000; -635.000
321.002; -145.000; -759.000; -809.000
321.138;    4.500; -135.000; -211.000
321.274;  126.700; -148.000; -115.000
321.410;  -49.800; -585.000; -353.000
321.546; -105.700;-1011.000; -911.000
321.683;  116.500;  400.000;  185.000
321.819;   18.100;  -48.000; -117.000
321.955; -228.800; -743.000; -722.000
322.091; -100.600; -585.000; -540.000
322.227;   -1.400; -382.000; -202.000
322.363;  -19.900; -320.000; -215.000
322.499; -111.600; -343.000; -331.000
322.635;  310.200;  636.000;  443.000
322.771;   33.500; -139.000;   12.000
322.907;  165.000;  129.000;  327.000
323.043;  -28.300; -115.000; -206.000
323.179;  -52.600; -394.000; -363.000
323.315;  -26.000; -401.000; -371.000
323.451;  145.200; -328.000; -236.000
323.587;   92.900;  -60.000;  -77.000
323.723;   -9.300; -682.000; -601.000
323.859;  -18.100; -258.000;  -76.000
323.995;  -62.400; -467.000; -409.000
324.131; -204.000; -967.000; -892.000
324.267;  -42.300; -254.000; -276.000
324.402; -234.800; -960.000; -983.000
324.538;  -19.200; -279.000; -104.000
324.674;   72.400;  164.000;   77.000
324.810;  236.100;  226.000;  308.000
324.946;   15.900; -810.000; -658.000
325.082; -110.900; -568.000; -475.000
325.217;  -18.900;  -62.000;   16.000
325.353; -181.700; -764.000; -659.000
325.489; -142.000; -540.000; -506.000
325.625; -122.200; -579.000; -525.000
325.760;  148.000;  517.000;  376.000
325.896;  -34.800; -515.000; -702.000
326.032;  -86.100; -403.000; -352.000
326.168;  -82.500; -462.000; -369.000
326.303;  -95.800; -352.000; -461.000
326.439;   -1.500; -336.000; -276.000
326.575;   -0.900; -190.000;  -29.000
326.710;    7.900; -156.000;  -30.000
326.846;   10.100;  146.000;  103.000
326.982; -164.500; -530.000; -548.000
327.117; -141.900; -481.000; -442.000
327.253; -144.000; -745.000; -742.000
327.388; -299.800;-1137.000;-1153.000
327.524;  -95.000; -811.000; -578.000
327.659;    1.100;  -58.000;  -22.000
327.795;    1.900;   69.000;   45.000
327.931; -157.900; -723.000; -499.000
328.066;  -26.500; -417.000; -276.000
328.202;    1.200;   12.000; -129.000
328.337;  248.400;  957.000;  713.000
328.473;    9.900;  -12.000;  -74.000
328.608;  -48.100; -256.000; -267.000
328.743; -171.900; -799.000; -664.000
328.879;   66.400;  214.000;  114.000
329.014;  -89.700; -102.000; -122.000
329.150; -121.700; -358.000; -483.000
329.285; -128.400; -465.000; -466.000
329.421;  -72.400; -548.000; -246.000
329.556;    9.800;  -36.000;   85.000
329.691; -158.700; -633.000; -615.000
329.827; -134.400; -626.000; -480.000
329.962;  -53.600;  131.000; -301.000
330.097; -177.000; -673.000; -585.000
330.233;  -47.100; -410.000; -223.000
330.368; -218.300; -839.000; -628.000
330.503;    2.300;    3.000;   98.000
330.638;   26.700;  -93.000; -125.000
330.774; -132.500; -609.000; -530.000
330.909;  -29.500; -434.000; -244.000
331.044; -200.000; -714.000; -708.000
331.179; -349.500;-1217.000;-1109.000
331.315;   51.100;   77.000;   20.000
331.450;   45.400;  157.000;  285.000
331.585; -167.100; -805.000; -706.000
331.720; -129.500; -510.000; -460.000
331.855;   28.700;  -35.000; -102.000
331.990;  425.400;   62.000;  138.000
332.126;  263.600; -110.000;   71.000
332.261;  -56.400; -379.000; -265.000
332.396;    5.300; -135.000; -242.000
332.531; -209.700;-1074.000;-1031.000
332.666;   78.100; -519.000; -363.000
332.801; -179.800; -726.000; -807.000
332.936;  -15.600; -192.000; -122.000
333.071; -277.900; -870.000; -817.000
333.206;   75.100;  307.000;  379.000
333.341;   67.700;  344.000;  418.000
333.476; -153.300; -627.000; -623.000
333.611;  -42.800; -251.000; -173.000
333.746;  -70.600; -381.000; -464.000
333.881; -213.400; -973.000; -935.000
334.016; -218.900; -936.000; -917.000
334.151; -214.000; -746.000; -702.000
334.286;   78.200;  152.000;  186.000
334.421;   21.800; -125.000; -178.000
334.556; -130.200; -611.000; -567.000
334.690; -141.200; -631.000; -577.000
334.825;  140.300;  381.000;   83.000
334.960; -102.300; -285.000; -413.000
335.095;   43.900;  135.000;  -91.000
335.230; -188.500; -722.000; -738.000
335.365; -252.900;-1084.000; -990.000
335.499; -273.300;-1108.000;-1037.000
335.634;   67.300;    9.000;  534.000
335.769; -196.100; -755.000; -720.000
335.904; -131.500; -603.000; -561.000
336.038; -116.400; -735.000; -657.000
336.173; -249.100;-1206.000;-1194.000
336.308;   16.500; -116.000; -189.000
336.443;   22.400; -544.000; -634.000
336.577; -179.900; -936.000; -787.000
336.712;  102.100;   -4.000;  -12.000
336.847;  -99.700; -724.000; -607.000
336.981;   41.700; -272.000; -208.000
337.116;  426.200;  615.000;  501.000
337.250;  149.200; -434.000; -421.000
337.385;  393.100; -297.000; -208.000
337.520;  133.000; -632.000; -603.000
337.654;  -50.200; -215.000; -126.000
337.789; -229.500; -989.000; -933.000
337.923;  -24.300; -104.000; -205.000
338.058; -159.300; -673.000; -738.000
338.192;  -90.000; -611.000; -488.000
338.327;  -23.000;  -18.000; -155.000
338.461; -132.200; -299.000; -469.000
338.596; -176.200; -780.000; -638.000
338.730; -152.000; -767.000; -803.000
338.865;  151.800;  -46.000; -140.000
338.999; -113.300; -846.000; -702.000
339.134;  -43.800; -634.000; -536.000
339.268;  -33.200; -741.000; -603.000
339.403;  494.400; -740.000; -775.000
339.537;  167.000; -894.000; -820.000
339.671; -189.400; -829.000; -813.000
339.806; -110.700; -556.000; -512.000
339.940;   26.800; -261.000; -235.000
340.074; -170.100; -685.000; -510.000
340.209;  -66.300; -351.000; -230.000
340.343; -167.200; -517.000; -573.000
340.477;  342.800;  998.000; 1036.000
340.612;  -92.000;-1033.000; -900.000
340.746;  239.600; -199.000; -243.000
340.880; -186.100; -924.000; -785.000
341.014;   -0.700;  -45.000; -154.000
341.149; -229.900; -756.000; -718.000
341.283; -155.300; -839.000; -754.000
341.417; -186.900;-1124.000; -938.000
341.551;   88.400; -768.000; -708.000
341.685;  -60.600; -633.000; -611.000
341.820; -104.000; -562.000; -493.000
341.954;  -76.100; -218.000; -349.000
342.088; -274.000;-1102.000;-1019.000
342.222;   98.000;  565.000;  618.000
342.356; -118.700; -395.000; -335.000
342.490; -213.200; -880.000; -841.000
342.624;  -65.000; -339.000; -242.000
342.758;  -11.300; -364.000; -312.000
342.892; -113.400; -710.000; -585.000
343.026;  -75.900;  -58.000; -116.000
343.160; -105.000; -426.000; -376.000
343.294; -140.000; -474.000; -337.000
343.428;  -63.500; -488.000; -448.000
343.562;  -21.700; -172.000;  -23.000
343.696;  -25.200; -385.000; -314.000
343.830;  -52.700; -362.000; -356.000
343.964;   55.500; -231.000; -168.000
344.098; 1180.700;  199.000;   70.000
344.232;  989.800; -266.000; -127.000
344.366;  123.400; -567.000; -453.000
344.500;   50.100; -665.000; -744.000
344.634;   42.700; -324.000; -164.000
344.768;  -22.300; -531.000; -341.000
344.902;   94.100;  278.000;  256.000
345.035; -137.200; -556.000; -496.000
345.169; -225.400; -933.000; -656.000
345.303;  -45.800; -308.000; -482.000
345.437; -135.000; -826.000; -717.000
345.571; -141.400; -675.000; -594.000
345.704;  -92.200; -309.000; -532.000
345.838;  -13.800; -331.000; -284.000
345.972;  -59.100; -543.000; -495.000
346.106;  285.100; -179.000; -190.000
346.239;  614.800; -312.000; -243.000
346.373;    6.000; -343.000; -302.000
346.507; -290.700; -950.000; -962.000
346.640;  217.400;  -30.000;   13.000
346.774; -100.200; -650.000; -797.000
346.908;   -8.200; -138.000;  -11.000
347.041; -137.500; -646.000; -593.000
347.175;   70.500;  259.000;   27.000
347.309; -138.700; -698.000; -628.000
347.442; -191.000; -883.000; -732.000
347.576;  417.100;  670.000;  668.000
347.709;  273.300; -123.000;  -52.000
347.843; -169.200; -933.000; -825.000
347.976;   65.900;  235.000;  294.000
348.110; -327.300;-1268.000;-1186.000
348.243; -169.500; -679.000; -772.000
348.377;   49.800;  -26.000;   60.000
348.510;  158.800;  403.000;  540.000
348.644;  -53.200;  -37.000; -159.000
348.777;   40.600;  180.000;  191.000
348.911;  -39.500; -142.000; -112.000
349.044;  282.300;  471.000;  448.000
349.178;  102.400;-1069.000;-1006.000
349.311;  232.300;  141.000;  255.000
349.444;  -20.200; -927.000; -813.000
349.578;  -14.000; -347.000; -200.000
349.711; -204.200; -959.000; -862.000
349.845;   -5.900; -661.000; -591.000
349.978; -301.700;-1224.000;-1137.000
350.111; -146.300; -546.000; -612.000
350.244; -146.500; -596.000; -700.000
350.378;  -18.900; -392.000; -393.000
350.511; -105.000; -393.000; -426.000
350.644; -182.400; -808.000; -806.000
350.778;   27.600;  168.000;  104.000
350.911;   41.200;  134.000;  140.000
351.044; -153.800; -685.000; -615.000
351.177;  -29.700; -321.000; -281.000
351.310;  -18.300;    3.000; -131.000
351.444; -141.900; -888.000; -788.000
351.577;  194.900;  140.000;   90.000
351.710;  201.600;  593.000;  417.000
351.843;  -53.300; -165.000;  -77.000
351.976;   48.100;  149.000;  -79.000
352.109; -177.600; -621.000; -612.000
352.242;  -47.600; -464.000; -419.000
352.376; -145.300; -580.000; -636.000
352.509;  175.400; -437.000; -356.000
352.642;  -72.900; -654.000; -604.000
352.775;   93.500; -141.000;  -98.000
352.908; -193.900; -933.000; -904.000
353.041; -191.500; -814.000; -824.000
353.174; -111.000; -551.000; -424.000
353.307; -171.200; -753.000; -764.000
353.440;  191.900;  541.000;  453.000
353.573; -196.900; -957.000;-1008.000
353.706;  -67.900; -384.000; -558.000
353.839;  -24.400; -264.000; -220.000
353.971; -159.600; -657.000; -512.000
354.104; -153.100; -896.000; -835.000
354.237;  -54.500; -627.000; -662.000
354.370; -152.100; -846.000; -879.000
354.503; -344.000;-1231.000;-1308.000
354.636;  -78.700; -529.000; -348.000
354.769; -209.400; -937.000; -860.000
354.902;  -14.000; -230.000; -139.000
355.034;  -21.000; -164.000; -220.000
355.167;  -29.900; -262.000; -162.000
355.300; -170.000;-1061.000; -880.000
355.433; 1563.200;  -71.000;  -14.000
355.565; 2326.300; -402.000; -384.000
355.698;  614.000; -356.000; -296.000
355.831;  -77.300; -882.000; -801.000
355.964;  122.400; -285.000; -170.000
356.096; -170.700; -856.000; -843.000
356.229;   -3.300; -523.000; -530.000
356.362;  506.000; -373.000; -266.000
356.494;  961.100; -229.000; -162.000
356.627;  676.700;  269.000;  377.000
356.760; 1012.900;  120.000;   53.000
356.892; 1460.100; -286.000; -601.000
357.025;  897.600;  403.000;  389.000
357.157;  797.700; -167.000; -179.000
357.290; 1054.700; -856.000; -713.000
357.423;  257.900; -667.000; -556.000
357.555;  150.000; -217.000; -228.000
357.688;  158.300; -483.000; -364.000
357.820;  513.200; -870.000; -877.000
357.953; 4928.500; -563.000; -589.000
358.085;  935.700; -632.000; -612.000
358.218; 1262.200;-1131.000; -932.000
358.350;  286.200;  -58.000;  312.000
358.483; -279.200;-1300.000;-1187.000
358.615; -115.000;-1182.000;-1078.000
358.747; -194.300;-1187.000;-1058.000
358.880;    6.700; -810.000; -744.000
359.012;    5.100; -376.000; -202.000
359.145;  -69.600; -480.000; -511.000
359.277;  -20.200; -962.000; -913.000
359.409; 4120.800;  536.000;  231.000
359.542;  996.600; -738.000; -688.000
359.674;  117.700;   46.000;   13.000
359.806;  -99.000; -565.000; -438.000
359.939;  -38.900; -617.000; -516.000
360.071;  -47.800; -583.000; -579.000
360.203;    4.000; -411.000; -364.000
360.335;  104.500;  164.000;  -16.000
360.468;  287.100; -249.000; -307.000
360.600; 3295.600; -547.000; -454.000
360.732; 4436.300; -546.000; -423.000
360.864;  508.700;-1216.000;-1044.000
360.996;  350.400; -516.000; -554.000
361.129;   10.800; -389.000; -598.000
361.261;   65.100;  110.000; -113.000
361.393;  -69.300; -252.000; -214.000
361.525;   83.800;   94.000;  244.000
361.657;  -89.900; -821.000; -703.000
361.789;   46.100; -139.000; -155.000
361.921;  225.900; -642.000; -593.000
362.053;  423.100;  524.000;  541.000
362.185;  120.100;  288.000;   72.000
362.318; -149.700; -709.000; -705.000
362.450;  219.600;  294.000;  444.000
362.582;   48.300; -913.000; -870.000
362.714;  -40.400; -353.000; -332.000
362.846; -103.900; -606.000; -490.000
362.978; -240.700; -941.000; -811.000
363.109;   32.800; -161.000; -260.000
363.241;  522.800; -739.000; -749.000
363.373;  617.100; -649.000; -564.000
363.505; 1079.000; -186.000;  -91.000
363.637;  204.000; -787.000; -601.000
363.769; -260.200;-1067.000;-1080.000
363.901; -132.800; -596.000; -654.000
364.033; -261.300;-1103.000;-1062.000
364.165;   22.400; -283.000; -283.000
364.296;  132.500; -316.000; -177.000
364.428;   54.000;-1344.000;-1220.000
364.560; -139.800; -679.000; -661.000
364.692; -118.800; -738.000; -835.000
364.824;  308.300; -588.000; -456.000
364.955;  701.000; -402.000; -564.000
365.087; 1466.800;-1097.000; -852.000
365.219;   27.600; -686.000; -816.000
365.351; -105.700; -526.000; -572.000
365.482;  110.000;  300.000;  240.000
365.614;  -34.700; -402.000; -314.000
365.746; -170.900; -729.000; -752.000
365.877; -179.200; -706.000; -672.000
366.009;  424.000;  -35.000;  -62.000
366.141; -190.500;-1249.000;-1134.000
366.272; -171.400; -803.000; -719.000
366.404; -206.800;-1005.000; -874.000
366.535;   29.600; -139.000;  -12.000
366.667; -170.500; -644.000; -649.000
366.799;  111.400;  353.000;  203.000
366.930; -221.100; -862.000; -996.000
367.062;  193.000; -639.000; -613.000
367.193;  217.300; -872.000; -842.000
367.325; -127.900; -580.000; -684.000
367.456;   62.600; -246.000;   31.000
367.588;  285.500; -371.000; -318.000
367.719;   72.300;  -44.000;  -45.000
367.851;   -3.200; -222.000; -241.000
367.982; -136.000; -875.000; -732.000
368.113;  121.500; -475.000; -358.000
368.245; -204.100; -960.000; -841.000
368.376;  -29.200; -254.000; -302.000
368.508;  -23.700; -188.000; -263.000
368.639; -264.400;-1166.000;-1034.000
368.770;  -82.400; -670.000; -589.000
368.902; -127.100; -836.000; -926.000
369.033; -200.600; -906.000; -855.000
369.164;  -86.600; -720.000; -653.000
369.296; -150.200; -452.000; -601.000
369.427;   41.900; -209.000; -144.000
369.558;  -79.500; -593.000; -377.000
369.689; -159.400; -721.000; -569.000
369.821; -251.500; -951.000; -845.000
369.952;   15.500;   42.000; -108.000
370.083;  -58.100; -229.000; -108.000
370.214; -138.800; -735.000; -650.000
370.345;   44.000;   65.000;   81.000
370.477; -156.600; -810.000; -790.000
370.608;  308.800; -328.000; -264.000
370.739; -179.000;-1233.000;-1292.000
370.870; -126.700;-1102.000; -923.000
371.001;  108.400; -378.000; -467.000
371.132; -149.500; -754.000; -735.000
371.263;   11.400;  -42.000; -148.000
371.394; -243.400; -841.000; -748.000
371.525;   88.700;  345.000;  225.000
371.657; -182.400; -808.000; -670.000
371.788;  144.200;  103.000;  199.000
371.919;  207.000; -384.000; -304.000
372.050; 4915.800;  -91.000; -156.000
372.181; 1438.300; -188.000; -294.000
372.311;  472.500;   42.000; -127.000
372.442;   -9.900; -457.000; -451.000
372.573;  -10.800; -444.000; -340.000
372.704; -236.400;-1008.000; -980.000
372.835;   92.600; -228.000; -289.000
372.966; -135.300; -646.000; -554.000
373.097; -115.100; -575.000; -711.000
373.228;  -99.100; -717.000; -542.000
373.359;  130.700; -824.000; -536.000
373.490; 1098.200; -881.000; -727.000
373.620; 1335.000;-1001.000; -803.000
373.751; 2352.300; -332.000; -396.000
373.882;  918.600; -663.000; -733.000
374.013;   83.700; -449.000; -262.000
374.143; -103.100; -581.000; -659.000
374.274; -229.200; -987.000; -908.000
374.405;  250.400; -388.000; -276.000
374.536;  584.200; -526.000; -387.000
374.666; 1348.600; -759.000; -807.000
374.797;  215.100; -817.000; -868.000
374.928; 1055.600; -710.000; -560.000
375.058; 1026.700; -535.000; -500.000
375.189;  108.100;  -59.000;  -93.000
375.320; -217.900; -928.000;-1034.000
375.450;  -79.900; -625.000; -616.000
375.581;  -78.700; -526.000; -436.000
375.712;  -30.700; -574.000; -250.000
375.842;  422.100; -438.000; -415.000
375.973;  236.100; -554.000; -513.000
376.103;  -95.900; -665.000; -648.000
376.234; -112.800; -531.000; -552.000
376.364; -136.900; -944.000; -867.000
376.495;  505.700;  925.000;  529.000
376.625;  -17.600; -472.000; -485.000
376.756;   48.400; -709.000; -678.000
376.886; -211.300;-1178.000;-1026.000
377.017;   29.200;-1048.000;-1061.000
377.147;  531.400; -786.000; -782.000
377.278;  149.700;  174.000;  228.000
377.408; -192.700; -801.000; -815.000
377.538; -165.600; -707.000; -693.000
377.669; -116.700; -537.000; -613.000
377.799; -178.000; -645.000; -635.000
377.929; -136.300; -610.000; -428.000
378.060; -239.400; -781.000; -847.000
378.190; -147.100; -726.000; -531.000
378.320;  -94.600; -401.000; -406.000
378.451;  -24.000; -131.000;  -22.000
378.581;   40.600;  -67.000; -110.000
378.711;  296.200; 1035.000;  866.000
378.841;  -71.400; -533.000; -675.000
378.972; -184.400; -871.000; -751.000
379.102;  -43.700; -652.000; -579.000
379.232;  -34.000; -126.000;  -73.000
379.362; -209.200;-1001.000; -885.000
379.492;  -58.000; -373.000; -424.000
379.623;  185.700;    0.000;  111.000
379.753; -221.000;-1107.000; -974.000
379.883;  298.800;   59.000;  156.000
380.013;  -77.200;-1081.000;-1017.000
380.143; -212.800;-1097.000;-1056.000
380.273; -229.900; -985.000; -861.000
380.403;  -19.800; -344.000; -257.000
380.533;  -74.800; -651.000; -664.000
380.663;  153.500;  173.000;  128.000
380.793; -199.900;-1027.000;-1074.000
380.923;   -0.500; -103.000;  -34.000
381.053; -176.700; -613.000; -623.000
381.183;  -37.700; -106.000; -248.000
381.313;    8.400; -656.000; -470.000
381.443;   25.100; -692.000; -473.000
381.573;  221.600; -402.000; -409.000
381.703;  237.600;-1249.000;-1095.000
381.833; -259.200;-1454.000;-1336.000
381.963;  180.700; -134.000;  -87.000
382.093; 1804.400; -925.000; -909.000
382.223;  523.600; -713.000; -602.000
382.353;  -78.900; -801.000; -608.000
382.482;  399.700;-1091.000; -964.000
382.612;  937.600; -872.000; -644.000
382.742;  526.600; -695.000; -622.000
382.872;  300.300; -565.000; -551.000
383.002;  124.000;  347.000; -132.000
383.131;  -38.500; -226.000; -160.000
383.261;  -83.000; -706.000; -768.000
383.391;  430.600; -552.000; -377.000
383.521; 5226.000;  451.000;  263.000
383.650; 1117.900; -947.000; -904.000
383.780;  -40.300; -783.000; -656.000
383.910;  252.400;  880.000;  802.000
384.039;  -34.800; -794.000; -656.000
384.169;  137.900;-1205.000;-1017.000
384.299;  -60.800; -650.000; -662.000
384.428; -126.700; -764.000; -680.000
384.558;  -41.800; -308.000; -275.000
384.687;  -92.900; -414.000; -334.000
384.817;   51.300;   75.000;   -2.000
384.947;   22.600; -234.000; -141.000
385.076;  467.000;  982.000;  912.000
385.206;  191.400;  369.000;  480.000
385.335;  -75.100; -549.000; -417.000
385.465; -174.600; -655.000; -663.000
385.594;  205.300;  -53.000;  -44.000
385.724;  417.000; -868.000; -838.000
385.853;  127.400; -296.000; -270.000
385.982; 1769.700; -743.000; -787.000
386.112; 2667.500;-1052.000; -871.000
386.241;  183.400; -307.000; -312.000
386.371;   28.100; -174.000;  -87.000
386.500;  -35.700; -825.000; -789.000
386.629;   21.100; -874.000; -817.000
386.759;  145.000;  -43.000;   68.000
386.888;   -9.100; -170.000; -250.000
387.017; -117.600; -648.000; -620.000
387.147; -179.200; -771.000; -798.000
387.276;   -8.300; -410.000; -397.000
387.405;   -4.500; -398.000; -342.000
387.535;  -89.300; -452.000; -361.000
387.664; -129.800; -692.000; -620.000
387.793;   92.600; -198.000; -113.000
387.922;  708.100;  255.000;  200.000
388.052;  -10.100; -576.000; -423.000
388.181;   15.300; -342.000; -472.000
388.310;  -55.200; -889.000; -710.000
388.439; -120.100; -749.000; -742.000
388.568;  300.300;  365.000;  244.000
388.697; 1311.400; -756.000; -653.000
388.826;  206.600; -768.000; -666.000
388.956;   69.700; -285.000; -307.000
389.085;  -21.600; -347.000; -287.000
389.214; -189.000; -842.000; -872.000
389.343; -122.200; -645.000; -413.000
389.472;  710.700;  126.000;  149.000
389.601;  785.900;   91.000;    0.000
389.730;   -0.400; -568.000; -687.000
389.859;  111.700;  226.000;   46.000
389.988;  281.800; -423.000; -408.000
390.117;  186.400; -168.000; -146.000
390.246;  -10.100; -331.000; -320.000
390.375;   81.300; -673.000; -626.000
390.504; -102.900; -703.000; -621.000
390.633; -161.300; -672.000; -726.000
390.761; -142.200; -732.000; -645.000
390.890;   31.700;   -4.000; -130.000
391.019;  -46.100; -421.000; -441.000
391.148; -221.300; -826.000; -855.000
391.277; -116.800; -576.000; -493.000
391.406; -136.600; -821.000; -805.000
391.534;  103.600;  574.000; -301.000
391.663;  -88.300; -583.000; -645.000
391.792; -170.400; -673.000; -701.000
391.921;  122.600;   -3.000;   15.000
392.050;  232.000; -287.000; -228.000
392.178; -150.100;-1206.000;-1061.000
392.307;  136.500; -758.000; -712.000
392.436;   47.500; -427.000; -641.000
392.564;   75.600;  166.000;   -6.000
392.693; -166.200; -860.000; -682.000
392.822;  234.700; -529.000; -534.000
392.950;  101.600; -880.000; -714.000
393.079;  406.600; -188.000; -328.000
393.208;  -13.500; -488.000; -511.000
393.336;   41.300; -170.000; -145.000
393.465;  -96.000; -317.000; -199.000
393.593;   45.300;   62.000;   79.000
393.722; -277.400;-1121.000; -916.000
393.850;  -28.600; -188.000;  -61.000
393.979; -262.700; -926.000; -805.000
394.107; -102.900; -517.000; -537.000
394.236;  -51.900; -570.000; -507.000
394.364;  423.100;  383.000;  206.000
394.493;  617.300; -911.000; -767.000
394.621;  -50.200; -955.000; -916.000
394.750; 1133.200; -873.000; -923.000
394.878; 4683.300; -247.000; -149.000
395.007; 6040.500; -721.000; -807.000
395.135;  420.700; -790.000; -721.000
395.263; -166.900;-1038.000;-1040.000
395.392;   49.700;  -25.000; -107.000
395.520; -167.300; -818.000; -679.000
395.648; -208.800; -865.000; -915.000
395.777;  -46.000; -366.000; -405.000
395.905;  -60.000; -449.000; -564.000
396.033;   76.800;  217.000;  172.000
396.162; 1095.700; -399.000; -453.000
396.290;  970.200;  -17.000;   -2.000
396.418;   85.800; -555.000; -514.000
396.546; -176.100; -571.000; -466.000
396.674; -199.200; -850.000; -878.000
396.803;   50.000;  -72.000;  -23.000
396.931;  104.700; -179.000; -199.000
397.059;  -44.700;-1026.000; -989.000
397.187; -213.600;-1026.000; -975.000
397.315; -211.000; -884.000; -649.000
397.443; -147.300; -592.000; -443.000
397.572; -119.100; -578.000; -424.000
397.700;  -47.400; -607.000; -614.000
397.828;   24.100;  120.000;  -90.000
397.956;  -56.500; -508.000; -478.000
398.084;  -98.200; -767.000; -626.000
398.212;   71.400;  137.000;  124.000
398.340;   50.400;  -56.000;  159.000
398.468;   47.100; -390.000; -169.000
398.596; -253.300; -993.000; -953.000
398.724; -216.100; -762.000; -767.000
398.852; -304.400;-1024.000; -976.000
398.980;  -82.500; -560.000; -560.000
399.108; -157.400; -982.000; -735.000
399.236;   61.000;   13.000;    8.000
399.363;   29.800;  222.000;  196.000
399.491; -101.200; -404.000; -398.000
399.619; -208.400; -829.000; -800.000
399.747; -167.600; -859.000; -771.000
399.875;  182.900;  220.000;  234.000
400.003;  -58.800; -359.000; -284.000
400.130; -157.100; -421.000; -341.000
400.258;   15.000;  -83.000;   38.000
400.386;  -94.900; -352.000; -168.000
400.514;  -99.800; -526.000; -587.000
400.641; -209.000; -928.000; -802.000
400.769; -260.200; -979.000; -888.000
400.897; -212.400; -838.000; -793.000
401.025;   -3.700; -166.000; -152.000
401.152;   36.500;  220.000;   38.000
401.280; -132.500; -430.000; -429.000
401.408; -180.300; -712.000; -576.000
401.535; -194.900; -735.000; -758.000
401.663; -315.300;-1134.000;-1054.000
401.790; -125.800; -514.000; -525.000
401.918;  117.900;  436.000;  405.000
402.046;   21.400;  134.000;  122.000
402.173;  -44.100;  -18.000;    7.000
402.301;  -91.600; -519.000; -397.000
402.428;  148.200;  528.000;  383.000
402.556; -239.600;-1188.000; -913.000
402.683;  -18.500;  -20.000;   -1.000
402.811;   -7.000;  -37.000; -206.000
402.938;   38.500;   20.000;   27.000
403.066;  250.900; -574.000; -558.000
403.193;  435.900;  299.000;  239.000
403.321;  340.700; -396.000; -574.000
403.448;  429.600;   83.000;   27.000
403.575;  226.500;  -90.000;  -46.000
403.703; -142.800; -732.000; -557.000
403.830; -111.500; -531.000; -496.000
403.957; -260.700;-1117.000;-1023.000
404.085;    3.900;  -61.000; -172.000
404.212;  130.000;  -50.000;   63.000
404.339;  434.200; -566.000; -306.000
404.467; 9245.000; -612.000; -524.000
404.594; 5499.900; -287.000; -227.000
404.721; 1119.400; -869.000; -764.000
404.848;  101.300; -113.000; -202.000
404.976; -172.300; -856.000; -783.000
405.103;   17.500;  -14.000;  -82.000
405.230;   64.200;  190.000;  226.000
405.357;   66.100;  117.000;   44.000
405.484;  461.900;  -49.000;    5.000
405.612;   48.400; -548.000; -563.000
405.739;  -85.300; -488.000; -243.000
405.866;  199.000;  669.000;  385.000
405.993;  -18.500; -398.000; -102.000
406.120; -239.800; -801.000; -887.000
406.247;  -72.500; -323.000; -342.000
406.374;  621.800;  540.000;  629.000
406.501;   69.900; -632.000; -702.000
406.628; -127.900; -621.000; -589.000
406.755; -185.400; -803.000; -620.000
406.882;  -41.100; -228.000; -277.000
407.009; -169.500; -719.000; -628.000
407.136;   97.300; -480.000; -401.000
407.263;  103.900; -939.000; -829.000
407.390; -161.300; -692.000; -614.000
407.517; -299.400;-1139.000;-1187.000
407.644;  -92.900; -332.000; -256.000
407.771; -250.000; -249.000; -287.000
407.898;   28.100;  168.000;  328.000
408.025; -120.100; -421.000; -313.000
408.151;   53.400;   82.000;  153.000
408.278; -100.800; -267.000; -216.000
408.405; -211.800; -931.000; -899.000
408.532; -106.200; -549.000; -542.000
408.659; -196.500; -677.000; -648.000
408.785; -355.500;-1298.000;-1170.000
408.912;  -59.900; -412.000; -296.000
409.039; -175.700; -610.000; -686.000
409.166; -159.700; -591.000; -555.000
409.292; -162.100; -571.000; -534.000
409.419; -186.600; -665.000; -649.000
409.546; -117.600; -431.000; -192.000
409.672; -192.600; -713.000; -545.000
409.799;   21.000;  -36.000;   34.000
409.926;  -53.900; -180.000; -179.000
410.052; -319.000;-1127.000;-1091.000
410.179;  -93.600; -368.000; -392.000
410.305; -138.300; -375.000; -493.000
410.432;  -63.200; -220.000; -333.000
410.558; -150.700; -305.000; -380.000
410.685; -178.100; -688.000; -431.000
410.812; -125.000; -409.000; -588.000
410.938; -187.600; -964.000; -808.000
411.065; -159.100; -671.000; -645.000
411.191;  -16.300; -189.000; -174.000
411.317; -211.600; -823.000; -742.000
411.444; -105.700; -317.000; -246.000
411.570;  -78.100; -339.000; -294.000
411.697; -195.300; -758.000; -752.000
411.823; -307.800; -989.000; -999.000
411.949;  -33.600;  -56.000;   17.000
412.076; -148.200; -539.000; -519.000
412.202; -194.900; -758.000; -757.000
412.329; -222.300; -798.000; -752.000
412.455; -183.100; -821.000; -657.000
412.581;   -0.600;  -15.000;  172.000
412.707; -114.500; -540.000; -457.000
412.834;   76.800;  156.000;  219.000
412.960; -148.400; -785.000; -784.000
413.086; -159.200; -743.000; -701.000
413.212;  299.000;  604.000;  578.000
413.339; -120.300; -685.000; -701.000
413.465;  -24.000; -364.000; -310.000
413.591; -191.000; -757.000; -474.000
413.717;  -30.900; -358.000; -366.000
413.843; -229.800; -839.000; -861.000
413.969;  -71.900;  -47.000; -292.000
414.096; -158.800; -679.000; -679.000
414.222;   40.200;  -33.000;   85.000
414.348;  -73.000; -652.000; -385.000
414.474;  126.900;   38.000;  -52.000
414.600;  -15.700; -126.000; -144.000
414.726;  -12.300;  -96.000;  -55.000
414.852; -105.100; -365.000; -342.000
414.978;  110.700;  104.000;  -18.000
415.104;   88.500;   38.000;   80.000
415.230;   67.900; -329.000; -330.000
415.356;   91.500; -409.000; -514.000
415.482;  338.400;   13.000;  -35.000
415.608;  481.300; -247.000; -323.000
415.734; 1531.600;   67.000;   38.000
415.860;32275.700; -875.000; -767.000
415.986;21095.200; -685.000; -607.000
416.111; 1739.700; -798.000; -652.000
416.237;  366.800; -424.000; -571.000
416.363; 1952.200; -765.000; -733.000
416.489; 6528.600; -324.000; -251.000
416.615;  644.400; -707.000; -742.000
416.741;  -70.100; -677.000; -784.000
416.866; -160.500; -673.000; -736.000
416.992; -227.400; -801.000; -818.000
417.118;  -51.500;  -41.000;  -80.000
417.244; -105.700; -798.000; -531.000
417.369; -158.900; -801.000; -612.000
417.495;   -4.700; -325.000; -254.000
417.621; -162.000;-1015.000; -803.000
417.746;   27.800; -579.000; -572.000
417.872;   91.000; -254.000; -144.000
417.998;   84.200; -515.000; -530.000
418.123; 1741.800;-1073.000; -845.000
418.249; 8274.900; -512.000; -601.000
418.374; 1018.000; -916.000; -824.000
418.500;  176.500; -383.000; -482.000
418.626;  233.300;   70.000;  -59.000
418.751;  194.500; -549.000; -448.000
418.877;  286.100; -637.000; -643.000
419.002; 3110.100; -688.000; -560.000
419.128;19787.600; -930.000; -721.000
419.253; 4357.900; -967.000; -837.000
419.379;  637.000; -391.000; -338.000
419.504;  695.900;  325.000;  415.000
419.629;  840.700; -393.000; -212.000
419.755; 6184.600; -317.000; -254.000
419.880;33398.800;  -98.000;   67.000
420.006;18486.600; -280.000; -221.000
420.131;45170.900; -662.000; -775.000
420.256; 5824.000; -315.000; -316.000
420.382;  789.700; -665.000; -687.000
420.507;  109.900; -649.000; -778.000
420.632;  174.100; -337.000; -339.000
420.758;  333.200; -251.000; -425.000
420.883; -154.600; -876.000; -672.000
421.008; -149.100; -775.000; -619.000
421.133; -123.800; -509.000; -467.000
421.259;  -30.300; -325.000; -259.000
421.384; -200.200; -834.000; -693.000
421.509; -101.700;-1052.000; -862.000
421.634; 1381.600; -936.000; -820.000
421.759;  549.000; -359.000; -327.000
421.885;  -86.300; -717.000; -656.000
422.010; -112.400; -673.000; -542.000
422.135; -254.300; -695.000; -727.000
422.260;  128.300;  340.000;  280.000
422.385;  -29.800;   12.000;  -98.000
422.510;   49.400;  151.000;  -26.000
422.635;   67.700;  -87.000;  -43.000
422.760;  139.500; -766.000; -791.000
422.885;   95.300;  -57.000;  -80.000
423.010;  -17.600; -112.000; -169.000
423.135; -162.700; -481.000; -561.000
423.260;  -15.400; -150.000; -245.000
423.385;  157.700;  476.000;  222.000
423.510;   90.300;   71.000;  -22.000
423.635;  133.700;  133.000;   45.000
423.760;  171.600;  383.000;  328.000
423.885;  159.000;  336.000;  391.000
424.010;   67.900;  -68.000;  -13.000
424.135;   14.500;    5.000;  -33.000
424.259;  -96.100; -654.000; -457.000
424.384;  -84.700; -279.000; -272.000
424.509;   11.000; -260.000; -186.000
424.634; -174.200; -761.000; -623.000
424.759;  -51.000; -688.000; -544.000
424.883;  -16.300; -506.000; -527.000
425.008;  279.400; -502.000; -410.000
425.133; 3170.200; -679.000; -653.000
425.258; 1353.500; -517.000; -381.000
425.382; 1422.000; -867.000; -774.000
425.507; 3315.700; -487.000; -543.000
425.632;  568.300; -802.000; -663.000
425.756;  736.700; -256.000; -146.000
425.881;11457.400; -831.000; -857.000
426.006;27764.500; -604.000; -355.000
426.130; 3897.700; -696.000; -508.000
426.255;  540.400; -611.000; -491.000
426.379;  262.100; -189.000; -577.000
426.504;  698.100;  660.000;  544.000
426.629; 6521.300; -519.000; -466.000
426.753; 4027.400;   64.000;  -46.000
426.878;  485.100; -252.000; -288.000
427.002;  206.100; -651.000; -668.000
427.127; 2744.400;  -35.000; -158.000
427.251;18461.500;  372.000;  401.000
427.375; 4671.700; -191.000; -173.000
427.500; 3120.100; -616.000; -610.000
427.624;  908.900; -234.000; -400.000
427.749;  162.200; -216.000; -225.000
427.873;  -78.400; -499.000; -412.000
427.997;  -46.600; -222.000; -230.000
428.122;  193.200;  795.000;  703.000
428.246;  150.300;  433.000;  434.000
428.371; -230.400; -869.000; -773.000
428.495; -148.700; -624.000; -646.000
428.619;  -56.100; -186.000; -117.000
428.743;   93.400;   65.000;  132.000
428.868;   -1.000; -732.000; -643.000
428.992; 1836.800; -219.000; -326.000
429.116;  644.600; -329.000; -357.000
429.240;  403.600;  419.000;  426.000
429.365;  -69.900; -454.000; -574.000
429.489;  -89.700; -638.000; -647.000
429.613;   64.800; -236.000; -177.000
429.737;   32.200; -563.000; -432.000
429.861;  467.400; -247.000; -133.000
429.985; 9250.600; -425.000; -305.000
430.109; 9140.200; -770.000; -908.000
430.234; 1080.300;   76.000;  -50.000
430.358;  120.800; -250.000; -160.000
430.482; -114.700; -672.000; -564.000
430.606;  -90.700; -655.000; -375.000
430.730;    0.300; -437.000; -388.000
430.854;   63.200; -909.000; -835.000
430.978; -131.500; -795.000; -764.000
431.102; -114.200; -499.000; -422.000
431.226; -187.100; -874.000; -815.000
431.350;  122.200;  345.000;  422.000
431.474;  -99.200; -661.000; -373.000
431.597; -255.700;-1060.000; -848.000
431.721; -100.100; -276.000; -267.000
431.845; -208.200; -704.000; -472.000
431.969; -110.400; -304.000; -349.000
432.093; -124.100; -395.000; -317.000
432.217;   29.100;   32.000;   82.000
432.341; -137.000; -523.000; -518.000
432.464;   57.100;   96.000;   40.000
432.588;  279.300; -401.000; -329.000
432.712;  155.200;  -52.000;  -52.000
432.836;  129.000;  213.000;  263.000
432.959;  -16.900; -372.000; -311.000
433.083;  166.000;   11.000;    2.000
433.207;  654.100;  285.000;  930.000
433.330; 8416.200; -391.000; -200.000
433.454; 9458.500; -654.000; -638.000
433.578; 5494.500;  583.000;  278.000
433.701;  913.000; -623.000; -675.000
433.825;  171.100; -292.000; -299.000
433.949;  229.500;   28.000;  -72.000
434.072;   34.700; -410.000; -323.000
434.196;  -10.600; -309.000; -117.000
434.319; 7756.800;25482.000;25124.000
434.443; 1216.500; -656.000; -603.000
434.566; 4167.600;  281.000;   62.000
434.690;  597.500; -637.000; -383.000
434.813;   81.800; -251.000; -173.000
434.937; -136.300; -569.000; -696.000
435.060; -104.000; -423.000; -332.000
435.184;  391.200; -492.000; -217.000
435.307;  217.800;  159.000;  102.000
435.431;    8.400;  -40.000;   24.000
435.554;  -82.900; -399.000; -240.000
435.677; -112.800; -350.000; -258.000
435.801;  -22.600;  -25.000;   49.000
435.924;   -4.900;    1.000;  -67.000
436.048; -228.900;-1019.000; -732.000
436.171;  -77.300; -240.000;  -66.000
436.294;  -35.800; -248.000; -229.000
436.417;  130.400; -963.000; -849.000
436.541; -152.800; -814.000; -840.000
436.664;  -18.800; -242.000; -316.000
436.787;   37.300;   13.000;  113.000
436.910; -180.300; -792.000; -422.000
437.034;   58.900;  142.000;  143.000
437.157;  143.400;  -11.000;    0.000
437.280;  -72.600; -392.000; -292.000
437.403; -205.500; -982.000; -869.000
437.526;  746.300; -903.000; -865.000
437.649; 2655.500; -505.000; -332.000
437.772;  262.700; -692.000; -540.000
437.896;  220.000;  700.000;  544.000
438.019; -157.300; -758.000; -503.000
438.142; -114.000; -596.000; -506.000
438.265;  -91.700; -639.000; -670.000
438.388;  669.200; -520.000; -410.000
438.511;   54.800; -597.000; -394.000
438.634;  -72.400; -247.000; -125.000
438.757; -218.300; -693.000; -619.000
438.880;  -30.500;  -34.000;  -57.000
439.003; -129.900; -417.000; -437.000
439.126;  -92.700; -287.000; -167.000
439.248;  -66.300;  -98.000; -139.000
439.371;   35.200;    9.000;  -53.000
439.494;  102.300;  510.000;  439.000
439.617;  -31.100;   65.000;  -88.000
439.740; -289.500; -968.000; -816.000
439.863; -241.900; -755.000; -595.000
439.986; -165.100; -476.000; -431.000
440.108;  -23.800; -161.000; -112.000
440.231; -282.900; -950.000; -836.000
440.354;  -35.500;  -64.000; -150.000
440.477;   14.200; -566.000; -542.000
440.599;   13.900; -200.000; -225.000
440.722; -203.800; -709.000; -586.000
440.845;  217.100;  751.000;  928.000
440.968; -178.500; -415.000; -311.000
441.090;  -99.900; -199.000;  -33.000
441.213; -293.400;-1021.000; -825.000
441.336;  -34.500; -159.000;   -5.000
441.458;  -92.300; -549.000; -396.000
441.581; -156.500; -628.000; -629.000
441.703;  -97.900; -152.000;   13.000
441.826; -174.000; -557.000; -400.000
441.948;   -2.600;   56.000;   51.000
442.071;  115.500;  555.000;  424.000
442.193; -172.400; -531.000; -485.000
442.316;   81.000;  152.000;   97.000
442.438;   97.500; -233.000;  -10.000
442.561;  150.000;  272.000;  262.000
442.683;  657.400; -809.000; -522.000
442.806; 1416.900;   -8.000;   74.000
442.928;  -80.600; -859.000; -604.000
443.051; -109.200; -577.000; -373.000
443.173; -139.000; -341.000; -339.000
443.295; -129.000; -263.000; -371.000
443.418; -118.100; -321.000;  -29.000
443.540;   10.700; -106.000;   -4.000
443.662; -205.000; -563.000; -465.000
443.785;   69.100;  335.000;  199.000
443.907; -148.700; -362.000; -208.000
444.029; -217.000; -767.000; -494.000
444.152; -260.600; -644.000; -554.000
444.274;  -24.700;  -18.000;  -24.000
444.396; -200.000; -461.000; -221.000
444.518; -219.300; -691.000; -454.000
444.640; -140.300; -268.000; -111.000
444.763;   10.000;  388.000;  249.000
444.885; -158.400; -432.000; -392.000
445.007;   -9.400;   35.000;   86.000
445.129; -199.400; -610.000; -515.000
445.251; -166.400; -372.000; -439.000
445.373; -225.000; -537.000; -386.000
445.495;   49.600;  242.000;  350.000
445.617;  174.800;  853.000;  753.000
445.739;  -70.000; -215.000;  -97.000
445.861;  -37.100; -245.000; -112.000
445.984;  -57.400; -267.000; -101.000
446.105;  293.500; -418.000; -251.000
446.227;  747.700; -176.000;  -19.000
446.349;  -67.000; -358.000; -249.000
446.471; -132.200; -615.000; -448.000
446.593; -100.400; -316.000;   19.000
446.715;    6.400;  -67.000;   41.000
446.837;  184.100;  697.000;  832.000
446.959; -156.200; -457.000; -478.000
447.081; -221.800; -628.000; -518.000
447.203;  190.100;  862.000;  834.000
447.325; -134.400; -270.000;   42.000
447.446;   45.200;  286.000;  530.000
447.568; -260.500; -921.000; -803.000
447.690; -103.100; -236.000; -245.000
447.812; -234.400; -798.000; -519.000
447.933;   22.600;  155.000;  127.000
448.055;  -89.000; -306.000; -261.000
448.177;  251.600;   31.000;   79.000
448.299;   10.600; -935.000; -727.000
448.420;   87.400;  -25.000;  159.000
448.542;  -22.300;   -3.000;   33.000
448.664;   34.800;  109.000;  322.000
448.785;   23.300;  265.000;   83.000
448.907; -127.200; -614.000; -353.000
449.028;  -98.400; -771.000; -471.000
449.150;  200.300;  492.000;  589.000
449.272; -294.100;-1044.000; -913.000
449.393;  123.400;  612.000;  694.000
449.515; -232.100; -634.000; -581.000
449.636;  -66.200; -264.000; -155.000
449.758;  188.400;  763.000;  622.000
449.879; -117.200; -498.000; -396.000
450.001; -115.800; -149.000;  -49.000
450.122;    4.600;  -95.000;  162.000
450.244;   21.600;   37.000;  364.000
450.365; -119.300; -495.000; -301.000
450.486;  -11.600;   80.000;  268.000
450.608;  106.700;  393.000;  326.000
450.729;  173.500;  578.000;  645.000
450.850;   11.800; -574.000; -466.000
450.972; 1268.200; -552.000; -389.000
451.093; 8074.000;  190.000;  588.000
451.214; 3033.500; -516.000; -337.000
451.336;  668.200;  773.000;  579.000
451.457;  125.300;  264.000;  393.000
451.578;  -15.900; -118.000;  -74.000
451.699; -192.200; -546.000; -540.000
451.821;  -67.400; -284.000;  -50.000
451.942;   23.900;  278.000;  285.000
452.063;  128.400;  228.000;  419.000
452.184; 1019.200;  -54.000;  -49.000
452.305; 1783.900;  103.000;  170.000
452.427;  190.600; -549.000; -301.000
452.548;   32.700;   23.000;   79.000
452.669; -107.200; -257.000;  -89.000
452.790;  -24.000;    3.000;  -18.000
452.911;   40.800;  195.000;  259.000
453.032;  -92.700; -289.000;  -60.000
453.153;  -24.000;  -29.000;   81.000
453.274;  173.500;  737.000;  868.000
453.395;  -28.200;  -51.000;  175.000
453.516;  101.200; 1317.000; 1388.000
453.637;  -93.300; -205.000; -150.000
453.758;  -67.900;   15.000;   69.000
453.879; -174.300; -462.000; -250.000
454.000;  223.200; 1086.000;  948.000
454.121; -164.100; -554.000; -326.000
454.242; -180.400; -599.000; -383.000
454.362;  -52.600;  -99.000;  114.000
454.483;  -55.500; -309.000; -229.000
454.604;  158.600;  512.000;  580.000
454.725; -221.200; -627.000; -555.000
454.846; -208.000; -474.000; -406.000
454.967;   16.200;  230.000;  539.000
455.087;  -31.600;  179.000;  153.000
455.208;  109.700;  554.000;  856.000
455.329;  -62.300;  -22.000;   82.000
455.450;  180.600;  473.000;  633.000
455.570; -114.100; -234.000; -211.000
455.691;   15.900;  201.000;  407.000
455.812; -168.600; -270.000;  -92.000
455.932;  -45.900;  107.000;  -97.000
456.053; -113.100;   36.000;   24.000
456.173; -161.400; -433.000; -355.000
456.294; -218.600; -476.000; -303.000
456.415;  -90.900;  -73.000;   70.000
456.535;    5.100;  297.000;  273.000
456.656;  -15.100;  132.000;  240.000
456.776;  -48.600;    3.000;  298.000
456.897;   67.900;  308.000;  513.000
457.017;  -65.000; -153.000;   -3.000
457.138; -152.200; -402.000; -249.000
457.258;   23.200;  263.000;  224.000
457.379;   55.800;  509.000;  521.000
457.499;   11.900;  443.000;  432.000
457.620; -199.600; -407.000; -231.000
457.740; -132.600; -132.000;  -11.000
457.860;  -46.900;   87.000;   44.000
457.981;  -25.700;  132.000;  124.000
458.101;  -87.400;  -89.000;   40.000
458.221;   27.800;  336.000;  402.000
458.342;  -66.400;   -4.000;  -37.000
458.462;  145.400;  617.000;  352.000
458.582;  -38.600; -302.000; -294.000
458.703;   65.400;  303.000;  154.000
458.823;   -3.400;   22.000;  163.000
458.943;   97.700;  341.000;  467.000
459.063;   18.800; 1124.000;  192.000
459.183;    1.500;  328.000;  313.000
459.304;   78.900;  315.000;  517.000
459.424;  -90.500; -246.000;  -89.000
459.544;  663.400;  388.000;  764.000
459.664; 1445.900;  499.000;  506.000
459.784;  596.200; 1004.000; 1175.000
459.904;  162.500;  867.000;  744.000
460.024;  197.000;  867.000;  684.000
460.144;   64.100;  449.000;  554.000
460.264;   66.400;  515.000;  327.000
460.385; -113.600; -145.000; -119.000
460.505;  151.200;  905.000;  858.000
460.625; -105.700;  -17.000;  -68.000
460.745;   40.800;  396.000;  541.000
460.864;  -25.500;  153.000;  469.000
460.984;   41.500;  499.000;  573.000
461.104;  352.600; 1656.000; 1775.000
461.224;  104.800;  657.000;  650.000
461.344;   18.400;  431.000;  360.000
461.464;   -9.600;  258.000;  513.000
461.584;   16.100;  283.000;  466.000
461.704;  -35.600;   58.000;  108.000
461.824;  -56.300;  238.000;  259.000
461.943;    7.000;  191.000;  130.000
462.063; -104.900;    2.000;  324.000
462.183;  154.300;  639.000;  717.000
462.303;  280.200; 1678.000; 1230.000
462.422;  152.300;  781.000;  840.000
462.542;  -32.300;  271.000;  391.000
462.662;  120.500;  353.000;  380.000
462.782;  504.900;  833.000;  572.000
462.901;  807.700;  545.000;  717.000
463.021;  545.600; 1702.000; 1638.000
463.141;   18.700;  337.000;  770.000
463.260;   29.900;  614.000;  474.000
463.380;   98.200;  902.000;  884.000
463.499;  -13.700;  342.000;  332.000
463.619;  -20.000;  581.000;  559.000
463.738;  269.000; 1644.000;  903.000
463.858;   90.900;  657.000;  811.000
463.978;    7.900;  542.000;  396.000
464.097;  198.600;  921.000; 1114.000
464.217;  302.300; 1196.000; 1143.000
464.336;  295.800; 1068.000; 1130.000
464.455;    2.300;  328.000;  659.000
464.575;  139.500;  597.000;  602.000
464.694;  328.700; 1204.000; 1179.000
464.814;  286.800; 1190.000; 1138.000
464.933;  212.200; 1095.000; 1027.000
465.052;  252.800; 1412.000; 1054.000
465.172;  194.600;  922.000;  799.000
465.291;  342.100; 1376.000; 1320.000
465.410;   91.800;  462.000;  735.000
465.530;  262.200; 1355.000; 1310.000
465.649;  181.500; 1209.000; 1273.000
465.768;  334.800; 1673.000; 1508.000
465.888;  185.400;  941.000; 1174.000
466.007;  282.600; 1335.000; 1440.000
466.126;   73.800;  721.000;  641.000
466.245;  140.300; 1176.000; 1187.000
466.364;  120.400;  950.000; 1060.000
466.484;  163.600; 1024.000; 1213.000
466.603;  122.300; 1101.000; 1222.000
466.722;  286.400; 1490.000; 1769.000
466.841;  218.200; 1151.000; 1401.000
466.960;  159.900; 1069.000;  972.000
467.079;  311.900; 1971.000; 1786.000
467.198;  193.800; 1238.000; 1181.000
467.317;  252.500; 1768.000; 1162.000
467.436;  185.700; 1709.000; 1261.000
467.555;  355.700; 1796.000; 1746.000
467.674;  209.900; 1227.000; 1329.000
467.793;  187.800; 1376.000; 1374.000
467.912;  254.700; 1658.000; 1539.000
468.031;  387.600; 2038.000; 1930.000
468.150;  339.000; 1842.000; 1837.000
468.269;  456.200; 2313.000; 2090.000
468.388;  451.400; 2168.000; 2339.000
468.507;  548.000; 2884.000; 2903.000
468.626;  638.500; 2555.000; 2541.000
468.744;  347.600; 2018.000; 2174.000
468.863;  480.300; 2312.000; 2523.000
468.982;  242.800; 1503.000; 1555.000
469.101;  526.000; 2788.000; 2692.000
469.220;  366.800; 2333.000; 2176.000
469.338;  527.200; 2935.000; 3051.000
469.457;  448.000; 2719.000; 2545.000
469.576;  792.400; 3953.000; 3784.000
469.695;  572.100; 2877.000; 3066.000
469.813;  938.600; 4148.000; 4192.000
469.932;  872.200; 4255.000; 4485.000
470.051;  927.200; 4075.000; 4161.000
470.169; 1707.300; 4470.000; 4338.000
470.288; 2564.200; 4700.000; 4809.000
470.406; 1574.900; 5059.000; 5194.000
470.525; 1303.800; 6101.000; 5787.000
470.644; 1410.700; 6847.000; 6794.000
470.762; 1729.600; 8397.000; 7873.000
470.881; 1869.300; 8651.000; 8464.000
470.999; 2219.400; 9685.000; 9151.000
471.118; 2271.600;11174.000;10711.000

