
Integration time [ms]: 200.000
Averaging Nr. [scans]: 10
Smoothing Nr. [pixels]: 0
Data measured with spectrometer [name]: 2101012U2
Wave   ;Sample   ;Dark     ;Reference
[nm]   ;[counts] ;[counts] ;[counts] 

197.733;  116.400;  516.000;  404.000
197.879; -181.100; -610.000; -634.000
198.025; -121.400; -475.000; -420.000
198.171; -140.800; -602.000; -612.000
198.317;  -83.300; -401.000; -316.000
198.463; -146.500; -655.000; -404.000
198.609;   43.100;  181.000; -137.000
198.755; -135.800; -644.000; -410.000
198.901; -127.000; -505.000; -424.000
199.047; -121.900; -615.000; -488.000
199.193;  -75.000; -230.000; -468.000
199.339;  -76.100; -222.000; -369.000
199.485;   33.200;  330.000;  271.000
199.631;   65.100;  227.000;  310.000
199.777; -108.900; -466.000; -398.000
199.923; -124.600; -610.000; -424.000
200.069;  -12.700; -141.000;  -58.000
200.215;  111.500;  128.000;  453.000
200.361;   67.500;  243.000;  477.000
200.507; -136.000; -600.000; -373.000
200.653;  -66.300; -371.000; -194.000
200.798;  -80.700; -215.000; -125.000
200.944;  -43.400; -146.000;  -41.000
201.090;   99.300;   61.000;  222.000
201.236;  -24.700; -116.000; -158.000
201.382;  238.000;  874.000;  903.000
201.528;   -4.800;  -58.000;  -48.000
201.674;  -58.300; -386.000; -293.000
201.819; -143.700; -540.000; -439.000
201.965; -194.100; -699.000; -447.000
202.111;  -62.900; -273.000; -226.000
202.257;  -84.000; -250.000; -238.000
202.402;  -12.000;   13.000;  -36.000
202.548;  -75.100; -169.000; -116.000
202.694;  148.900;  410.000; -183.000
202.840; -143.100; -603.000; -531.000
202.985; -180.200; -681.000; -639.000
203.131; -228.600; -832.000; -666.000
203.277;  -54.200; -199.000; -262.000
203.423;  -98.800; -434.000; -520.000
203.568;  -71.500; -462.000; -237.000
203.714; -119.500; -535.000; -542.000
203.860; -179.600; -682.000; -641.000
204.005;   35.400;  112.000;  167.000
204.151;  151.200;  561.000;  556.000
204.296; -102.200; -354.000; -221.000
204.442; -144.800; -600.000; -547.000
204.588; -159.600; -592.000; -579.000
204.733;   30.900;  178.000;  168.000
204.879; -274.000;-1018.000; -822.000
205.025;   32.700;  -99.000;  126.000
205.170;    2.300;  -17.000;   94.000
205.316;  165.800;  438.000;  661.000
205.461; -188.100; -698.000; -554.000
205.607;  144.300;  609.000;  665.000
205.752; -160.800; -626.000; -551.000
205.898;  -84.500; -501.000; -391.000
206.043; -144.900; -578.000; -506.000
206.189;  -88.900; -243.000; -285.000
206.334;  143.500;  554.000;  606.000
206.480;  164.700;  409.000;  239.000
206.625; -166.000; -529.000; -552.000
206.771;  -78.700; -451.000; -373.000
206.916;  -55.300; -210.000; -537.000
207.062; -158.800; -545.000; -591.000
207.207; -134.100; -546.000; -443.000
207.353;  101.900;  185.000;  460.000
207.498;   36.600;  196.000;   85.000
207.643;  -99.400; -501.000; -370.000
207.789; -271.200;-1069.000; -910.000
207.934; -227.700; -665.000; -713.000
208.080;  -11.400; -154.000;   66.000
208.225;  -32.700;  -22.000;  -57.000
208.370; -166.400; -727.000; -619.000
208.516; -164.800; -741.000; -487.000
208.661;  -73.400; -127.000;  -69.000
208.806;  -66.800; -165.000; -171.000
208.952; -267.400;-1044.000; -731.000
209.097;  131.000;  378.000;  349.000
209.242;  -86.200; -307.000; -382.000
209.387;  132.900;  392.000;  350.000
209.533;  -93.000; -321.000; -350.000
209.678;  147.000;  472.000;  543.000
209.823;  -97.900; -408.000; -310.000
209.969; -203.600; -860.000; -757.000
210.114; -225.800; -907.000; -719.000
210.259; -257.200; -939.000; -889.000
210.404;    2.800; -171.000;  103.000
210.549;   33.000;  108.000;    3.000
210.695;  -54.000;   -3.000;  -95.000
210.840;   42.100;   94.000;   67.000
210.985; -102.900; -484.000; -303.000
211.130;  130.100;  268.000;  406.000
211.275;   49.000;  207.000;  199.000
211.420;  -86.500; -300.000; -289.000
211.566; -152.500; -536.000; -489.000
211.711;   51.600;  218.000;  157.000
211.856; -121.700; -545.000; -519.000
212.001;    1.400;  151.000;   44.000
212.146;   21.400;  153.000;   49.000
212.291;  -65.000; -210.000; -186.000
212.436;  -72.400; -280.000;   -6.000
212.581; -172.500; -685.000; -653.000
212.726; -147.200; -487.000; -538.000
212.871; -100.400; -552.000; -217.000
213.016; -279.800;-1172.000;-1029.000
213.161;  126.800;  406.000;  291.000
213.306; -148.800; -435.000; -577.000
213.451; -202.100; -778.000; -689.000
213.596;  -74.000; -455.000; -347.000
213.741; -119.800; -448.000; -538.000
213.886; -163.200; -498.000; -517.000
214.031;  -39.100; -294.000; -124.000
214.176; -117.500; -408.000; -341.000
214.321;  -46.700; -296.000; -157.000
214.466;  -41.300; -163.000;  -43.000
214.611;  -42.000;  -61.000;  -10.000
214.756; -250.600; -948.000; -858.000
214.901;  -54.600; -388.000; -226.000
215.046; -276.200; -797.000; -825.000
215.191;   34.500;  128.000;   35.000
215.336;  -17.600; -157.000;  -19.000
215.480; -155.300; -684.000; -505.000
215.625;  -16.400; -175.000;  -19.000
215.770; -187.900; -757.000; -662.000
215.915;   13.200;   -5.000;  -97.000
216.060;  -15.400; -113.000;  -21.000
216.205; -192.300; -731.000; -779.000
216.349; -157.600; -470.000; -533.000
216.494; -258.400; -939.000; -867.000
216.639; -248.100; -823.000; -888.000
216.784; -175.000; -577.000; -525.000
216.929;   68.000;  392.000;  281.000
217.073;  -10.300; -244.000;  -31.000
217.218;   10.700;   78.000;  -47.000
217.363; -131.100; -656.000; -618.000
217.507; -188.300; -623.000; -588.000
217.652; -226.000; -845.000; -874.000
217.797; -179.500; -708.000; -659.000
217.942; -239.900; -856.000; -720.000
218.086;  143.300;  608.000;  539.000
218.231;  -49.800; -174.000;  -26.000
218.376;  -75.300; -337.000; -229.000
218.520;   -6.200;  -41.000;   96.000
218.665;  -76.900; -338.000; -204.000
218.810;  -82.700; -275.000; -233.000
218.954;   29.900;  201.000;   35.000
219.099; -235.500; -713.000; -963.000
219.243; -137.600; -589.000; -554.000
219.388;  -55.200; -264.000; -136.000
219.532;  -49.400; -116.000; -116.000
219.677; -145.200; -564.000; -521.000
219.822;   20.600;   33.000;   89.000
219.966;   28.600;   17.000;  -99.000
220.111;  -64.800; -328.000;  -40.000
220.255; -184.400; -797.000; -750.000
220.400;  -58.500; -180.000; -146.000
220.544; -167.300; -516.000; -450.000
220.689; -111.200; -422.000; -451.000
220.833;  -40.500; -123.000;  -58.000
220.978;  -89.600; -393.000; -563.000
221.122;   34.600;  319.000;  307.000
221.267; -233.700; -906.000; -837.000
221.411; -133.500; -478.000; -394.000
221.555;  -39.400; -104.000;  -23.000
221.700;  -88.300; -329.000; -222.000
221.844;   88.500;  255.000;  272.000
221.989;  -80.200; -328.000; -311.000
222.133;  -68.900; -289.000; -307.000
222.277;    0.200;    5.000;   78.000
222.422;   23.900;  227.000;  113.000
222.566;  -60.300; -381.000; -214.000
222.711; -138.900; -414.000; -479.000
222.855; -139.200; -643.000; -586.000
222.999; -189.400; -642.000; -717.000
223.144;  -59.400; -195.000; -194.000
223.288;   89.200;  423.000;  251.000
223.432;   48.400;  184.000;  230.000
223.576;   35.500;  152.000;  -21.000
223.721;   97.900;  364.000;  273.000
223.865; -123.800; -472.000; -475.000
224.009;  512.000; 1673.000; 1631.000
224.153; -135.900; -660.000; -671.000
224.298; -169.600; -531.000; -489.000
224.442;  -75.200;  -74.000;  -33.000
224.586;   13.100; -169.000; -106.000
224.730; -213.200; -858.000; -670.000
224.875; -204.200; -739.000; -688.000
225.019;   -6.000;  102.000;  188.000
225.163;  130.800;  208.000;  341.000
225.307;   -0.800;   97.000;  -91.000
225.451;  110.300;  360.000;  481.000
225.595;   86.100;  264.000;  176.000
225.739;  -57.600; -170.000;  -94.000
225.884;    7.900;   86.000;    5.000
226.028; -186.500; -760.000; -626.000
226.172;  -82.300; -260.000; -273.000
226.316; -234.100; -941.000; -902.000
226.460; -155.600; -645.000; -493.000
226.604;  -70.000; -406.000; -400.000
226.748; -186.100; -836.000; -733.000
226.892;  -49.500; -227.000; -181.000
227.036;  -77.200; -537.000; -447.000
227.180; -116.100; -551.000; -375.000
227.324; -126.600; -561.000; -580.000
227.468; -233.400; -819.000; -717.000
227.612;   12.400;  242.000;  -28.000
227.756;   43.200; -845.000; -698.000
227.900;   60.600;  342.000;  441.000
228.044; -129.200; -509.000; -290.000
228.188;  106.300;  448.000;  568.000
228.332; -165.400; -546.000; -472.000
228.476;  -59.600; -223.000; -149.000
228.620;  -85.700; -210.000; -150.000
228.764;  122.300;  431.000;  349.000
228.908;  -23.600; -155.000;   30.000
229.052; -127.600; -615.000; -528.000
229.195;   -9.800; -172.000;   13.000
229.339;  -31.900; -235.000; -305.000
229.483;  -34.800;    5.000; -162.000
229.627;  -12.700; -156.000;  139.000
229.771;  -91.700; -218.000; -294.000
229.915;    2.000;  230.000;   79.000
230.059; -185.500; -648.000; -663.000
230.202;  -93.600; -370.000; -317.000
230.346;  -29.000; -107.000;  107.000
230.490; -119.300; -489.000; -521.000
230.634; -204.000; -736.000; -553.000
230.777;  150.900;  478.000;  509.000
230.921;  -91.800; -450.000; -359.000
231.065; -105.200; -246.000; -286.000
231.209;   47.200;  261.000;  265.000
231.352;   41.500;   54.000;   40.000
231.496;   55.400;  568.000;  188.000
231.640; -146.800; -693.000; -621.000
231.783;  173.800;  546.000;  525.000
231.927;  -83.700; -294.000; -365.000
232.071; -237.400; -962.000; -736.000
232.214; -256.700; -980.000; -764.000
232.358; -179.700; -683.000; -599.000
232.502;    5.100;  -19.000;    7.000
232.645; -278.000;-1090.000; -927.000
232.789;  -51.100; -257.000; -218.000
232.933;  -39.600; -407.000; -224.000
233.076; -249.000;-1038.000; -897.000
233.220; -184.800; -752.000; -777.000
233.363; -166.500; -669.000; -477.000
233.507;  136.200;  371.000;  129.000
233.650; -206.400; -764.000; -834.000
233.794;  124.600;  438.000;  461.000
233.938; -109.100; -530.000; -362.000
234.081;   -2.100;  -93.000;   31.000
234.225; -134.000; -631.000; -539.000
234.368; -196.500; -773.000; -723.000
234.512;  -62.700; -385.000; -299.000
234.655; -170.400; -582.000; -555.000
234.798; -156.600; -493.000; -466.000
234.942; -259.100; -884.000;-1002.000
235.085; -154.500; -651.000; -443.000
235.229; -126.600; -405.000; -410.000
235.372;  -95.500; -247.000; -191.000
235.516; -102.400; -397.000; -321.000
235.659;   27.100;   92.000;  121.000
235.802;  -19.500;  -38.000;  -22.000
235.946;   57.200;  335.000;  215.000
236.089;   63.100;  126.000;  250.000
236.233;  100.200;  275.000;  298.000
236.376;  -70.700; -235.000; -378.000
236.519; -109.500; -297.000; -319.000
236.663;  -29.400; -215.000; -117.000
236.806; -297.400;-1029.000; -999.000
236.949;  129.900;  543.000;  431.000
237.092;  124.100;  412.000;  391.000
237.236; -158.900; -589.000; -502.000
237.379;  136.800;  352.000;  428.000
237.522; -228.600; -879.000; -768.000
237.666;  -50.600; -271.000;   18.000
237.809; -253.400; -851.000; -823.000
237.952;   61.700;  469.000;  271.000
238.095; -102.000; -447.000; -442.000
238.238;  187.900;  688.000;  700.000
238.382;   -7.800;  166.000;  103.000
238.525; -105.400; -598.000; -511.000
238.668; -258.500;-1060.000; -985.000
238.811; -173.300; -638.000; -643.000
238.954;  -95.000; -483.000; -334.000
239.097;  191.400;  617.000;  664.000
239.241;   52.400;  394.000;  326.000
239.384;  -48.900; -254.000; -214.000
239.527; -109.500; -424.000; -224.000
239.670; -295.200; -994.000;-1091.000
239.813; -216.600; -696.000; -658.000
239.956;  187.300;  579.000;  473.000
240.099; -227.400; -778.000; -725.000
240.242;  133.900;  428.000;  432.000
240.385;  149.900;  466.000;  450.000
240.528; -136.700; -706.000; -473.000
240.671;   34.300;  189.000;  134.000
240.814;  -75.300; -441.000; -158.000
240.957; -185.200; -767.000; -578.000
241.100; -185.300; -779.000; -755.000
241.243; -289.600;-1234.000; -893.000
241.386; -138.500; -508.000; -379.000
241.529; -182.300; -735.000; -547.000
241.672; -106.600; -566.000; -495.000
241.815; -241.600; -832.000; -808.000
241.958;  -27.500; -125.000; -182.000
242.101; -141.200; -545.000; -390.000
242.244;  -56.100; -270.000; -325.000
242.387;  -53.300; -304.000; -246.000
242.530;   95.700;  470.000;  134.000
242.673;  -78.100; -381.000; -309.000
242.815; -230.400; -925.000; -899.000
242.958; -148.100; -482.000; -381.000
243.101;   47.000;  132.000;  187.000
243.244; -136.800; -564.000; -521.000
243.387; -103.700; -313.000; -316.000
243.530; -201.200; -657.000; -674.000
243.672;   -4.100;   43.000;  -92.000
243.815; -100.600; -355.000; -283.000
243.958;  -15.400;   98.000;  -26.000
244.101;   12.700;   59.000;  -16.000
244.243;  -28.400;  -47.000;  101.000
244.386; -205.900; -761.000; -630.000
244.529;  -39.900; -132.000; -139.000
244.672; -294.200;-1154.000; -951.000
244.814; -205.600; -621.000; -794.000
244.957;  -40.500; -380.000; -304.000
245.100; -153.800; -489.000; -489.000
245.242; -111.200; -387.000; -374.000
245.385;  -22.900;  -59.000;  -39.000
245.528; -234.600; -871.000; -705.000
245.670;  186.900;  612.000;  634.000
245.813; -129.200; -599.000; -547.000
245.956;  -59.300; -324.000; -275.000
246.098; -145.400; -508.000; -650.000
246.241;    0.100;  194.000;   48.000
246.383;    0.800; -119.000;  -73.000
246.526; -163.800; -454.000; -525.000
246.669; -227.800; -889.000; -780.000
246.811;   31.100;  172.000;   -1.000
246.954;  -86.700; -512.000; -426.000
247.096;  -37.800;  -84.000;   -6.000
247.239; -122.600; -482.000; -445.000
247.381; -150.400; -647.000; -488.000
247.524;  200.300;  645.000;  679.000
247.666;   -9.200;   58.000;   11.000
247.809; -222.600; -887.000; -691.000
247.951;  -40.300;  -75.000;  138.000
248.094;   40.600;  432.000;  308.000
248.236; -334.200;-1262.000;-1238.000
248.378;  -61.000; -356.000;  -81.000
248.521;  -94.800; -334.000; -337.000
248.663;  -60.000; -236.000; -267.000
248.806;  -83.500; -300.000; -266.000
248.948; -221.700; -886.000; -763.000
249.090; -150.300; -428.000; -398.000
249.233; -132.900; -344.000; -381.000
249.375; -146.300; -474.000; -451.000
249.518;  -32.700;  -83.000; -133.000
249.660;  -32.400; -103.000;    3.000
249.802; -353.100;-1303.000;-1189.000
249.945; -149.100; -612.000; -540.000
250.087; -254.100; -834.000; -768.000
250.229; -108.200; -362.000; -480.000
250.371; -145.100; -494.000; -439.000
250.514; -108.900; -310.000; -244.000
250.656;   47.300;   69.000;  102.000
250.798; -255.800; -849.000; -800.000
250.940; -138.600; -322.000; -322.000
251.083;  -51.000; -335.000; -111.000
251.225;  111.600;  338.000;  310.000
251.367;  -88.200; -274.000; -373.000
251.509;  -66.100; -265.000; -210.000
251.651; -216.800; -731.000; -671.000
251.794;  168.600;  538.000;  632.000
251.936; -219.900; -821.000; -747.000
252.078; -147.100; -540.000; -461.000
252.220; -171.900; -645.000; -477.000
252.362;   85.400;  344.000;  462.000
252.504; -186.000; -677.000; -584.000
252.646; -252.800; -875.000; -722.000
252.788;  -53.500;   14.000; -128.000
252.931;  -77.200; -257.000; -253.000
253.073; -111.400; -376.000; -317.000
253.215;   13.900;  141.000;  122.000
253.357;  -25.100;   82.000; -153.000
253.499; -103.400; -374.000; -234.000
253.641; -191.000; -749.000; -594.000
253.783; -191.900; -609.000; -527.000
253.925; -174.300; -586.000; -591.000
254.067; -204.500; -744.000; -667.000
254.209;  -50.900; -391.000; -259.000
254.351; -262.600; -865.000; -883.000
254.493; -132.400; -441.000; -417.000
254.635; -195.100; -936.000; -818.000
254.777; -195.600; -752.000; -687.000
254.918; -169.400; -512.000; -430.000
255.060; -163.800; -551.000; -395.000
255.202; -109.900; -473.000; -261.000
255.344; -181.700; -658.000; -455.000
255.486; -154.900; -471.000; -406.000
255.628; -227.300; -780.000; -781.000
255.770; -169.500; -676.000; -536.000
255.912; -128.500; -559.000; -468.000
256.053; -166.600; -730.000; -508.000
256.195;  296.000; 1008.000;  903.000
256.337; -200.800; -861.000; -595.000
256.479;  128.500;  532.000;  416.000
256.621;  -63.600; -394.000; -212.000
256.762; -177.700; -789.000; -742.000
256.904;   86.600;  485.000;  487.000
257.046;  -51.300; -381.000; -271.000
257.188;  -72.700; -351.000; -264.000
257.329; -177.800; -525.000; -464.000
257.471; -230.700; -939.000; -807.000
257.613; -168.900; -584.000; -498.000
257.755; -277.600;-1073.000; -982.000
257.896;   57.400;  286.000;  392.000
258.038; -125.600; -403.000; -352.000
258.180;  -91.300; -354.000; -279.000
258.321; -146.700; -581.000; -457.000
258.463;  -17.100;  -71.000;  133.000
258.605; -158.500; -562.000; -570.000
258.746; -238.600; -886.000; -772.000
258.888; -308.200;-1026.000;-1020.000
259.029;   35.800;  121.000;   -8.000
259.171; -169.900; -614.000; -550.000
259.313;  -16.100;  -49.000;  -47.000
259.454; -137.300; -536.000; -414.000
259.596; -118.500; -483.000; -390.000
259.737; -142.800; -590.000; -474.000
259.879;   72.500;  217.000;  311.000
260.020;  198.500;  901.000;  636.000
260.162;  -46.700; -146.000; -253.000
260.303; -227.800; -768.000; -687.000
260.445; -174.200; -609.000; -613.000
260.586;   69.400;  392.000;  157.000
260.728;  -83.400; -360.000; -248.000
260.869; -124.200; -350.000; -343.000
261.011;  136.900;  706.000;  537.000
261.152; -126.700; -479.000; -319.000
261.293; -141.500; -576.000; -595.000
261.435;  -49.700; -219.000; -184.000
261.576; -106.700; -455.000; -325.000
261.718;  106.800;  420.000;  470.000
261.859; -265.900; -940.000; -949.000
262.000; -255.900; -951.000;-1016.000
262.142;  -40.100;  -52.000;  -60.000
262.283; -210.700; -808.000; -691.000
262.424; -191.900; -666.000; -625.000
262.566; -300.300;-1161.000; -983.000
262.707; -255.400; -840.000; -830.000
262.848; -212.900; -769.000; -726.000
262.990;  -87.400; -362.000; -345.000
263.131;  175.800;  650.000;  681.000
263.272;  -46.500;  -61.000;  -41.000
263.413; -187.700; -589.000; -561.000
263.555; -128.900; -669.000; -143.000
263.696; -136.900; -550.000; -641.000
263.837; -135.200; -449.000; -551.000
263.978;   26.000;   -5.000;  -77.000
264.119;  -71.500; -283.000; -264.000
264.261; -237.700; -847.000; -630.000
264.402;   11.900;   33.000;   40.000
264.543; -135.800; -509.000; -524.000
264.684;  -19.600;   61.000;  -50.000
264.825; -123.100; -816.000; -538.000
264.966;  -19.000;  -84.000;  -67.000
265.107; -233.200; -646.000; -670.000
265.248; -239.900; -825.000; -812.000
265.390;  -24.000;  152.000;   -9.000
265.531;  -43.400; -238.000; -107.000
265.672; -181.600; -557.000; -630.000
265.813;  112.900;  563.000;  439.000
265.954; -265.200; -959.000; -940.000
266.095;  -23.300; -372.000; -322.000
266.236; -208.000; -686.000; -548.000
266.377;  -87.600; -243.000; -297.000
266.518; -158.300; -619.000; -547.000
266.659;   41.500;  170.000;  268.000
266.800;   17.400;   83.000;   85.000
266.941; -153.300; -487.000; -478.000
267.082;   43.300;  354.000;   99.000
267.223;  -87.600; -344.000; -273.000
267.364; -223.100; -892.000; -686.000
267.504;  -13.100;    3.000;  135.000
267.645;   13.700;  160.000;   67.000
267.786;  -72.700; -147.000;  -86.000
267.927; -145.400; -473.000; -379.000
268.068;  -29.800; -186.000;  -61.000
268.209;  -99.200; -175.000; -413.000
268.350;  -95.800; -388.000; -532.000
268.490; -160.600; -648.000; -521.000
268.631;   67.200;  127.000;  225.000
268.772; -226.700; -874.000; -647.000
268.913; -127.100; -328.000; -476.000
269.054;  -67.600; -117.000;   12.000
269.194; -105.700; -418.000; -402.000
269.335; -288.700;-1137.000;-1074.000
269.476;   -6.400;   33.000;  -35.000
269.617;  -73.000; -347.000; -392.000
269.757; -189.500; -713.000; -646.000
269.898; -188.000; -856.000; -613.000
270.039; -148.600; -415.000; -405.000
270.180; -250.000; -952.000; -816.000
270.320;  -73.800; -190.000; -250.000
270.461;  -82.000; -277.000; -249.000
270.602;  -47.800; -186.000; -156.000
270.742; -266.500; -868.000; -943.000
270.883; -135.400; -442.000; -390.000
271.023;  -76.300; -358.000; -357.000
271.164; -143.700; -607.000; -528.000
271.305; -202.900; -666.000; -654.000
271.445; -191.800; -722.000; -683.000
271.586; -146.400; -462.000; -283.000
271.726; -102.200; -397.000; -322.000
271.867; -183.100; -594.000; -534.000
272.008;  -68.100; -473.000; -285.000
272.148;  115.400;  462.000;  468.000
272.289;  -39.800; -113.000; -181.000
272.429;   -1.800;   19.000;  185.000
272.570; -222.600; -633.000; -737.000
272.710; -196.100; -825.000; -775.000
272.851;  -35.000;  113.000; -130.000
272.991; -316.800;-1173.000;-1077.000
273.131; -130.800; -419.000; -459.000
273.272; -194.500; -683.000; -723.000
273.412;  -54.400; -143.000;  -31.000
273.553; -122.800; -488.000; -507.000
273.693;  230.600;  913.000;  858.000
273.834; -239.900; -894.000; -692.000
273.974; -173.600; -664.000; -615.000
274.114; -186.500; -772.000; -560.000
274.255;   72.600;  414.000;  373.000
274.395;  -39.900; -180.000; -125.000
274.535;   45.100;  199.000;  350.000
274.676;   64.100;  225.000;   94.000
274.816;   10.300;  110.000;   34.000
274.956; -194.300; -624.000; -690.000
275.097; -281.900;-1014.000; -922.000
275.237; -229.800; -913.000; -803.000
275.377; -215.100; -778.000; -689.000
275.517; -302.900; -878.000; -937.000
275.658; -145.800; -590.000; -555.000
275.798; -153.300; -606.000; -413.000
275.938;   37.200;  215.000;  323.000
276.078; -199.600; -626.000; -395.000
276.218;   -9.100;   99.000;  104.000
276.359; -290.500;-1026.000;-1024.000
276.499; -173.000; -605.000; -446.000
276.639;  -66.600; -305.000; -151.000
276.779; -103.300; -475.000; -357.000
276.919; -231.900; -783.000; -624.000
277.059;  -50.400; -261.000; -212.000
277.199; -104.700; -357.000; -259.000
277.340;   79.700;  287.000;  175.000
277.480; -229.300; -840.000; -693.000
277.620;   71.000;  192.000;   16.000
277.760; -394.300;-1533.000;-1294.000
277.900;   13.200;  113.000;   33.000
278.040;   -0.600;  137.000;  159.000
278.180;   42.000;  270.000;  170.000
278.320;   -0.700;   21.000;   56.000
278.460; -142.200; -443.000; -469.000
278.600; -170.800; -708.000; -598.000
278.740;   93.200;  448.000;  224.000
278.880; -213.600; -768.000; -791.000
279.020;  -93.300; -194.000; -144.000
279.160; -212.400; -672.000; -595.000
279.300; -258.200; -926.000; -873.000
279.440; -188.300; -709.000; -622.000
279.579; -270.800;-1014.000; -929.000
279.719; -125.300; -410.000; -394.000
279.859;   34.000;   -4.000;   41.000
279.999;  -26.100; -208.000;  101.000
280.139; -110.400; -435.000; -387.000
280.279; -207.600; -708.000; -745.000
280.419;  -37.800; -229.000; -147.000
280.559;  -85.900; -259.000; -180.000
280.698; -181.900; -790.000; -639.000
280.838; -213.000; -778.000; -800.000
280.978; -209.900; -846.000; -790.000
281.118; -208.000; -811.000; -704.000
281.257;   -0.500;   24.000;    6.000
281.397; -293.700;-1094.000; -960.000
281.537; -216.000; -599.000; -712.000
281.677;  -62.400; -150.000; -101.000
281.816; -191.100; -700.000; -630.000
281.956;  -52.600; -193.000; -257.000
282.096; -141.500; -539.000; -396.000
282.235; -191.800; -672.000; -638.000
282.375;  -80.600; -243.000;  -98.000
282.515; -205.800; -715.000; -707.000
282.654;    0.000;   29.000;  106.000
282.794;   61.100;  388.000;  244.000
282.934; -139.900; -530.000; -491.000
283.073; -280.300;-1030.000; -857.000
283.213; -115.700; -460.000; -467.000
283.353; -114.400; -408.000; -349.000
283.492;  -70.500; -264.000; -296.000
283.632;  -78.700; -254.000; -168.000
283.771; -197.500; -859.000; -730.000
283.911; -105.600; -369.000; -260.000
284.050; -253.200; -794.000; -748.000
284.190; -292.300;-1229.000;-1096.000
284.329; -308.900;-1055.000; -964.000
284.469; -206.400; -516.000; -591.000
284.608; -146.200; -559.000; -598.000
284.748; -162.100; -614.000; -570.000
284.887;  -15.600;  -87.000;  -20.000
285.027; -245.000; -844.000; -892.000
285.166;  -76.900; -192.000; -249.000
285.306;  -33.300; -116.000;  -33.000
285.445; -103.200; -229.000; -343.000
285.584; -159.300; -630.000; -494.000
285.724;  -89.600; -282.000; -322.000
285.863; -225.900; -857.000; -507.000
286.002; -119.500; -366.000; -276.000
286.142; -190.500; -715.000; -622.000
286.281; -152.000; -525.000; -493.000
286.420; -143.500; -554.000; -417.000
286.560;  171.000;  653.000;  623.000
286.699; -266.400; -958.000; -912.000
286.838; -170.700; -590.000; -591.000
286.978; -200.500; -533.000; -537.000
287.117; -281.900;-1085.000; -950.000
287.256;  -82.400; -228.000; -211.000
287.395;  -91.900; -197.000; -378.000
287.535; -124.800; -370.000; -298.000
287.674; -161.900; -509.000; -484.000
287.813;  131.600;  661.000;  533.000
287.952; -265.200;-1010.000; -871.000
288.091; -296.600;-1049.000; -915.000
288.231;    1.000;   13.000;   15.000
288.370; -356.500;-1217.000;-1200.000
288.509; -148.800; -728.000; -645.000
288.648; -196.200; -770.000; -548.000
288.787;  -69.900; -243.000;  -87.000
288.926; -143.300; -454.000; -475.000
289.065;  237.000;  859.000;  672.000
289.204; -122.300; -377.000; -217.000
289.344; -203.500; -791.000; -690.000
289.483;   14.000;  416.000;  304.000
289.622;  -85.900; -291.000; -149.000
289.761;  -26.600; -309.000; -166.000
289.900; -244.600; -785.000; -626.000
290.039;  -39.700;  -12.000;  -95.000
290.178;  -75.500; -274.000; -180.000
290.317; -179.900; -618.000; -479.000
290.456; -148.600; -463.000; -451.000
290.595; -257.900; -961.000; -833.000
290.734; -293.100; -904.000; -891.000
290.873; -134.700; -456.000; -420.000
291.011; -230.400; -833.000; -843.000
291.150; -188.100; -770.000; -682.000
291.289;  -58.400; -343.000; -110.000
291.428; -196.300; -599.000; -480.000
291.567; -125.800; -370.000; -442.000
291.706;  -21.000;  109.000;  154.000
291.845; -177.800; -597.000; -505.000
291.984; -339.100;-1234.000;-1061.000
292.122;  134.200;  602.000;  582.000
292.261;  109.200;  620.000;  463.000
292.400;  -31.800; -144.000;  211.000
292.539; -238.200; -959.000; -813.000
292.678;  -82.200; -325.000; -300.000
292.816; -291.300;-1136.000; -965.000
292.955; -221.200; -844.000; -684.000
293.094;  -56.200; -173.000; -337.000
293.233; -122.100; -556.000; -400.000
293.371;  -67.300; -225.000;  -84.000
293.510; -239.700; -866.000; -780.000
293.649; -293.000; -959.000; -924.000
293.787; -319.800;-1083.000;-1012.000
293.926;  -52.100; -113.000;  -32.000
294.065; -121.100; -379.000; -290.000
294.203;   91.000;  298.000;  406.000
294.342;   14.500;   74.000;  156.000
294.481;11778.300;51180.000; -836.000
294.619;  -86.900; -425.000; -582.000
294.758; -312.200;-1230.000;-1137.000
294.896;  -29.100; -125.000;    5.000
295.035; -293.500;-1040.000;-1006.000
295.174; -271.400;-1082.000; -954.000
295.312;  -88.400; -323.000; -203.000
295.451; -110.500; -307.000; -428.000
295.589; -128.000; -389.000; -518.000
295.728;    1.400; -292.000; -165.000
295.866;  -44.500;  -36.000;  -51.000
296.005; -196.400; -584.000; -341.000
296.143; -197.200; -558.000; -596.000
296.282; -228.000; -957.000; -881.000
296.420; -152.700; -657.000; -557.000
296.559; -240.300; -892.000; -633.000
296.697; -193.700; -847.000; -665.000
296.835; -342.900;-1141.000;-1002.000
296.974;   14.200;  -23.000;   39.000
297.112; -166.300; -443.000; -504.000
297.251; -223.200; -815.000; -755.000
297.389; -152.600; -576.000; -438.000
297.527;  -19.400; -145.000;  -83.000
297.666; -159.900; -486.000; -438.000
297.804; -133.100; -404.000; -264.000
297.942;  -37.200; -136.000; -161.000
298.081;  -22.600; -183.000;   63.000
298.219;  -36.200;  -17.000;  -19.000
298.357; -104.500; -144.000;  -71.000
298.495; -248.800; -810.000; -812.000
298.634;   -1.200;  245.000;  219.000
298.772; -132.400; -220.000; -338.000
298.910; -107.800; -309.000; -182.000
299.048;  -57.000; -130.000; -153.000
299.187;  -79.400; -350.000; -250.000
299.325;  -22.100;   52.000;  122.000
299.463; -116.700; -389.000; -299.000
299.601;  -95.100; -327.000; -271.000
299.739; -262.500; -908.000; -883.000
299.877; -194.800; -791.000; -703.000
300.016; -322.100;-1095.000; -935.000
300.154;  -43.800;  -19.000; -161.000
300.292; -159.500; -428.000; -348.000
300.430; -108.600; -408.000; -291.000
300.568; -259.100; -940.000; -874.000
300.706; -146.300; -366.000; -469.000
300.844; -287.300;-1108.000; -979.000
300.982;   87.000;  246.000;  282.000
301.120; -303.700; -965.000; -866.000
301.258; -232.500; -812.000; -705.000
301.396;    7.300;  104.000;  -41.000
301.534;  -98.600; -218.000; -293.000
301.672; -187.400; -664.000; -521.000
301.810; -174.500; -613.000; -545.000
301.948;   21.400;   53.000;  149.000
302.086;  -33.800; -250.000;  -32.000
302.224; -205.200; -610.000; -585.000
302.362; -178.300; -558.000; -622.000
302.500; -252.100; -923.000; -893.000
302.638;   18.100;  128.000;  245.000
302.776;  -46.600; -352.000; -408.000
302.913;   80.500;  447.000;  236.000
303.051;  -61.600;  -86.000;  -23.000
303.189;   20.900;   90.000;  118.000
303.327; -115.300; -341.000; -256.000
303.465; -169.300; -832.000; -588.000
303.603; -190.100; -805.000; -604.000
303.740;   75.600;  417.000;  241.000
303.878; -208.100; -800.000; -759.000
304.016; -223.300; -915.000; -790.000
304.154; -339.800;-1123.000;-1152.000
304.291; -161.000; -505.000; -554.000
304.429;    5.500;  102.000;   74.000
304.567; -294.700; -908.000; -893.000
304.705; -127.100; -408.000; -515.000
304.842; -205.400; -616.000; -540.000
304.980;   14.800;  215.000;   35.000
305.118;  -85.200; -367.000; -365.000
305.255; -251.500; -945.000; -927.000
305.393;   56.900;  178.000;  239.000
305.531; -287.900;-1173.000; -956.000
305.668; -176.500; -663.000; -582.000
305.806; -120.100; -358.000; -439.000
305.943; -205.000; -629.000; -637.000
306.081;  -74.900; -378.000; -267.000
306.219; -240.300; -863.000; -748.000
306.356;   -3.400;  158.000;   27.000
306.494;  168.500;  981.000;  761.000
306.631;  -24.400;  -11.000;  -55.000
306.769; -134.700; -613.000; -485.000
306.906; -134.200; -284.000; -258.000
307.044; -170.000; -473.000; -488.000
307.181; -128.400; -410.000; -332.000
307.319;   15.100;  112.000;   87.000
307.456; -316.800;-1191.000;-1153.000
307.594; -250.100; -980.000; -727.000
307.731;  -82.900; -371.000; -164.000
307.868;  -46.300;  -15.000;   20.000
308.006; -269.300; -961.000; -847.000
308.143; -183.700; -618.000; -330.000
308.281;  -59.300;  -37.000; -254.000
308.418; -190.700; -748.000; -640.000
308.555; -146.900; -400.000; -250.000
308.693; -145.000; -577.000; -573.000
308.830; -233.200; -712.000; -657.000
308.967;  -35.100; -215.000;  -95.000
309.105;  -98.800; -507.000; -396.000
309.242; -154.000; -468.000; -367.000
309.379; -178.400; -577.000; -655.000
309.517; -257.200; -936.000; -948.000
309.654; -250.500; -910.000; -734.000
309.791; -207.900; -662.000; -580.000
309.928; -259.700; -977.000; -914.000
310.065;  143.800;  819.000;  697.000
310.203; -274.900; -825.000; -850.000
310.340; -166.900; -465.000; -321.000
310.477; -168.800; -412.000; -516.000
310.614; -164.700; -383.000; -473.000
310.751; -150.800; -427.000; -518.000
310.889;  -35.300;    1.000;   11.000
311.026; -309.800;-1161.000; -939.000
311.163; -138.400; -386.000; -380.000
311.300; -170.600; -512.000; -479.000
311.437; -223.800; -658.000; -619.000
311.574; -328.800;-1226.000; -985.000
311.711; -162.700; -595.000; -433.000
311.848; -107.100; -380.000; -388.000
311.985;   21.200;  270.000;   93.000
312.122; -283.600; -932.000; -762.000
312.259; -264.200; -941.000; -994.000
312.396; -180.500; -508.000; -551.000
312.533; -218.800; -812.000; -790.000
312.670; -288.900;-1070.000; -898.000
312.807; -119.300; -352.000; -367.000
312.944; -184.300; -513.000; -611.000
313.081; -143.500; -150.000; -415.000
313.218; -299.600;-1111.000; -867.000
313.355; -145.800; -531.000; -449.000
313.492; -103.000; -455.000; -292.000
313.629;  184.000;  815.000;  735.000
313.766; -340.300;-1176.000;-1008.000
313.902;  -44.300; -186.000;   21.000
314.039; -112.300; -372.000; -289.000
314.176;   19.400;  286.000;  192.000
314.313; -149.100; -569.000; -473.000
314.450; -190.600; -788.000; -684.000
314.587; -161.400; -468.000; -480.000
314.723;  -22.300;  -78.000;  130.000
314.860;   19.900;  318.000;  332.000
314.997;   -5.000;  223.000;  142.000
315.134; -147.500; -385.000; -368.000
315.270; -157.300; -480.000; -496.000
315.407; -298.300;-1094.000; -967.000
315.544; -173.400; -657.000; -538.000
315.681; -194.900; -681.000; -565.000
315.817;  -62.000; -133.000; -176.000
315.954; -157.100; -613.000; -392.000
316.091; -345.600;-1045.000;-1023.000
316.227;  -79.900;  -71.000; -179.000
316.364;  -23.500;   23.000;    6.000
316.500;  -85.300; -113.000; -300.000
316.637;  -88.800; -181.000; -302.000
316.774; -172.700; -625.000; -358.000
316.910; -186.100; -598.000; -629.000
317.047; -157.300; -487.000; -351.000
317.183; -153.900; -435.000; -566.000
317.320; -112.800; -367.000; -321.000
317.456; -238.300; -733.000; -805.000
317.593; -196.600; -598.000; -641.000
317.729;  -39.800;  168.000;  -67.000
317.866; -408.700;-1434.000;-1285.000
318.002; -179.800; -708.000; -948.000
318.139; -257.000; -883.000; -867.000
318.275; -261.800;-1003.000; -738.000
318.412; -153.300; -517.000; -336.000
318.548; -206.500; -751.000; -720.000
318.685; -285.000; -985.000; -888.000
318.821; -205.500; -762.000; -735.000
318.957;  -41.100;   34.000;  -23.000
319.094;   53.500;  297.000;  154.000
319.230; -231.700; -756.000; -742.000
319.367; -170.200; -471.000; -520.000
319.503; -156.900; -538.000; -436.000
319.639; -255.500; -877.000; -793.000
319.775; -201.400; -750.000; -685.000
319.912; -144.000; -424.000; -519.000
320.048; -360.900;-1184.000;-1184.000
320.184;   -1.800;   59.000;   70.000
320.321; -158.700; -497.000; -467.000
320.457;   93.800;  475.000;  662.000
320.593; -116.100; -375.000; -382.000
320.729; -246.800; -732.000; -734.000
320.866; -192.600; -577.000; -635.000
321.002; -232.200; -759.000; -809.000
321.138; -120.400; -135.000; -211.000
321.274;  -61.300; -148.000; -115.000
321.410; -144.100; -585.000; -353.000
321.546; -282.100;-1011.000; -911.000
321.683;   41.600;  400.000;  185.000
321.819;  -51.400;  -48.000; -117.000
321.955; -212.200; -743.000; -722.000
322.091; -159.700; -585.000; -540.000
322.227; -115.800; -382.000; -202.000
322.363; -112.300; -320.000; -215.000
322.499; -129.800; -343.000; -331.000
322.635;  118.000;  636.000;  443.000
322.771;  -55.800; -139.000;   12.000
322.907;   69.500;  129.000;  327.000
323.043;  -90.400; -115.000; -206.000
323.179; -138.400; -394.000; -363.000
323.315; -116.500; -401.000; -371.000
323.451;  -99.300; -328.000; -236.000
323.587;  -79.500;  -60.000;  -77.000
323.723; -214.300; -682.000; -601.000
323.859;  -58.600; -258.000;  -76.000
323.995; -137.500; -467.000; -409.000
324.131; -277.400; -967.000; -892.000
324.267; -106.700; -254.000; -276.000
324.402; -309.500; -960.000; -983.000
324.538;  -93.100; -279.000; -104.000
324.674;   32.100;  164.000;   77.000
324.810;  -26.900;  226.000;  308.000
324.946; -127.100; -810.000; -658.000
325.082; -134.900; -568.000; -475.000
325.217;  -30.400;  -62.000;   16.000
325.353; -245.500; -764.000; -659.000
325.489; -176.100; -540.000; -506.000
325.625; -172.400; -579.000; -525.000
325.760;   51.300;  517.000;  376.000
325.896; -186.700; -515.000; -702.000
326.032; -118.000; -403.000; -352.000
326.168; -112.000; -462.000; -369.000
326.303; -141.800; -352.000; -461.000
326.439;  -83.500; -336.000; -276.000
326.575;  -58.700; -190.000;  -29.000
326.710;  -47.200; -156.000;  -30.000
326.846;  -36.500;  146.000;  103.000
326.982; -191.200; -530.000; -548.000
327.117; -137.900; -481.000; -442.000
327.253; -212.300; -745.000; -742.000
327.388; -380.800;-1137.000;-1153.000
327.524; -217.100; -811.000; -578.000
327.659;  -52.200;  -58.000;  -22.000
327.795;  -53.800;   69.000;   45.000
327.931; -181.000; -723.000; -499.000
328.066; -121.000; -417.000; -276.000
328.202; -101.900;   12.000; -129.000
328.337;  189.200;  957.000;  713.000
328.473;  -51.800;  -12.000;  -74.000
328.608;  -74.800; -256.000; -267.000
328.743; -250.800; -799.000; -664.000
328.879;    7.600;  214.000;  114.000
329.014; -142.600; -102.000; -122.000
329.150; -173.500; -358.000; -483.000
329.285; -186.300; -465.000; -466.000
329.421; -118.900; -548.000; -246.000
329.556;  -12.500;  -36.000;   85.000
329.691; -181.600; -633.000; -615.000
329.827; -138.400; -626.000; -480.000
329.962; -102.900;  131.000; -301.000
330.097; -205.500; -673.000; -585.000
330.233; -144.800; -410.000; -223.000
330.368; -242.000; -839.000; -628.000
330.503;  -17.200;    3.000;   98.000
330.638;  -36.900;  -93.000; -125.000
330.774; -165.600; -609.000; -530.000
330.909;  -82.100; -434.000; -244.000
331.044; -202.400; -714.000; -708.000
331.179; -326.700;-1217.000;-1109.000
331.315;    2.600;   77.000;   20.000
331.450;   -2.800;  157.000;  285.000
331.585; -237.700; -805.000; -706.000
331.720; -169.600; -510.000; -460.000
331.855;  -52.200;  -35.000; -102.000
331.990;  -34.000;   62.000;  138.000
332.126;  -30.900; -110.000;   71.000
332.261; -109.900; -379.000; -265.000
332.396; -107.900; -135.000; -242.000
332.531; -307.600;-1074.000;-1031.000
332.666; -105.700; -519.000; -363.000
332.801; -206.100; -726.000; -807.000
332.936;  -68.600; -192.000; -122.000
333.071; -281.100; -870.000; -817.000
333.206;   18.400;  307.000;  379.000
333.341;   69.100;  344.000;  418.000
333.476; -187.500; -627.000; -623.000
333.611;  -65.300; -251.000; -173.000
333.746; -129.600; -381.000; -464.000
333.881; -248.700; -973.000; -935.000
334.016; -269.500; -936.000; -917.000
334.151; -278.100; -746.000; -702.000
334.286;  -24.700;  152.000;  186.000
334.421;  -52.200; -125.000; -178.000
334.556; -214.600; -611.000; -567.000
334.690; -181.800; -631.000; -577.000
334.825;   83.200;  381.000;   83.000
334.960; -150.500; -285.000; -413.000
335.095;  -55.900;  135.000;  -91.000
335.230; -255.100; -722.000; -738.000
335.365; -305.900;-1084.000; -990.000
335.499; -344.100;-1108.000;-1037.000
335.634;  -26.200;    9.000;  534.000
335.769; -239.400; -755.000; -720.000
335.904; -200.400; -603.000; -561.000
336.038; -206.400; -735.000; -657.000
336.173; -353.900;-1206.000;-1194.000
336.308;  -84.100; -116.000; -189.000
336.443; -144.800; -544.000; -634.000
336.577; -251.100; -936.000; -787.000
336.712;  -55.300;   -4.000;  -12.000
336.847; -248.000; -724.000; -607.000
336.981;  -95.200; -272.000; -208.000
337.116;  120.500;  615.000;  501.000
337.250; -132.000; -434.000; -421.000
337.385; -117.500; -297.000; -208.000
337.520; -206.300; -632.000; -603.000
337.654;  -81.100; -215.000; -126.000
337.789; -281.800; -989.000; -933.000
337.923;  -88.700; -104.000; -205.000
338.058; -220.500; -673.000; -738.000
338.192; -172.500; -611.000; -488.000
338.327;  -76.800;  -18.000; -155.000
338.461; -147.000; -299.000; -469.000
338.596; -217.100; -780.000; -638.000
338.730; -253.300; -767.000; -803.000
338.865;  -25.900;  -46.000; -140.000
338.999; -233.600; -846.000; -702.000
339.134; -176.300; -634.000; -536.000
339.268; -186.900; -741.000; -603.000
339.403; -216.000; -740.000; -775.000
339.537; -255.800; -894.000; -820.000
339.671; -264.800; -829.000; -813.000
339.806; -186.400; -556.000; -512.000
339.940;  -64.700; -261.000; -235.000
340.074; -191.400; -685.000; -510.000
340.209; -140.600; -351.000; -230.000
340.343; -197.700; -517.000; -573.000
340.477;  279.000;  998.000; 1036.000
340.612; -284.900;-1033.000; -900.000
340.746;  -75.300; -199.000; -243.000
340.880; -267.400; -924.000; -785.000
341.014;  -45.200;  -45.000; -154.000
341.149; -231.500; -756.000; -718.000
341.283; -243.500; -839.000; -754.000
341.417; -315.300;-1124.000; -938.000
341.551; -226.600; -768.000; -708.000
341.685; -205.100; -633.000; -611.000
341.820; -183.300; -562.000; -493.000
341.954; -132.300; -218.000; -349.000
342.088; -318.600;-1102.000;-1019.000
342.222;   67.600;  565.000;  618.000
342.356; -150.600; -395.000; -335.000
342.490; -238.300; -880.000; -841.000
342.624; -121.500; -339.000; -242.000
342.758; -106.800; -364.000; -312.000
342.892; -213.500; -710.000; -585.000
343.026;  -75.400;  -58.000; -116.000
343.160; -114.600; -426.000; -376.000
343.294; -185.400; -474.000; -337.000
343.428; -150.800; -488.000; -448.000
343.562;  -45.100; -172.000;  -23.000
343.696; -105.400; -385.000; -314.000
343.830; -114.400; -362.000; -356.000
343.964;  -50.100; -231.000; -168.000
344.098;  -10.600;  199.000;   70.000
344.232;  -75.700; -266.000; -127.000
344.366; -201.100; -567.000; -453.000
344.500; -187.300; -665.000; -744.000
344.634; -102.800; -324.000; -164.000
344.768; -180.000; -531.000; -341.000
344.902;   25.900;  278.000;  256.000
345.035; -158.100; -556.000; -496.000
345.169; -280.100; -933.000; -656.000
345.303; -130.100; -308.000; -482.000
345.437; -243.700; -826.000; -717.000
345.571; -211.900; -675.000; -594.000
345.704; -145.600; -309.000; -532.000
345.838; -104.200; -331.000; -284.000
345.972; -177.900; -543.000; -495.000
346.106;  -23.000; -179.000; -190.000
346.239;  -77.900; -312.000; -243.000
346.373; -123.200; -343.000; -302.000
346.507; -321.700; -950.000; -962.000
346.640;  -77.400;  -30.000;   13.000
346.774; -221.400; -650.000; -797.000
346.908;  -65.800; -138.000;  -11.000
347.041; -186.600; -646.000; -593.000
347.175;  -16.100;  259.000;   27.000
347.309; -227.200; -698.000; -628.000
347.442; -270.700; -883.000; -732.000
347.576;  166.300;  670.000;  668.000
347.709;  -74.900; -123.000;  -52.000
347.843; -263.800; -933.000; -825.000
347.976;   41.500;  235.000;  294.000
348.110; -371.500;-1268.000;-1186.000
348.243; -220.000; -679.000; -772.000
348.377;  -23.600;  -26.000;   60.000
348.510;   77.800;  403.000;  540.000
348.644; -104.700;  -37.000; -159.000
348.777;  -12.300;  180.000;  191.000
348.911;  -85.200; -142.000; -112.000
349.044;   93.600;  471.000;  448.000
349.178; -329.300;-1069.000;-1006.000
349.311;   20.100;  141.000;  255.000
349.444; -270.500; -927.000; -813.000
349.578; -103.100; -347.000; -200.000
349.711; -281.800; -959.000; -862.000
349.845; -240.900; -661.000; -591.000
349.978; -365.600;-1224.000;-1137.000
350.111; -223.100; -546.000; -612.000
350.244; -207.800; -596.000; -700.000
350.378; -171.300; -392.000; -393.000
350.511; -137.800; -393.000; -426.000
350.644; -245.700; -808.000; -806.000
350.778;  -18.900;  168.000;  104.000
350.911;  -14.400;  134.000;  140.000
351.044; -203.800; -685.000; -615.000
351.177;  -86.800; -321.000; -281.000
351.310;  -19.700;    3.000; -131.000
351.444; -267.900; -888.000; -788.000
351.577;    6.700;  140.000;   90.000
351.710;  112.500;  593.000;  417.000
351.843;  -60.000; -165.000;  -77.000
351.976;  -34.300;  149.000;  -79.000
352.109; -187.600; -621.000; -612.000
352.242; -157.100; -464.000; -419.000
352.376; -182.500; -580.000; -636.000
352.509; -147.800; -437.000; -356.000
352.642; -314.100; -654.000; -604.000
352.775;  -78.800; -141.000;  -98.000
352.908; -273.700; -933.000; -904.000
353.041; -255.300; -814.000; -824.000
353.174; -161.900; -551.000; -424.000
353.307; -240.500; -753.000; -764.000
353.440;   96.100;  541.000;  453.000
353.573; -268.100; -957.000;-1008.000
353.706; -223.600; -384.000; -558.000
353.839; -110.000; -264.000; -220.000
353.971; -205.500; -657.000; -512.000
354.104; -251.300; -896.000; -835.000
354.237; -205.900; -627.000; -662.000
354.370; -263.300; -846.000; -879.000
354.503; -370.500;-1231.000;-1308.000
354.636; -164.600; -529.000; -348.000
354.769; -287.900; -937.000; -860.000
354.902;  -90.600; -230.000; -139.000
355.034;  -83.300; -164.000; -220.000
355.167;  -85.900; -262.000; -162.000
355.300; -286.200;-1061.000; -880.000
355.433;  -24.600;  -71.000;  -14.000
355.565; -160.400; -402.000; -384.000
355.698; -140.100; -356.000; -296.000
355.831; -276.900; -882.000; -801.000
355.964; -110.400; -285.000; -170.000
356.096; -260.500; -856.000; -843.000
356.229; -185.400; -523.000; -530.000
356.362; -112.400; -373.000; -266.000
356.494;  -79.800; -229.000; -162.000
356.627;   17.100;  269.000;  377.000
356.760;  -19.300;  120.000;   53.000
356.892; -225.800; -286.000; -601.000
357.025;   84.700;  403.000;  389.000
357.157;  -80.100; -167.000; -179.000
357.290; -252.000; -856.000; -713.000
357.423; -210.600; -667.000; -556.000
357.555;  -80.500; -217.000; -228.000
357.688; -153.200; -483.000; -364.000
357.820; -288.700; -870.000; -877.000
357.953; -190.500; -563.000; -589.000
358.085; -217.200; -632.000; -612.000
358.218; -319.800;-1131.000; -932.000
358.350;  -29.500;  -58.000;  312.000
358.483; -366.700;-1300.000;-1187.000
358.615; -313.500;-1182.000;-1078.000
358.747; -345.100;-1187.000;-1058.000
358.880; -223.000; -810.000; -744.000
359.012; -137.400; -376.000; -202.000
359.145; -175.700; -480.000; -511.000
359.277; -316.800; -962.000; -913.000
359.409;   73.700;  536.000;  231.000
359.542; -245.100; -738.000; -688.000
359.674;  -34.300;   46.000;   13.000
359.806; -187.000; -565.000; -438.000
359.939; -153.600; -617.000; -516.000
360.071; -212.400; -583.000; -579.000
360.203; -120.800; -411.000; -364.000
360.335;  -30.700;  164.000;  -16.000
360.468; -114.400; -249.000; -307.000
360.600; -211.800; -547.000; -454.000
360.732; -194.900; -546.000; -423.000
360.864; -372.600;-1216.000;-1044.000
360.996; -141.000; -516.000; -554.000
361.129; -171.300; -389.000; -598.000
361.261;  -62.200;  110.000; -113.000
361.393; -112.500; -252.000; -214.000
361.525;  -19.900;   94.000;  244.000
361.657; -243.000; -821.000; -703.000
361.789;  -69.900; -139.000; -155.000
361.921; -201.900; -642.000; -593.000
362.053;  143.600;  524.000;  541.000
362.185;  -25.000;  288.000;   72.000
362.318; -212.900; -709.000; -705.000
362.450;   42.600;  294.000;  444.000
362.582; -285.500; -913.000; -870.000
362.714; -128.500; -353.000; -332.000
362.846; -178.500; -606.000; -490.000
362.978; -309.900; -941.000; -811.000
363.109; -127.200; -161.000; -260.000
363.241; -206.500; -739.000; -749.000
363.373; -191.400; -649.000; -564.000
363.505;  -52.800; -186.000;  -91.000
363.637; -242.200; -787.000; -601.000
363.769; -332.000;-1067.000;-1080.000
363.901; -194.800; -596.000; -654.000
364.033; -318.600;-1103.000;-1062.000
364.165;  -98.000; -283.000; -283.000
364.296;  -98.300; -316.000; -177.000
364.428; -393.200;-1344.000;-1220.000
364.560; -213.000; -679.000; -661.000
364.692; -229.600; -738.000; -835.000
364.824; -200.600; -588.000; -456.000
364.955; -121.800; -402.000; -564.000
365.087; -316.900;-1097.000; -852.000
365.219; -240.400; -686.000; -816.000
365.351; -202.400; -526.000; -572.000
365.482;   22.100;  300.000;  240.000
365.614; -143.400; -402.000; -314.000
365.746; -222.700; -729.000; -752.000
365.877; -232.400; -706.000; -672.000
366.009;  -45.300;  -35.000;  -62.000
366.141; -352.200;-1249.000;-1134.000
366.272; -263.300; -803.000; -719.000
366.404; -233.800;-1005.000; -874.000
366.535;  -20.700; -139.000;  -12.000
366.667; -226.600; -644.000; -649.000
366.799;   57.200;  353.000;  203.000
366.930; -298.600; -862.000; -996.000
367.062; -209.000; -639.000; -613.000
367.193; -239.500; -872.000; -842.000
367.325; -194.200; -580.000; -684.000
367.456;  -92.000; -246.000;   31.000
367.588; -129.300; -371.000; -318.000
367.719;  -77.000;  -44.000;  -45.000
367.851;  -83.400; -222.000; -241.000
367.982; -262.300; -875.000; -732.000
368.113; -157.200; -475.000; -358.000
368.245; -305.000; -960.000; -841.000
368.376; -121.400; -254.000; -302.000
368.508; -103.200; -188.000; -263.000
368.639; -326.300;-1166.000;-1034.000
368.770; -194.100; -670.000; -589.000
368.902; -279.900; -836.000; -926.000
369.033; -256.100; -906.000; -855.000
369.164; -216.900; -720.000; -653.000
369.296; -243.900; -452.000; -601.000
369.427;  -61.900; -209.000; -144.000
369.558; -203.700; -593.000; -377.000
369.689; -193.000; -721.000; -569.000
369.821; -299.100; -951.000; -845.000
369.952;  -43.200;   42.000; -108.000
370.083; -119.700; -229.000; -108.000
370.214; -228.400; -735.000; -650.000
370.345;  -34.000;   65.000;   81.000
370.477; -243.800; -810.000; -790.000
370.608; -110.200; -328.000; -264.000
370.739; -365.000;-1233.000;-1292.000
370.870; -290.600;-1102.000; -923.000
371.001; -132.200; -378.000; -467.000
371.132; -214.600; -754.000; -735.000
371.263;  -45.100;  -42.000; -148.000
371.394; -231.000; -841.000; -748.000
371.525;   49.500;  345.000;  225.000
371.657; -267.700; -808.000; -670.000
371.788;  -19.500;  103.000;  199.000
371.919; -166.800; -384.000; -304.000
372.050;  -65.800;  -91.000; -156.000
372.181;  -10.200; -188.000; -294.000
372.311;  -26.400;   42.000; -127.000
372.442; -171.200; -457.000; -451.000
372.573; -107.300; -444.000; -340.000
372.704; -312.000;-1008.000; -980.000
372.835; -116.700; -228.000; -289.000
372.966; -217.900; -646.000; -554.000
373.097; -227.300; -575.000; -711.000
373.228; -208.400; -717.000; -542.000
373.359; -208.500; -824.000; -536.000
373.490; -248.600; -881.000; -727.000
373.620; -304.400;-1001.000; -803.000
373.751; -172.400; -332.000; -396.000
373.882; -221.600; -663.000; -733.000
374.013; -113.200; -449.000; -262.000
374.143; -197.100; -581.000; -659.000
374.274; -300.800; -987.000; -908.000
374.405; -105.500; -388.000; -276.000
374.536; -178.000; -526.000; -387.000
374.666; -250.500; -759.000; -807.000
374.797; -245.300; -817.000; -868.000
374.928; -230.700; -710.000; -560.000
375.058; -179.500; -535.000; -500.000
375.189;  -25.800;  -59.000;  -93.000
375.320; -323.600; -928.000;-1034.000
375.450; -211.900; -625.000; -616.000
375.581; -172.600; -526.000; -436.000
375.712; -114.500; -574.000; -250.000
375.842; -185.800; -438.000; -415.000
375.973; -177.900; -554.000; -513.000
376.103; -202.100; -665.000; -648.000
376.234; -209.000; -531.000; -552.000
376.364; -284.500; -944.000; -867.000
376.495;  170.400;  925.000;  529.000
376.625; -193.900; -472.000; -485.000
376.756; -236.800; -709.000; -678.000
376.886; -359.600;-1178.000;-1026.000
377.017; -319.500;-1048.000;-1061.000
377.147; -279.400; -786.000; -782.000
377.278;   22.500;  174.000;  228.000
377.408; -256.100; -801.000; -815.000
377.538; -249.100; -707.000; -693.000
377.669; -178.200; -537.000; -613.000
377.799; -239.300; -645.000; -635.000
377.929; -163.400; -610.000; -428.000
378.060; -292.500; -781.000; -847.000
378.190; -227.500; -726.000; -531.000
378.320; -145.200; -401.000; -406.000
378.451;  -52.600; -131.000;  -22.000
378.581;  -51.700;  -67.000; -110.000
378.711;  214.900; 1035.000;  866.000
378.841; -180.700; -533.000; -675.000
378.972; -261.200; -871.000; -751.000
379.102; -218.800; -652.000; -579.000
379.232; -111.400; -126.000;  -73.000
379.362; -287.900;-1001.000; -885.000
379.492; -162.900; -373.000; -424.000
379.623;    4.300;    0.000;  111.000
379.753; -327.000;-1107.000; -974.000
379.883;  -28.800;   59.000;  156.000
380.013; -335.200;-1081.000;-1017.000
380.143; -332.100;-1097.000;-1056.000
380.273; -293.200; -985.000; -861.000
380.403; -130.100; -344.000; -257.000
380.533; -240.900; -651.000; -664.000
380.663;    4.200;  173.000;  128.000
380.793; -336.100;-1027.000;-1074.000
380.923; -109.500; -103.000;  -34.000
381.053; -202.200; -613.000; -623.000
381.183;  -73.800; -106.000; -248.000
381.313; -211.700; -656.000; -470.000
381.443; -171.600; -692.000; -473.000
381.573; -167.100; -402.000; -409.000
381.703; -339.500;-1249.000;-1095.000
381.833; -431.100;-1454.000;-1336.000
381.963;  -45.700; -134.000;  -87.000
382.093; -284.700; -925.000; -909.000
382.223; -225.700; -713.000; -602.000
382.353; -247.900; -801.000; -608.000
382.482; -333.900;-1091.000; -964.000
382.612; -249.100; -872.000; -644.000
382.742; -203.700; -695.000; -622.000
382.872; -175.300; -565.000; -551.000
383.002;  -20.700;  347.000; -132.000
383.131; -115.600; -226.000; -160.000
383.261; -227.900; -706.000; -768.000
383.391; -156.400; -552.000; -377.000
383.521;   76.600;  451.000;  263.000
383.650; -298.000; -947.000; -904.000
383.780; -214.000; -783.000; -656.000
383.910;  143.200;  880.000;  802.000
384.039; -244.700; -794.000; -656.000
384.169; -370.600;-1205.000;-1017.000
384.299; -221.400; -650.000; -662.000
384.428; -220.900; -764.000; -680.000
384.558; -115.800; -308.000; -275.000
384.687; -122.700; -414.000; -334.000
384.817;  -35.400;   75.000;   -2.000
384.947;  -55.800; -234.000; -141.000
385.076;  187.200;  982.000;  912.000
385.206;   91.400;  369.000;  480.000
385.335; -171.600; -549.000; -417.000
385.465; -214.600; -655.000; -663.000
385.594;  -39.800;  -53.000;  -44.000
385.724; -259.000; -868.000; -838.000
385.853; -125.600; -296.000; -270.000
385.982; -259.300; -743.000; -787.000
386.112; -293.000;-1052.000; -871.000
386.241; -119.100; -307.000; -312.000
386.371; -122.600; -174.000;  -87.000
386.500; -266.900; -825.000; -789.000
386.629; -248.400; -874.000; -817.000
386.759;  -42.400;  -43.000;   68.000
386.888; -101.500; -170.000; -250.000
387.017; -228.000; -648.000; -620.000
387.147; -254.200; -771.000; -798.000
387.276; -173.000; -410.000; -397.000
387.405; -140.200; -398.000; -342.000
387.535; -141.700; -452.000; -361.000
387.664; -213.700; -692.000; -620.000
387.793;  -97.600; -198.000; -113.000
387.922;   10.900;  255.000;  200.000
388.052; -168.800; -576.000; -423.000
388.181; -131.200; -342.000; -472.000
388.310; -269.200; -889.000; -710.000
388.439; -274.400; -749.000; -742.000
388.568;   25.000;  365.000;  244.000
388.697; -226.600; -756.000; -653.000
388.826; -199.500; -768.000; -666.000
388.956; -117.000; -285.000; -307.000
389.085; -104.900; -347.000; -287.000
389.214; -279.700; -842.000; -872.000
389.343; -220.500; -645.000; -413.000
389.472;   41.500;  126.000;  149.000
389.601;  -20.200;   91.000;    0.000
389.730; -196.600; -568.000; -687.000
389.859;   40.200;  226.000;   46.000
389.988; -153.200; -423.000; -408.000
390.117;  -81.700; -168.000; -146.000
390.246; -163.800; -331.000; -320.000
390.375; -245.100; -673.000; -626.000
390.504; -213.900; -703.000; -621.000
390.633; -254.000; -672.000; -726.000
390.761; -238.800; -732.000; -645.000
390.890;  -70.700;   -4.000; -130.000
391.019; -165.800; -421.000; -441.000
391.148; -271.500; -826.000; -855.000
391.277; -196.800; -576.000; -493.000
391.406; -260.600; -821.000; -805.000
391.534;   18.400;  574.000; -301.000
391.663; -192.500; -583.000; -645.000
391.792; -252.000; -673.000; -701.000
391.921;  -22.300;   -3.000;   15.000
392.050; -132.200; -287.000; -228.000
392.178; -342.100;-1206.000;-1061.000
392.307; -246.400; -758.000; -712.000
392.436; -240.700; -427.000; -641.000
392.564;  -24.300;  166.000;   -6.000
392.693; -224.100; -860.000; -682.000
392.822; -189.800; -529.000; -534.000
392.950; -263.900; -880.000; -714.000
393.079; -140.200; -188.000; -328.000
393.208; -160.900; -488.000; -511.000
393.336;  -98.400; -170.000; -145.000
393.465; -119.000; -317.000; -199.000
393.593;  -54.700;   62.000;   79.000
393.722; -304.000;-1121.000; -916.000
393.850;  -99.800; -188.000;  -61.000
393.979; -274.500; -926.000; -805.000
394.107; -194.300; -517.000; -537.000
394.236; -213.600; -570.000; -507.000
394.364;   44.700;  383.000;  206.000
394.493; -265.100; -911.000; -767.000
394.621; -283.400; -955.000; -916.000
394.750; -273.900; -873.000; -923.000
394.878;  -91.700; -247.000; -149.000
395.007; -232.900; -721.000; -807.000
395.135; -226.300; -790.000; -721.000
395.263; -312.100;-1038.000;-1040.000
395.392;  -48.800;  -25.000; -107.000
395.520; -169.500; -818.000; -679.000
395.648; -319.300; -865.000; -915.000
395.777; -173.000; -366.000; -405.000
395.905; -191.100; -449.000; -564.000
396.033;   -9.900;  217.000;  172.000
396.162; -137.300; -399.000; -453.000
396.290;  -45.600;  -17.000;   -2.000
396.418; -201.400; -555.000; -514.000
396.546; -251.400; -571.000; -466.000
396.674; -288.800; -850.000; -878.000
396.803;  -45.400;  -72.000;  -23.000
396.931;  -66.700; -179.000; -199.000
397.059; -311.400;-1026.000; -989.000
397.187; -279.600;-1026.000; -975.000
397.315; -265.600; -884.000; -649.000
397.443; -212.000; -592.000; -443.000
397.572; -194.000; -578.000; -424.000
397.700; -226.800; -607.000; -614.000
397.828;  -78.500;  120.000;  -90.000
397.956; -186.200; -508.000; -478.000
398.084; -231.000; -767.000; -626.000
398.212;  -43.100;  137.000;  124.000
398.340;   -8.600;  -56.000;  159.000
398.468; -154.600; -390.000; -169.000
398.596; -284.400; -993.000; -953.000
398.724; -264.400; -762.000; -767.000
398.852; -306.000;-1024.000; -976.000
398.980; -176.700; -560.000; -560.000
399.108; -242.900; -982.000; -735.000
399.236;  -76.500;   13.000;    8.000
399.363;   -8.900;  222.000;  196.000
399.491; -156.800; -404.000; -398.000
399.619; -251.200; -829.000; -800.000
399.747; -283.300; -859.000; -771.000
399.875;   19.600;  220.000;  234.000
400.003; -163.400; -359.000; -284.000
400.130; -176.700; -421.000; -341.000
400.258;  -67.400;  -83.000;   38.000
400.386; -110.800; -352.000; -168.000
400.514; -194.600; -526.000; -587.000
400.641; -299.300; -928.000; -802.000
400.769; -297.200; -979.000; -888.000
400.897; -242.800; -838.000; -793.000
401.025;  -40.400; -166.000; -152.000
401.152;   -8.800;  220.000;   38.000
401.280; -148.000; -430.000; -429.000
401.408; -220.100; -712.000; -576.000
401.535; -242.600; -735.000; -758.000
401.663; -386.000;-1134.000;-1054.000
401.790; -205.100; -514.000; -525.000
401.918;   82.100;  436.000;  405.000
402.046;  -31.300;  134.000;  122.000
402.173;  -59.400;  -18.000;    7.000
402.301; -167.300; -519.000; -397.000
402.428;   52.900;  528.000;  383.000
402.556; -354.000;-1188.000; -913.000
402.683;  -55.000;  -20.000;   -1.000
402.811;  -48.400;  -37.000; -206.000
402.938;  -16.600;   20.000;   27.000
403.066; -210.400; -574.000; -558.000
403.193;   -6.200;  299.000;  239.000
403.321; -168.100; -396.000; -574.000
403.448;  -30.900;   83.000;   27.000
403.575;  -70.000;  -90.000;  -46.000
403.703; -280.200; -732.000; -557.000
403.830; -190.900; -531.000; -496.000
403.957; -326.600;-1117.000;-1023.000
404.085; -105.000;  -61.000; -172.000
404.212;  -77.100;  -50.000;   63.000
404.339; -184.000; -566.000; -306.000
404.467; -155.600; -612.000; -524.000
404.594;  -92.800; -287.000; -227.000
404.721; -239.500; -869.000; -764.000
404.848;  -69.300; -113.000; -202.000
404.976; -269.900; -856.000; -783.000
405.103;  -38.600;  -14.000;  -82.000
405.230;  -29.000;  190.000;  226.000
405.357;  -53.400;  117.000;   44.000
405.484;  -72.300;  -49.000;    5.000
405.612; -183.900; -548.000; -563.000
405.739; -147.400; -488.000; -243.000
405.866;  132.800;  669.000;  385.000
405.993; -128.800; -398.000; -102.000
406.120; -255.100; -801.000; -887.000
406.247; -138.900; -323.000; -342.000
406.374;  105.800;  540.000;  629.000
406.501; -221.300; -632.000; -702.000
406.628; -196.800; -621.000; -589.000
406.755; -223.800; -803.000; -620.000
406.882; -135.600; -228.000; -277.000
407.009; -224.200; -719.000; -628.000
407.136; -142.600; -480.000; -401.000
407.263; -292.600; -939.000; -829.000
407.390; -228.300; -692.000; -614.000
407.517; -372.100;-1139.000;-1187.000
407.644; -130.100; -332.000; -256.000
407.771; -168.100; -249.000; -287.000
407.898;    6.300;  168.000;  328.000
408.025; -156.300; -421.000; -313.000
408.151;  -64.100;   82.000;  153.000
408.278; -157.100; -267.000; -216.000
408.405; -270.900; -931.000; -899.000
408.532; -216.000; -549.000; -542.000
408.659; -239.300; -677.000; -648.000
408.785; -360.500;-1298.000;-1170.000
408.912; -119.900; -412.000; -296.000
409.039; -177.300; -610.000; -686.000
409.166; -203.200; -591.000; -555.000
409.292; -207.200; -571.000; -534.000
409.419; -215.500; -665.000; -649.000
409.546; -163.200; -431.000; -192.000
409.672; -177.500; -713.000; -545.000
409.799;  -71.200;  -36.000;   34.000
409.926; -113.200; -180.000; -179.000
410.052; -365.600;-1127.000;-1091.000
410.179; -186.100; -368.000; -392.000
410.305; -165.300; -375.000; -493.000
410.432;  -99.700; -220.000; -333.000
410.558; -164.800; -305.000; -380.000
410.685; -195.000; -688.000; -431.000
410.812; -188.400; -409.000; -588.000
410.938; -290.400; -964.000; -808.000
411.065; -176.600; -671.000; -645.000
411.191; -108.600; -189.000; -174.000
411.317; -280.900; -823.000; -742.000
411.444; -140.800; -317.000; -246.000
411.570; -117.800; -339.000; -294.000
411.697; -218.300; -758.000; -752.000
411.823; -338.600; -989.000; -999.000
411.949;  -82.300;  -56.000;   17.000
412.076; -214.300; -539.000; -519.000
412.202; -251.200; -758.000; -757.000
412.329; -261.000; -798.000; -752.000
412.455; -246.100; -821.000; -657.000
412.581;  -41.500;  -15.000;  172.000
412.707; -190.600; -540.000; -457.000
412.834;   18.500;  156.000;  219.000
412.960; -263.700; -785.000; -784.000
413.086; -226.500; -743.000; -701.000
413.212;   85.100;  604.000;  578.000
413.339; -244.700; -685.000; -701.000
413.465; -192.300; -364.000; -310.000
413.591; -242.100; -757.000; -474.000
413.717; -143.000; -358.000; -366.000
413.843; -284.200; -839.000; -861.000
413.969; -105.600;  -47.000; -292.000
414.096; -226.900; -679.000; -679.000
414.222;  -21.600;  -33.000;   85.000
414.348; -209.400; -652.000; -385.000
414.474;  -64.600;   38.000;  -52.000
414.600;  -46.400; -126.000; -144.000
414.726;  -69.700;  -96.000;  -55.000
414.852; -180.800; -365.000; -342.000
414.978;  -31.600;  104.000;  -18.000
415.104;  -54.900;   38.000;   80.000
415.230; -152.800; -329.000; -330.000
415.356; -174.500; -409.000; -514.000
415.482;  -52.000;   13.000;  -35.000
415.608; -103.400; -247.000; -323.000
415.734;  -36.000;   67.000;   38.000
415.860; -248.500; -875.000; -767.000
415.986; -201.200; -685.000; -607.000
416.111; -238.800; -798.000; -652.000
416.237; -185.000; -424.000; -571.000
416.363; -246.200; -765.000; -733.000
416.489; -125.900; -324.000; -251.000
416.615; -251.100; -707.000; -742.000
416.741; -237.300; -677.000; -784.000
416.866; -232.500; -673.000; -736.000
416.992; -279.600; -801.000; -818.000
417.118; -106.000;  -41.000;  -80.000
417.244; -244.500; -798.000; -531.000
417.369; -254.000; -801.000; -612.000
417.495; -116.500; -325.000; -254.000
417.621; -295.400;-1015.000; -803.000
417.746; -200.200; -579.000; -572.000
417.872;  -78.600; -254.000; -144.000
417.998; -196.000; -515.000; -530.000
418.123; -291.100;-1073.000; -845.000
418.249; -195.700; -512.000; -601.000
418.374; -288.400; -916.000; -824.000
418.500; -211.100; -383.000; -482.000
418.626;  -29.500;   70.000;  -59.000
418.751; -211.800; -549.000; -448.000
418.877; -255.800; -637.000; -643.000
419.002; -187.700; -688.000; -560.000
419.128; -275.400; -930.000; -721.000
419.253; -313.100; -967.000; -837.000
419.379; -200.500; -391.000; -338.000
419.504;   33.300;  325.000;  415.000
419.629; -127.000; -393.000; -212.000
419.755; -111.500; -317.000; -254.000
419.880; -108.100;  -98.000;   67.000
420.006; -122.800; -280.000; -221.000
420.131; -253.800; -662.000; -775.000
420.256; -142.900; -315.000; -316.000
420.382; -217.300; -665.000; -687.000
420.507; -266.200; -649.000; -778.000
420.632; -164.300; -337.000; -339.000
420.758; -125.600; -251.000; -425.000
420.883; -263.900; -876.000; -672.000
421.008; -248.500; -775.000; -619.000
421.133; -192.000; -509.000; -467.000
421.259; -127.800; -325.000; -259.000
421.384; -272.400; -834.000; -693.000
421.509; -265.800;-1052.000; -862.000
421.634; -311.100; -936.000; -820.000
421.759; -169.200; -359.000; -327.000
421.885; -246.600; -717.000; -656.000
422.010; -181.100; -673.000; -542.000
422.135; -275.000; -695.000; -727.000
422.260;   35.700;  340.000;  280.000
422.385; -122.100;   12.000;  -98.000
422.510;  -11.400;  151.000;  -26.000
422.635;  -59.000;  -87.000;  -43.000
422.760; -225.400; -766.000; -791.000
422.885;  -44.900;  -57.000;  -80.000
423.010;  -92.200; -112.000; -169.000
423.135; -207.900; -481.000; -561.000
423.260; -115.600; -150.000; -245.000
423.385;   14.000;  476.000;  222.000
423.510;  -10.500;   71.000;  -22.000
423.635;  -31.700;  133.000;   45.000
423.760;   23.000;  383.000;  328.000
423.885;   47.000;  336.000;  391.000
424.010;  -84.900;  -68.000;  -13.000
424.135;  -70.100;    5.000;  -33.000
424.259; -210.200; -654.000; -457.000
424.384; -156.100; -279.000; -272.000
424.509; -104.200; -260.000; -186.000
424.634; -279.000; -761.000; -623.000
424.759; -198.400; -688.000; -544.000
424.883; -180.800; -506.000; -527.000
425.008; -215.300; -502.000; -410.000
425.133; -246.800; -679.000; -653.000
425.258; -195.800; -517.000; -381.000
425.382; -233.900; -867.000; -774.000
425.507; -198.300; -487.000; -543.000
425.632; -248.700; -802.000; -663.000
425.756; -117.000; -256.000; -146.000
425.881; -271.500; -831.000; -857.000
426.006; -153.500; -604.000; -355.000
426.130; -204.000; -696.000; -508.000
426.255; -210.200; -611.000; -491.000
426.379;  -78.100; -189.000; -577.000
426.504;   89.200;  660.000;  544.000
426.629; -204.300; -519.000; -466.000
426.753;  -56.600;   64.000;  -46.000
426.878; -117.900; -252.000; -288.000
427.002; -298.200; -651.000; -668.000
427.127;  -84.200;  -35.000; -158.000
427.251;   45.700;  372.000;  401.000
427.375; -119.000; -191.000; -173.000
427.500; -230.900; -616.000; -610.000
427.624;  -97.200; -234.000; -400.000
427.749; -133.100; -216.000; -225.000
427.873; -147.600; -499.000; -412.000
427.997;  -86.600; -222.000; -230.000
428.122;  104.800;  795.000;  703.000
428.246;   82.900;  433.000;  434.000
428.371; -306.900; -869.000; -773.000
428.495; -238.500; -624.000; -646.000
428.619; -114.200; -186.000; -117.000
428.743;   -8.200;   65.000;  132.000
428.868; -247.600; -732.000; -643.000
428.992; -150.700; -219.000; -326.000
429.116; -116.800; -329.000; -357.000
429.240;   23.600;  419.000;  426.000
429.365; -170.100; -454.000; -574.000
429.489; -239.900; -638.000; -647.000
429.613;  -99.700; -236.000; -177.000
429.737; -206.700; -563.000; -432.000
429.861; -140.000; -247.000; -133.000
429.985; -163.000; -425.000; -305.000
430.109; -307.400; -770.000; -908.000
430.234;  -13.300;   76.000;  -50.000
430.358; -116.300; -250.000; -160.000
430.482; -233.500; -672.000; -564.000
430.606; -217.300; -655.000; -375.000
430.730; -192.800; -437.000; -388.000
430.854; -297.500; -909.000; -835.000
430.978; -276.500; -795.000; -764.000
431.102; -188.700; -499.000; -422.000
431.226; -306.100; -874.000; -815.000
431.350;   71.100;  345.000;  422.000
431.474; -204.700; -661.000; -373.000
431.597; -335.500;-1060.000; -848.000
431.721; -136.100; -276.000; -267.000
431.845; -233.200; -704.000; -472.000
431.969; -153.200; -304.000; -349.000
432.093; -150.400; -395.000; -317.000
432.217;  -51.700;   32.000;   82.000
432.341; -136.500; -523.000; -518.000
432.464;  -57.000;   96.000;   40.000
432.588; -193.700; -401.000; -329.000
432.712; -104.100;  -52.000;  -52.000
432.836;   -5.700;  213.000;  263.000
432.959; -182.900; -372.000; -311.000
433.083;  -74.900;   11.000;    2.000
433.207;   87.700;  285.000;  930.000
433.330; -144.400; -391.000; -200.000
433.454; -198.700; -654.000; -638.000
433.578;   88.200;  583.000;  278.000
433.701; -267.600; -623.000; -675.000
433.825; -141.900; -292.000; -299.000
433.949;  -62.000;   28.000;  -72.000
434.072; -135.000; -410.000; -323.000
434.196; -107.000; -309.000; -117.000
434.319; 7343.000;25482.000;25124.000
434.443; -211.600; -656.000; -603.000
434.566;  -16.500;  281.000;   62.000
434.690; -210.500; -637.000; -383.000
434.813; -153.100; -251.000; -173.000
434.937; -232.700; -569.000; -696.000
435.060; -172.900; -423.000; -332.000
435.184; -156.600; -492.000; -217.000
435.307;  -44.800;  159.000;  102.000
435.431;  -68.400;  -40.000;   24.000
435.554; -124.500; -399.000; -240.000
435.677; -142.600; -350.000; -258.000
435.801;  -51.200;  -25.000;   49.000
435.924;  -63.600;    1.000;  -67.000
436.048; -306.700;-1019.000; -732.000
436.171; -143.000; -240.000;  -66.000
436.294; -134.300; -248.000; -229.000
436.417; -336.400; -963.000; -849.000
436.541; -258.200; -814.000; -840.000
436.664;  -94.600; -242.000; -316.000
436.787;  -36.000;   13.000;  113.000
436.910; -212.100; -792.000; -422.000
437.034;   -7.400;  142.000;  143.000
437.157;  -13.400;  -11.000;    0.000
437.280; -163.100; -392.000; -292.000
437.403; -336.900; -982.000; -869.000
437.526; -286.100; -903.000; -865.000
437.649; -186.800; -505.000; -332.000
437.772; -211.800; -692.000; -540.000
437.896;   83.700;  700.000;  544.000
438.019; -234.900; -758.000; -503.000
438.142; -202.500; -596.000; -506.000
438.265; -231.900; -639.000; -670.000
438.388; -185.200; -520.000; -410.000
438.511; -202.600; -597.000; -394.000
438.634; -153.300; -247.000; -125.000
438.757; -267.100; -693.000; -619.000
438.880;  -68.800;  -34.000;  -57.000
439.003; -163.900; -417.000; -437.000
439.126; -134.700; -287.000; -167.000
439.248; -118.000;  -98.000; -139.000
439.371;  -78.500;    9.000;  -53.000
439.494;  152.600;  510.000;  439.000
439.617;  -84.900;   65.000;  -88.000
439.740; -320.000; -968.000; -816.000
439.863; -237.800; -755.000; -595.000
439.986; -238.000; -476.000; -431.000
440.108; -131.900; -161.000; -112.000
440.231; -305.500; -950.000; -836.000
440.354;  -64.900;  -64.000; -150.000
440.477; -242.900; -566.000; -542.000
440.599; -144.800; -200.000; -225.000
440.722; -230.900; -709.000; -586.000
440.845;  143.100;  751.000;  928.000
440.968; -187.000; -415.000; -311.000
441.090; -114.500; -199.000;  -33.000
441.213; -306.900;-1021.000; -825.000
441.336;  -86.800; -159.000;   -5.000
441.458; -152.100; -549.000; -396.000
441.581; -273.000; -628.000; -629.000
441.703;  -95.400; -152.000;   13.000
441.826; -192.600; -557.000; -400.000
441.948;  -61.200;   56.000;   51.000
442.071;   81.200;  555.000;  424.000
442.193; -198.100; -531.000; -485.000
442.316;  -33.700;  152.000;   97.000
442.438;  -98.500; -233.000;  -10.000
442.561;    2.800;  272.000;  262.000
442.683; -265.100; -809.000; -522.000
442.806; -112.100;   -8.000;   74.000
442.928; -276.300; -859.000; -604.000
443.051; -214.700; -577.000; -373.000
443.173; -186.200; -341.000; -339.000
443.295; -170.500; -263.000; -371.000
443.418; -140.600; -321.000;  -29.000
443.540;  -71.600; -106.000;   -4.000
443.662; -238.000; -563.000; -465.000
443.785;   11.200;  335.000;  199.000
443.907; -163.000; -362.000; -208.000
444.029; -218.000; -767.000; -494.000
444.152; -246.600; -644.000; -554.000
444.274;  -59.700;  -18.000;  -24.000
444.396; -179.600; -461.000; -221.000
444.518; -249.500; -691.000; -454.000
444.640; -183.400; -268.000; -111.000
444.763;    1.200;  388.000;  249.000
444.885; -222.500; -432.000; -392.000
445.007;  -42.700;   35.000;   86.000
445.129; -186.900; -610.000; -515.000
445.251; -202.300; -372.000; -439.000
445.373; -235.000; -537.000; -386.000
445.495;   -6.200;  242.000;  350.000
445.617;  105.100;  853.000;  753.000
445.739; -178.400; -215.000;  -97.000
445.861; -120.700; -245.000; -112.000
445.984; -142.800; -267.000; -101.000
446.105; -171.900; -418.000; -251.000
446.227; -108.200; -176.000;  -19.000
446.349; -210.500; -358.000; -249.000
446.471; -232.200; -615.000; -448.000
446.593; -149.400; -316.000;   19.000
446.715;  -83.600;  -67.000;   41.000
446.837;  156.000;  697.000;  832.000
446.959; -216.700; -457.000; -478.000
447.081; -243.400; -628.000; -518.000
447.203;  149.900;  862.000;  834.000
447.325; -141.700; -270.000;   42.000
447.446;   25.800;  286.000;  530.000
447.568; -321.000; -921.000; -803.000
447.690; -153.900; -236.000; -245.000
447.812; -265.700; -798.000; -519.000
447.933;  -10.800;  155.000;  127.000
448.055; -105.300; -306.000; -261.000
448.177;  -44.500;   31.000;   79.000
448.299; -342.200; -935.000; -727.000
448.420;  -15.400;  -25.000;  159.000
448.542;  -86.900;   -3.000;   33.000
448.664;  -37.700;  109.000;  322.000
448.785;  -27.300;  265.000;   83.000
448.907; -228.500; -614.000; -353.000
449.028; -235.300; -771.000; -471.000
449.150;  108.100;  492.000;  589.000
449.272; -327.800;-1044.000; -913.000
449.393;   86.900;  612.000;  694.000
449.515; -253.400; -634.000; -581.000
449.636; -152.300; -264.000; -155.000
449.758;   81.000;  763.000;  622.000
449.879; -180.700; -498.000; -396.000
450.001; -113.200; -149.000;  -49.000
450.122;  -49.200;  -95.000;  162.000
450.244;  -71.900;   37.000;  364.000
450.365; -186.400; -495.000; -301.000
450.486;  -68.100;   80.000;  268.000
450.608;   13.000;  393.000;  326.000
450.729;   71.200;  578.000;  645.000
450.850; -201.400; -574.000; -466.000
450.972; -229.200; -552.000; -389.000
451.093;    3.900;  190.000;  588.000
451.214; -191.400; -516.000; -337.000
451.336;  125.900;  773.000;  579.000
451.457;   41.900;  264.000;  393.000
451.578; -114.800; -118.000;  -74.000
451.699; -230.800; -546.000; -540.000
451.821; -135.400; -284.000;  -50.000
451.942;  -20.700;  278.000;  285.000
452.063;   13.000;  228.000;  419.000
452.184; -134.900;  -54.000;  -49.000
452.305;   -6.700;  103.000;  170.000
452.427; -217.100; -549.000; -301.000
452.548;  -87.700;   23.000;   79.000
452.669;  -90.900; -257.000;  -89.000
452.790;  -92.400;    3.000;  -18.000
452.911;  -28.400;  195.000;  259.000
453.032; -146.800; -289.000;  -60.000
453.153;  -75.300;  -29.000;   81.000
453.274;  135.100;  737.000;  868.000
453.395;  -86.400;  -51.000;  175.000
453.516;  238.700; 1317.000; 1388.000
453.637; -134.800; -205.000; -150.000
453.758;  -84.100;   15.000;   69.000
453.879; -195.200; -462.000; -250.000
454.000;  181.100; 1086.000;  948.000
454.121; -226.000; -554.000; -326.000
454.242; -245.400; -599.000; -383.000
454.362;  -72.700;  -99.000;  114.000
454.483; -179.900; -309.000; -229.000
454.604;   34.500;  512.000;  580.000
454.725; -218.600; -627.000; -555.000
454.846; -215.500; -474.000; -406.000
454.967;   17.200;  230.000;  539.000
455.087;   -2.700;  179.000;  153.000
455.208;   75.800;  554.000;  856.000
455.329;  -49.000;  -22.000;   82.000
455.450;   17.900;  473.000;  633.000
455.570; -146.700; -234.000; -211.000
455.691;  -65.900;  201.000;  407.000
455.812; -192.500; -270.000;  -92.000
455.932;  -77.100;  107.000;  -97.000
456.053;  -95.200;   36.000;   24.000
456.173; -206.600; -433.000; -355.000
456.294; -213.500; -476.000; -303.000
456.415;  -81.500;  -73.000;   70.000
456.535;  -10.100;  297.000;  273.000
456.656;  -42.500;  132.000;  240.000
456.776;  -98.100;    3.000;  298.000
456.897;   14.200;  308.000;  513.000
457.017; -121.800; -153.000;   -3.000
457.138; -208.900; -402.000; -249.000
457.258;  -41.700;  263.000;  224.000
457.379;   -0.500;  509.000;  521.000
457.499;    9.200;  443.000;  432.000
457.620; -190.900; -407.000; -231.000
457.740; -138.500; -132.000;  -11.000
457.860;  -79.100;   87.000;   44.000
457.981; -102.600;  132.000;  124.000
458.101; -135.400;  -89.000;   40.000
458.221;   28.300;  336.000;  402.000
458.342;  -87.100;   -4.000;  -37.000
458.462;   24.600;  617.000;  352.000
458.582; -169.200; -302.000; -294.000
458.703;  -52.700;  303.000;  154.000
458.823;  -91.300;   22.000;  163.000
458.943;   -9.400;  341.000;  467.000
459.063;  -67.100; 1124.000;  192.000
459.183;  -68.300;  328.000;  313.000
459.304;   32.800;  315.000;  517.000
459.424; -127.400; -246.000;  -89.000
459.544;   40.300;  388.000;  764.000
459.664;   48.900;  499.000;  506.000
459.784;  199.600; 1004.000; 1175.000
459.904;   78.100;  867.000;  744.000
460.024;  107.700;  867.000;  684.000
460.144;   59.300;  449.000;  554.000
460.264;   28.000;  515.000;  327.000
460.385; -136.600; -145.000; -119.000
460.505;  110.300;  905.000;  858.000
460.625; -141.900;  -17.000;  -68.000
460.745;  -12.900;  396.000;  541.000
460.864;  -32.800;  153.000;  469.000
460.984;   -7.700;  499.000;  573.000
461.104;  321.800; 1656.000; 1775.000
461.224;   61.100;  657.000;  650.000
461.344;  -18.600;  431.000;  360.000
461.464;  -30.500;  258.000;  513.000
461.584;   28.200;  283.000;  466.000
461.704;  -82.400;   58.000;  108.000
461.824;  -55.800;  238.000;  259.000
461.943;  -58.200;  191.000;  130.000
462.063; -103.300;    2.000;  324.000
462.183;   75.200;  639.000;  717.000
462.303;  212.300; 1678.000; 1230.000
462.422;  112.400;  781.000;  840.000
462.542;  -57.400;  271.000;  391.000
462.662;   -3.600;  353.000;  380.000
462.782;   58.700;  833.000;  572.000
462.901;   20.100;  545.000;  717.000
463.021;  321.300; 1702.000; 1638.000
463.141;  -23.000;  337.000;  770.000
463.260;   13.900;  614.000;  474.000
463.380;   52.500;  902.000;  884.000
463.499;  -36.500;  342.000;  332.000
463.619;   12.400;  581.000;  559.000
463.738;  288.300; 1644.000;  903.000
463.858;   76.500;  657.000;  811.000
463.978;  -29.900;  542.000;  396.000
464.097;  132.100;  921.000; 1114.000
464.217;  175.100; 1196.000; 1143.000
464.336;  191.600; 1068.000; 1130.000
464.455;  -39.700;  328.000;  659.000
464.575;   32.600;  597.000;  602.000
464.694;  201.700; 1204.000; 1179.000
464.814;  128.400; 1190.000; 1138.000
464.933;  116.500; 1095.000; 1027.000
465.052;  204.700; 1412.000; 1054.000
465.172;   65.200;  922.000;  799.000
465.291;  201.500; 1376.000; 1320.000
465.410;   47.700;  462.000;  735.000
465.530;  187.300; 1355.000; 1310.000
465.649;  166.300; 1209.000; 1273.000
465.768;  276.700; 1673.000; 1508.000
465.888;  162.800;  941.000; 1174.000
466.007;  245.800; 1335.000; 1440.000
466.126;   42.700;  721.000;  641.000
466.245;  149.900; 1176.000; 1187.000
466.364;   99.400;  950.000; 1060.000
466.484;  120.400; 1024.000; 1213.000
466.603;  132.900; 1101.000; 1222.000
466.722;  235.800; 1490.000; 1769.000
466.841;  154.400; 1151.000; 1401.000
466.960;  106.500; 1069.000;  972.000
467.079;  345.600; 1971.000; 1786.000
467.198;  142.900; 1238.000; 1181.000
467.317;  242.900; 1768.000; 1162.000
467.436;  209.500; 1709.000; 1261.000
467.555;  284.100; 1796.000; 1746.000
467.674;  204.000; 1227.000; 1329.000
467.793;  154.800; 1376.000; 1374.000
467.912;  220.200; 1658.000; 1539.000
468.031;  339.400; 2038.000; 1930.000
468.150;  296.900; 1842.000; 1837.000
468.269;  413.400; 2313.000; 2090.000
468.388;  450.600; 2168.000; 2339.000
468.507;  576.700; 2884.000; 2903.000
468.626;  589.500; 2555.000; 2541.000
468.744;  353.000; 2018.000; 2174.000
468.863;  441.100; 2312.000; 2523.000
468.982;  267.600; 1503.000; 1555.000
469.101;  479.500; 2788.000; 2692.000
469.220;  309.600; 2333.000; 2176.000
469.338;  574.600; 2935.000; 3051.000
469.457;  469.000; 2719.000; 2545.000
469.576;  734.000; 3953.000; 3784.000
469.695;  540.400; 2877.000; 3066.000
469.813;  890.500; 4148.000; 4192.000
469.932;  823.200; 4255.000; 4485.000
470.051;  768.700; 4075.000; 4161.000
470.169;  839.600; 4470.000; 4338.000
470.288;  908.700; 4700.000; 4809.000
470.406; 1046.500; 5059.000; 5194.000
470.525; 1145.700; 6101.000; 5787.000
470.644; 1310.800; 6847.000; 6794.000
470.762; 1623.700; 8397.000; 7873.000
470.881; 1777.800; 8651.000; 8464.000
470.999; 1961.400; 9685.000; 9151.000
471.118; 2231.800;11174.000;10711.000

