
Integration time [ms]: 100.000
Averaging Nr. [scans]: 40
Smoothing Nr. [pixels]: 0
Data measured with spectrometer [name]: 2101012U2
Wave   ;Sample   ;Dark     ;Reference
[nm]   ;[counts] ;[counts] ;[counts] 

197.733;   66.250;  516.000;  404.000
197.879;  -88.300; -610.000; -634.000
198.025;  -47.825; -475.000; -420.000
198.171;  -65.450; -602.000; -612.000
198.317;  -27.850; -401.000; -316.000
198.463;  -66.125; -655.000; -404.000
198.609;   12.450;  181.000; -137.000
198.755;  -72.525; -644.000; -410.000
198.901;  -67.575; -505.000; -424.000
199.047;  -64.575; -615.000; -488.000
199.193;  -35.200; -230.000; -468.000
199.339;  -44.400; -222.000; -369.000
199.485;   42.500;  330.000;  271.000
199.631;    6.050;  227.000;  310.000
199.777;  -45.625; -466.000; -398.000
199.923;  -46.600; -610.000; -424.000
200.069;   -4.200; -141.000;  -58.000
200.215;   45.725;  128.000;  453.000
200.361;   41.175;  243.000;  477.000
200.507;  -54.125; -600.000; -373.000
200.653;  -19.075; -371.000; -194.000
200.798;  -35.275; -215.000; -125.000
200.944;   -7.675; -146.000;  -41.000
201.090;   29.350;   61.000;  222.000
201.236;  -18.550; -116.000; -158.000
201.382;  119.200;  874.000;  903.000
201.528;    4.150;  -58.000;  -48.000
201.674;  -40.100; -386.000; -293.000
201.819;  -59.950; -540.000; -439.000
201.965;  -89.825; -699.000; -447.000
202.111;  -28.000; -273.000; -226.000
202.257;  -44.975; -250.000; -238.000
202.402;    8.075;   13.000;  -36.000
202.548;  -37.375; -169.000; -116.000
202.694;   60.725;  410.000; -183.000
202.840;  -78.800; -603.000; -531.000
202.985;  -82.075; -681.000; -639.000
203.131; -109.050; -832.000; -666.000
203.277;  -38.850; -199.000; -262.000
203.423;  -57.150; -434.000; -520.000
203.568;  -46.425; -462.000; -237.000
203.714;  -60.525; -535.000; -542.000
203.860;  -88.650; -682.000; -641.000
204.005;    8.750;  112.000;  167.000
204.151;   72.250;  561.000;  556.000
204.296;  -52.225; -354.000; -221.000
204.442;  -77.975; -600.000; -547.000
204.588;  -78.125; -592.000; -579.000
204.733;   20.000;  178.000;  168.000
204.879; -123.600;-1018.000; -822.000
205.025;    8.200;  -99.000;  126.000
205.170;   -1.975;  -17.000;   94.000
205.316;   80.700;  438.000;  661.000
205.461;  -82.775; -698.000; -554.000
205.607;   91.400;  609.000;  665.000
205.752;  -82.675; -626.000; -551.000
205.898;  -59.450; -501.000; -391.000
206.043;  -65.525; -578.000; -506.000
206.189;  -34.550; -243.000; -285.000
206.334;   79.625;  554.000;  606.000
206.480;   53.150;  409.000;  239.000
206.625;  -82.275; -529.000; -552.000
206.771;  -45.825; -451.000; -373.000
206.916;  -46.625; -210.000; -537.000
207.062;  -71.750; -545.000; -591.000
207.207;  -54.975; -546.000; -443.000
207.353;   54.425;  185.000;  460.000
207.498;   15.925;  196.000;   85.000
207.643;  -57.025; -501.000; -370.000
207.789; -127.975;-1069.000; -910.000
207.934;  -98.225; -665.000; -713.000
208.080;  -24.525; -154.000;   66.000
208.225;  -12.475;  -22.000;  -57.000
208.370;  -63.975; -727.000; -619.000
208.516;  -76.500; -741.000; -487.000
208.661;  -19.875; -127.000;  -69.000
208.806;  -23.725; -165.000; -171.000
208.952; -134.425;-1044.000; -731.000
209.097;   59.975;  378.000;  349.000
209.242;  -50.925; -307.000; -382.000
209.387;   58.925;  392.000;  350.000
209.533;  -56.225; -321.000; -350.000
209.678;   79.425;  472.000;  543.000
209.823;  -42.575; -408.000; -310.000
209.969; -107.450; -860.000; -757.000
210.114; -107.425; -907.000; -719.000
210.259; -113.975; -939.000; -889.000
210.404;   -8.800; -171.000;  103.000
210.549;    3.550;  108.000;    3.000
210.695;   -5.075;   -3.000;  -95.000
210.840;   22.450;   94.000;   67.000
210.985;  -65.300; -484.000; -303.000
211.130;   62.850;  268.000;  406.000
211.275;    7.350;  207.000;  199.000
211.420;  -47.200; -300.000; -289.000
211.566;  -71.050; -536.000; -489.000
211.711;   19.925;  218.000;  157.000
211.856;  -70.200; -545.000; -519.000
212.001;    6.450;  151.000;   44.000
212.146;   19.475;  153.000;   49.000
212.291;   -8.200; -210.000; -186.000
212.436;  -32.100; -280.000;   -6.000
212.581;  -91.400; -685.000; -653.000
212.726;  -85.400; -487.000; -538.000
212.871;  -54.950; -552.000; -217.000
213.016; -138.050;-1172.000;-1029.000
213.161;   68.425;  406.000;  291.000
213.306;  -67.850; -435.000; -577.000
213.451;  -93.750; -778.000; -689.000
213.596;  -36.150; -455.000; -347.000
213.741;  -45.425; -448.000; -538.000
213.886;  -82.500; -498.000; -517.000
214.031;  -19.400; -294.000; -124.000
214.176;  -56.850; -408.000; -341.000
214.321;   -5.875; -296.000; -157.000
214.466;  -31.200; -163.000;  -43.000
214.611;  -10.700;  -61.000;  -10.000
214.756; -122.200; -948.000; -858.000
214.901;  -24.275; -388.000; -226.000
215.046; -127.050; -797.000; -825.000
215.191;   19.400;  128.000;   35.000
215.336;  -21.650; -157.000;  -19.000
215.480;  -63.800; -684.000; -505.000
215.625;   -2.600; -175.000;  -19.000
215.770;  -83.575; -757.000; -662.000
215.915;   -3.600;   -5.000;  -97.000
216.060;  -13.400; -113.000;  -21.000
216.205; -110.300; -731.000; -779.000
216.349;  -67.075; -470.000; -533.000
216.494; -138.800; -939.000; -867.000
216.639; -111.900; -823.000; -888.000
216.784;  -91.375; -577.000; -525.000
216.929;   50.825;  392.000;  281.000
217.073;  -26.850; -244.000;  -31.000
217.218;   -1.300;   78.000;  -47.000
217.363;  -88.125; -656.000; -618.000
217.507;  -79.025; -623.000; -588.000
217.652; -121.350; -845.000; -874.000
217.797;  -87.650; -708.000; -659.000
217.942; -113.475; -856.000; -720.000
218.086;   62.225;  608.000;  539.000
218.231;  -26.900; -174.000;  -26.000
218.376;  -53.050; -337.000; -229.000
218.520;  -10.825;  -41.000;   96.000
218.665;  -38.050; -338.000; -204.000
218.810;  -46.050; -275.000; -233.000
218.954;   11.925;  201.000;   35.000
219.099; -113.200; -713.000; -963.000
219.243;  -79.650; -589.000; -554.000
219.388;  -31.325; -264.000; -136.000
219.532;   -2.275; -116.000; -116.000
219.677;  -89.050; -564.000; -521.000
219.822;  -12.800;   33.000;   89.000
219.966;    3.500;   17.000;  -99.000
220.111;  -48.475; -328.000;  -40.000
220.255; -108.500; -797.000; -750.000
220.400;  -13.675; -180.000; -146.000
220.544;  -61.350; -516.000; -450.000
220.689;  -58.675; -422.000; -451.000
220.833;  -30.300; -123.000;  -58.000
220.978;  -41.925; -393.000; -563.000
221.122;   25.000;  319.000;  307.000
221.267; -109.175; -906.000; -837.000
221.411;  -72.800; -478.000; -394.000
221.555;   -4.225; -104.000;  -23.000
221.700;  -52.200; -329.000; -222.000
221.844;   38.750;  255.000;  272.000
221.989;  -50.000; -328.000; -311.000
222.133;  -35.700; -289.000; -307.000
222.277;  -10.600;    5.000;   78.000
222.422;   14.400;  227.000;  113.000
222.566;  -43.400; -381.000; -214.000
222.711;  -52.775; -414.000; -479.000
222.855;  -96.950; -643.000; -586.000
222.999;  -84.075; -642.000; -717.000
223.144;  -47.375; -195.000; -194.000
223.288;   44.625;  423.000;  251.000
223.432;    4.750;  184.000;  230.000
223.576;   23.725;  152.000;  -21.000
223.721;   28.975;  364.000;  273.000
223.865;  -62.525; -472.000; -475.000
224.009;  209.225; 1673.000; 1631.000
224.153;  -82.875; -660.000; -671.000
224.298;  -63.775; -531.000; -489.000
224.442;  -19.625;  -74.000;  -33.000
224.586;  -16.375; -169.000; -106.000
224.730; -110.475; -858.000; -670.000
224.875; -104.725; -739.000; -688.000
225.019;    3.400;  102.000;  188.000
225.163;   57.775;  208.000;  341.000
225.307;   18.750;   97.000;  -91.000
225.451;   41.050;  360.000;  481.000
225.595;   29.200;  264.000;  176.000
225.739;  -20.500; -170.000;  -94.000
225.884;   -0.475;   86.000;    5.000
226.028;  -90.350; -760.000; -626.000
226.172;  -36.425; -260.000; -273.000
226.316; -134.150; -941.000; -902.000
226.460;  -72.125; -645.000; -493.000
226.604;  -62.875; -406.000; -400.000
226.748;  -89.450; -836.000; -733.000
226.892;  -58.050; -227.000; -181.000
227.036;  -60.325; -537.000; -447.000
227.180;  -60.400; -551.000; -375.000
227.324;  -61.350; -561.000; -580.000
227.468; -104.950; -819.000; -717.000
227.612;   10.900;  242.000;  -28.000
227.756;  -97.850; -845.000; -698.000
227.900;   45.750;  342.000;  441.000
228.044;  -51.650; -509.000; -290.000
228.188;   57.425;  448.000;  568.000
228.332;  -90.600; -546.000; -472.000
228.476;  -33.475; -223.000; -149.000
228.620;  -22.500; -210.000; -150.000
228.764;   44.125;  431.000;  349.000
228.908;  -13.250; -155.000;   30.000
229.052;  -59.975; -615.000; -528.000
229.195;  -15.400; -172.000;   13.000
229.339;  -30.475; -235.000; -305.000
229.483;  -32.325;    5.000; -162.000
229.627;  -18.475; -156.000;  139.000
229.771;  -56.400; -218.000; -294.000
229.915;    5.000;  230.000;   79.000
230.059;  -85.225; -648.000; -663.000
230.202;  -36.150; -370.000; -317.000
230.346;  -31.400; -107.000;  107.000
230.490;  -67.000; -489.000; -521.000
230.634; -104.725; -736.000; -553.000
230.777;   68.500;  478.000;  509.000
230.921;  -45.950; -450.000; -359.000
231.065;  -42.050; -246.000; -286.000
231.209;   17.000;  261.000;  265.000
231.352;   12.475;   54.000;   40.000
231.496;   13.950;  568.000;  188.000
231.640;  -81.125; -693.000; -621.000
231.783;   52.925;  546.000;  525.000
231.927;  -46.675; -294.000; -365.000
232.071; -130.175; -962.000; -736.000
232.214; -111.275; -980.000; -764.000
232.358;  -84.475; -683.000; -599.000
232.502;    4.925;  -19.000;    7.000
232.645; -133.650;-1090.000; -927.000
232.789;  -30.225; -257.000; -218.000
232.933;  -44.075; -407.000; -224.000
233.076; -133.725;-1038.000; -897.000
233.220; -117.500; -752.000; -777.000
233.363;  -67.800; -669.000; -477.000
233.507;   51.200;  371.000;  129.000
233.650;  -89.075; -764.000; -834.000
233.794;   18.925;  438.000;  461.000
233.938;  -70.900; -530.000; -362.000
234.081;  -15.800;  -93.000;   31.000
234.225;  -65.175; -631.000; -539.000
234.368; -112.300; -773.000; -723.000
234.512;  -44.375; -385.000; -299.000
234.655;  -79.650; -582.000; -555.000
234.798;  -64.075; -493.000; -466.000
234.942; -115.100; -884.000;-1002.000
235.085;  -79.075; -651.000; -443.000
235.229;  -89.150; -405.000; -410.000
235.372;  -34.250; -247.000; -191.000
235.516;  -66.150; -397.000; -321.000
235.659;    6.650;   92.000;  121.000
235.802;  -13.225;  -38.000;  -22.000
235.946;   13.100;  335.000;  215.000
236.089;   18.350;  126.000;  250.000
236.233;   33.625;  275.000;  298.000
236.376;  -41.275; -235.000; -378.000
236.519;  -48.775; -297.000; -319.000
236.663;  -37.225; -215.000; -117.000
236.806; -128.275;-1029.000; -999.000
236.949;   62.925;  543.000;  431.000
237.092;   63.800;  412.000;  391.000
237.236;  -82.275; -589.000; -502.000
237.379;   45.150;  352.000;  428.000
237.522; -120.650; -879.000; -768.000
237.666;  -22.825; -271.000;   18.000
237.809; -121.625; -851.000; -823.000
237.952;   26.925;  469.000;  271.000
238.095;  -64.325; -447.000; -442.000
238.238;   79.625;  688.000;  700.000
238.382;   -7.875;  166.000;  103.000
238.525;  -80.750; -598.000; -511.000
238.668; -139.125;-1060.000; -985.000
238.811;  -82.250; -638.000; -643.000
238.954;  -61.975; -483.000; -334.000
239.097;   83.700;  617.000;  664.000
239.241;    7.200;  394.000;  326.000
239.384;  -30.000; -254.000; -214.000
239.527;  -71.225; -424.000; -224.000
239.670; -152.525; -994.000;-1091.000
239.813; -115.050; -696.000; -658.000
239.956;   68.850;  579.000;  473.000
240.099; -110.350; -778.000; -725.000
240.242;   53.375;  428.000;  432.000
240.385;   16.800;  466.000;  450.000
240.528;  -72.375; -706.000; -473.000
240.671;    8.000;  189.000;  134.000
240.814;  -53.350; -441.000; -158.000
240.957; -108.675; -767.000; -578.000
241.100;  -95.975; -779.000; -755.000
241.243; -141.250;-1234.000; -893.000
241.386;  -68.850; -508.000; -379.000
241.529;  -98.200; -735.000; -547.000
241.672;  -75.925; -566.000; -495.000
241.815; -116.350; -832.000; -808.000
241.958;  -31.125; -125.000; -182.000
242.101;  -76.675; -545.000; -390.000
242.244;  -51.575; -270.000; -325.000
242.387;  -55.350; -304.000; -246.000
242.530;   56.575;  470.000;  134.000
242.673;  -42.725; -381.000; -309.000
242.815; -115.425; -925.000; -899.000
242.958;  -74.850; -482.000; -381.000
243.101;    5.075;  132.000;  187.000
243.244;  -93.925; -564.000; -521.000
243.387;  -52.825; -313.000; -316.000
243.530; -102.250; -657.000; -674.000
243.672;   -4.475;   43.000;  -92.000
243.815;  -57.075; -355.000; -283.000
243.958;    4.900;   98.000;  -26.000
244.101;   -0.050;   59.000;  -16.000
244.243;  -20.275;  -47.000;  101.000
244.386; -116.000; -761.000; -630.000
244.529;  -23.225; -132.000; -139.000
244.672; -148.925;-1154.000; -951.000
244.814;  -95.825; -621.000; -794.000
244.957;  -54.650; -380.000; -304.000
245.100;  -79.275; -489.000; -489.000
245.242;  -51.050; -387.000; -374.000
245.385;   -3.025;  -59.000;  -39.000
245.528; -121.675; -871.000; -705.000
245.670;   75.550;  612.000;  634.000
245.813;  -79.750; -599.000; -547.000
245.956;  -39.975; -324.000; -275.000
246.098;  -77.625; -508.000; -650.000
246.241;    8.050;  194.000;   48.000
246.383;  -25.050; -119.000;  -73.000
246.526;  -71.425; -454.000; -525.000
246.669; -113.575; -889.000; -780.000
246.811;   21.250;  172.000;   -1.000
246.954;  -71.300; -512.000; -426.000
247.096;  -16.250;  -84.000;   -6.000
247.239;  -71.975; -482.000; -445.000
247.381;  -70.500; -647.000; -488.000
247.524;   84.050;  645.000;  679.000
247.666;   -0.025;   58.000;   11.000
247.809; -122.600; -887.000; -691.000
247.951;  -14.225;  -75.000;  138.000
248.094;   17.425;  432.000;  308.000
248.236; -153.700;-1262.000;-1238.000
248.378;   12.625; -356.000;  -81.000
248.521;  -24.375; -334.000; -337.000
248.663;  -33.500; -236.000; -267.000
248.806;  -13.900; -300.000; -266.000
248.948;  -84.275; -886.000; -763.000
249.090;  -45.400; -428.000; -398.000
249.233;  -52.875; -344.000; -381.000
249.375;  -59.950; -474.000; -451.000
249.518;  -34.225;  -83.000; -133.000
249.660;   -8.500; -103.000;    3.000
249.802; -169.075;-1303.000;-1189.000
249.945;  -78.200; -612.000; -540.000
250.087; -110.525; -834.000; -768.000
250.229;  -42.275; -362.000; -480.000
250.371;  -79.575; -494.000; -439.000
250.514;  -36.050; -310.000; -244.000
250.656;  -22.000;   69.000;  102.000
250.798; -120.050; -849.000; -800.000
250.940;  -59.450; -322.000; -322.000
251.083;  -35.025; -335.000; -111.000
251.225;   50.250;  338.000;  310.000
251.367;  -59.750; -274.000; -373.000
251.509;  -30.850; -265.000; -210.000
251.651;  -91.150; -731.000; -671.000
251.794;   53.500;  538.000;  632.000
251.936; -108.975; -821.000; -747.000
252.078;  -78.350; -540.000; -461.000
252.220;  -76.950; -645.000; -477.000
252.362;   75.575;  344.000;  462.000
252.504;  -64.875; -677.000; -584.000
252.646; -103.625; -875.000; -722.000
252.788;    0.475;   14.000; -128.000
252.931;  -18.225; -257.000; -253.000
253.073;  -50.375; -376.000; -317.000
253.215;  -12.325;  141.000;  122.000
253.357;  -15.800;   82.000; -153.000
253.499;  -55.375; -374.000; -234.000
253.641;  -73.425; -749.000; -594.000
253.783;  -94.725; -609.000; -527.000
253.925;  -78.875; -586.000; -591.000
254.067; -118.500; -744.000; -667.000
254.209;  -38.575; -391.000; -259.000
254.351; -138.400; -865.000; -883.000
254.493;  -73.100; -441.000; -417.000
254.635; -120.875; -936.000; -818.000
254.777;  -87.250; -752.000; -687.000
254.918;  -63.450; -512.000; -430.000
255.060;  -59.175; -551.000; -395.000
255.202;  -57.700; -473.000; -261.000
255.344;  -78.500; -658.000; -455.000
255.486;  -68.300; -471.000; -406.000
255.628; -112.075; -780.000; -781.000
255.770;  -82.625; -676.000; -536.000
255.912;  -67.200; -559.000; -468.000
256.053;  -74.500; -730.000; -508.000
256.195;  147.850; 1008.000;  903.000
256.337; -105.800; -861.000; -595.000
256.479;   54.275;  532.000;  416.000
256.621;  -53.800; -394.000; -212.000
256.762;  -84.200; -789.000; -742.000
256.904;   49.375;  485.000;  487.000
257.046;  -45.250; -381.000; -271.000
257.188;  -52.375; -351.000; -264.000
257.329;  -78.850; -525.000; -464.000
257.471; -118.875; -939.000; -807.000
257.613;  -65.700; -584.000; -498.000
257.755; -150.000;-1073.000; -982.000
257.896;   29.350;  286.000;  392.000
258.038;  -75.000; -403.000; -352.000
258.180;  -39.350; -354.000; -279.000
258.321; -101.000; -581.000; -457.000
258.463;  -16.650;  -71.000;  133.000
258.605;  -88.475; -562.000; -570.000
258.746; -107.075; -886.000; -772.000
258.888; -146.825;-1026.000;-1020.000
259.029;   22.900;  121.000;   -8.000
259.171;  -92.375; -614.000; -550.000
259.313;   -0.075;  -49.000;  -47.000
259.454;  -81.600; -536.000; -414.000
259.596;  -66.975; -483.000; -390.000
259.737;  -81.850; -590.000; -474.000
259.879;   40.150;  217.000;  311.000
260.020;   79.550;  901.000;  636.000
260.162;  -32.400; -146.000; -253.000
260.303; -120.575; -768.000; -687.000
260.445;  -90.975; -609.000; -613.000
260.586;   10.625;  392.000;  157.000
260.728;  -36.325; -360.000; -248.000
260.869; -115.350; -350.000; -343.000
261.011;   58.375;  706.000;  537.000
261.152;  -67.250; -479.000; -319.000
261.293;  -77.700; -576.000; -595.000
261.435;  -37.900; -219.000; -184.000
261.576;  -53.250; -455.000; -325.000
261.718;   38.375;  420.000;  470.000
261.859; -127.925; -940.000; -949.000
262.000; -120.425; -951.000;-1016.000
262.142;  -23.925;  -52.000;  -60.000
262.283; -111.200; -808.000; -691.000
262.424;  -86.900; -666.000; -625.000
262.566; -153.850;-1161.000; -983.000
262.707; -111.650; -840.000; -830.000
262.848; -123.725; -769.000; -726.000
262.990;  -51.450; -362.000; -345.000
263.131;   67.175;  650.000;  681.000
263.272;   -0.050;  -61.000;  -41.000
263.413;  -90.075; -589.000; -561.000
263.555;  -79.125; -669.000; -143.000
263.696; -102.125; -550.000; -641.000
263.837;  -62.750; -449.000; -551.000
263.978;   -9.575;   -5.000;  -77.000
264.119;  -46.500; -283.000; -264.000
264.261; -126.925; -847.000; -630.000
264.402;    0.050;   33.000;   40.000
264.543;  -71.925; -509.000; -524.000
264.684;  -19.050;   61.000;  -50.000
264.825;  -83.225; -816.000; -538.000
264.966;    3.025;  -84.000;  -67.000
265.107; -113.625; -646.000; -670.000
265.248; -120.050; -825.000; -812.000
265.390;  -10.925;  152.000;   -9.000
265.531;  -22.625; -238.000; -107.000
265.672;  -90.075; -557.000; -630.000
265.813;   66.650;  563.000;  439.000
265.954; -156.125; -959.000; -940.000
266.095;  -15.750; -372.000; -322.000
266.236; -106.325; -686.000; -548.000
266.377;  -35.175; -243.000; -297.000
266.518;  -77.925; -619.000; -547.000
266.659;   13.850;  170.000;  268.000
266.800;    7.625;   83.000;   85.000
266.941;  -66.625; -487.000; -478.000
267.082;   -0.550;  354.000;   99.000
267.223;  -42.025; -344.000; -273.000
267.364; -117.325; -892.000; -686.000
267.504;  -20.525;    3.000;  135.000
267.645;   -1.475;  160.000;   67.000
267.786;  -37.875; -147.000;  -86.000
267.927;  -69.975; -473.000; -379.000
268.068;  -21.350; -186.000;  -61.000
268.209;  -62.325; -175.000; -413.000
268.350;  -58.375; -388.000; -532.000
268.490;  -94.550; -648.000; -521.000
268.631;   35.000;  127.000;  225.000
268.772; -103.075; -874.000; -647.000
268.913;  -48.525; -328.000; -476.000
269.054;   -8.850; -117.000;   12.000
269.194;  -52.175; -418.000; -402.000
269.335; -148.425;-1137.000;-1074.000
269.476;  -17.650;   33.000;  -35.000
269.617;  -51.825; -347.000; -392.000
269.757;  -92.675; -713.000; -646.000
269.898; -109.550; -856.000; -613.000
270.039;  -60.700; -415.000; -405.000
270.180; -139.000; -952.000; -816.000
270.320;  -27.750; -190.000; -250.000
270.461;  -41.050; -277.000; -249.000
270.602;  -19.425; -186.000; -156.000
270.742; -117.200; -868.000; -943.000
270.883;  -62.300; -442.000; -390.000
271.023;  -64.200; -358.000; -357.000
271.164;  -76.325; -607.000; -528.000
271.305;  -93.250; -666.000; -654.000
271.445;  -98.300; -722.000; -683.000
271.586;  -68.800; -462.000; -283.000
271.726;  -50.475; -397.000; -322.000
271.867;  -50.950; -594.000; -534.000
272.008;  217.375; -473.000; -285.000
272.148;  135.500;  462.000;  468.000
272.289;   14.550; -113.000; -181.000
272.429;    6.350;   19.000;  185.000
272.570;  -86.100; -633.000; -737.000
272.710; -112.150; -825.000; -775.000
272.851;  -33.400;  113.000; -130.000
272.991; -166.300;-1173.000;-1077.000
273.131;  -73.675; -419.000; -459.000
273.272; -109.225; -683.000; -723.000
273.412;   10.600; -143.000;  -31.000
273.553;  -63.150; -488.000; -507.000
273.693;  124.325;  913.000;  858.000
273.834;  -93.500; -894.000; -692.000
273.974;  -70.900; -664.000; -615.000
274.114;  -97.975; -772.000; -560.000
274.255;   81.375;  414.000;  373.000
274.395;    5.950; -180.000; -125.000
274.535;   34.350;  199.000;  350.000
274.676;   12.725;  225.000;   94.000
274.816;   -3.425;  110.000;   34.000
274.956;  -84.000; -624.000; -690.000
275.097;  -59.825;-1014.000; -922.000
275.237; -123.175; -913.000; -803.000
275.377;  -90.100; -778.000; -689.000
275.517; -135.175; -878.000; -937.000
275.658;  -55.550; -590.000; -555.000
275.798;  -67.900; -606.000; -413.000
275.938;   17.350;  215.000;  323.000
276.078;  -94.650; -626.000; -395.000
276.218;    2.875;   99.000;  104.000
276.359; -128.075;-1026.000;-1024.000
276.499;  -66.100; -605.000; -446.000
276.639;  -34.825; -305.000; -151.000
276.779;  -58.400; -475.000; -357.000
276.919; -114.400; -783.000; -624.000
277.059;  -21.750; -261.000; -212.000
277.199;  -54.750; -357.000; -259.000
277.340;   40.775;  287.000;  175.000
277.480; -115.200; -840.000; -693.000
277.620;   12.875;  192.000;   16.000
277.760; -193.350;-1533.000;-1294.000
277.900;   13.825;  113.000;   33.000
278.040;   19.600;  137.000;  159.000
278.180;   40.600;  270.000;  170.000
278.320;  -11.300;   21.000;   56.000
278.460;  -78.600; -443.000; -469.000
278.600;  -94.050; -708.000; -598.000
278.740;   55.375;  448.000;  224.000
278.880;  -15.200; -768.000; -791.000
279.020;   -9.075; -194.000; -144.000
279.160;  -97.300; -672.000; -595.000
279.300; -122.625; -926.000; -873.000
279.440;  -87.425; -709.000; -622.000
279.579;   -6.550;-1014.000; -929.000
279.719;  -46.600; -410.000; -394.000
279.859;   87.525;   -4.000;   41.000
279.999;   30.200; -208.000;  101.000
280.139;  -18.175; -435.000; -387.000
280.279;  -63.200; -708.000; -745.000
280.419;  -14.925; -229.000; -147.000
280.559;  -42.400; -259.000; -180.000
280.698;  -77.475; -790.000; -639.000
280.838;  -86.725; -778.000; -800.000
280.978;  -94.475; -846.000; -790.000
281.118; -108.075; -811.000; -704.000
281.257;   -1.250;   24.000;    6.000
281.397;  -99.175;-1094.000; -960.000
281.537;  -96.250; -599.000; -712.000
281.677;  -42.800; -150.000; -101.000
281.816;  -83.525; -700.000; -630.000
281.956;  -51.950; -193.000; -257.000
282.096;  -59.825; -539.000; -396.000
282.235; -110.725; -672.000; -638.000
282.375;  -30.825; -243.000;  -98.000
282.515; -105.450; -715.000; -707.000
282.654;   18.550;   29.000;  106.000
282.794;   14.475;  388.000;  244.000
282.934;  -43.000; -530.000; -491.000
283.073; -130.150;-1030.000; -857.000
283.213;  -46.875; -460.000; -467.000
283.353;  -38.125; -408.000; -349.000
283.492;  -36.125; -264.000; -296.000
283.632;  -39.525; -254.000; -168.000
283.771;  -97.975; -859.000; -730.000
283.911;  -54.750; -369.000; -260.000
284.050; -112.475; -794.000; -748.000
284.190; -159.400;-1229.000;-1096.000
284.329; -135.425;-1055.000; -964.000
284.469;  -63.150; -516.000; -591.000
284.608;  -58.375; -559.000; -598.000
284.748;  -85.850; -614.000; -570.000
284.887;    3.500;  -87.000;  -20.000
285.027; -117.350; -844.000; -892.000
285.166;  -34.025; -192.000; -249.000
285.306;   16.150; -116.000;  -33.000
285.445;  -42.275; -229.000; -343.000
285.584;  -98.875; -630.000; -494.000
285.724;  -41.725; -282.000; -322.000
285.863; -118.750; -857.000; -507.000
286.002;  -66.900; -366.000; -276.000
286.142; -115.050; -715.000; -622.000
286.281;  -71.800; -525.000; -493.000
286.420;  -83.525; -554.000; -417.000
286.560;   73.775;  653.000;  623.000
286.699; -133.600; -958.000; -912.000
286.838;  -82.950; -590.000; -591.000
286.978;  -84.125; -533.000; -537.000
287.117; -128.250;-1085.000; -950.000
287.256;  -42.175; -228.000; -211.000
287.395;  -47.875; -197.000; -378.000
287.535;  -63.475; -370.000; -298.000
287.674;  -77.225; -509.000; -484.000
287.813;   55.625;  661.000;  533.000
287.952; -140.800;-1010.000; -871.000
288.091; -154.825;-1049.000; -915.000
288.231;   17.325;   13.000;   15.000
288.370; -166.700;-1217.000;-1200.000
288.509;  -88.275; -728.000; -645.000
288.648;  -84.750; -770.000; -548.000
288.787;  -22.325; -243.000;  -87.000
288.926;  -66.975; -454.000; -475.000
289.065;  110.275;  859.000;  672.000
289.204;  -59.575; -377.000; -217.000
289.344;  -92.800; -791.000; -690.000
289.483;   19.975;  416.000;  304.000
289.622;  -23.175; -291.000; -149.000
289.761;  -12.250; -309.000; -166.000
289.900; -107.925; -785.000; -626.000
290.039;  -14.600;  -12.000;  -95.000
290.178;  -28.600; -274.000; -180.000
290.317;  -78.125; -618.000; -479.000
290.456;  -72.200; -463.000; -451.000
290.595; -126.125; -961.000; -833.000
290.734; -136.800; -904.000; -891.000
290.873;  -71.400; -456.000; -420.000
291.011; -106.775; -833.000; -843.000
291.150;  -95.950; -770.000; -682.000
291.289;  -33.550; -343.000; -110.000
291.428;  -92.550; -599.000; -480.000
291.567;  -66.150; -370.000; -442.000
291.706;  -11.725;  109.000;  154.000
291.845;  -90.925; -597.000; -505.000
291.984; -155.200;-1234.000;-1061.000
292.122;   61.025;  602.000;  582.000
292.261;   36.900;  620.000;  463.000
292.400;    9.875; -144.000;  211.000
292.539; -133.650; -959.000; -813.000
292.678;  -41.200; -325.000; -300.000
292.816; -163.450;-1136.000; -965.000
292.955;  -87.600; -844.000; -684.000
293.094;  -30.175; -173.000; -337.000
293.233;  -63.550; -556.000; -400.000
293.371;  -54.000; -225.000;  -84.000
293.510; -120.750; -866.000; -780.000
293.649; -127.175; -959.000; -924.000
293.787;  -33.425;-1083.000;-1012.000
293.926;  -12.750; -113.000;  -32.000
294.065;  -43.300; -379.000; -290.000
294.203;   53.350;  298.000;  406.000
294.342;   24.850;   74.000;  156.000
294.481; 5299.725;51180.000; -836.000
294.619;  -20.150; -425.000; -582.000
294.758; -133.175;-1230.000;-1137.000
294.896;   88.375; -125.000;    5.000
295.035; -120.800;-1040.000;-1006.000
295.174; -125.600;-1082.000; -954.000
295.312;  -52.475; -323.000; -203.000
295.451;   -4.075; -307.000; -428.000
295.589;  -51.725; -389.000; -518.000
295.728;   33.250; -292.000; -165.000
295.866;    0.025;  -36.000;  -51.000
296.005;  -57.600; -584.000; -341.000
296.143;  -63.625; -558.000; -596.000
296.282;  -97.000; -957.000; -881.000
296.420;  -87.050; -657.000; -557.000
296.559;  -86.325; -892.000; -633.000
296.697;   52.875; -847.000; -665.000
296.835;  110.725;-1141.000;-1002.000
296.974;   53.550;  -23.000;   39.000
297.112;   20.525; -443.000; -504.000
297.251;  -67.125; -815.000; -755.000
297.389;  143.600; -576.000; -438.000
297.527;   41.525; -145.000;  -83.000
297.666;  -50.700; -486.000; -438.000
297.804;  -53.475; -404.000; -264.000
297.942;   -9.700; -136.000; -161.000
298.081;   13.450; -183.000;   63.000
298.219;   78.975;  -17.000;  -19.000
298.357;   62.500; -144.000;  -71.000
298.495;   60.725; -810.000; -812.000
298.634;   92.325;  245.000;  219.000
298.772;   82.525; -220.000; -338.000
298.910;  -24.850; -309.000; -182.000
299.048;  -17.275; -130.000; -153.000
299.187;  -27.425; -350.000; -250.000
299.325;    7.925;   52.000;  122.000
299.463;   95.050; -389.000; -299.000
299.601;  153.400; -327.000; -271.000
299.739;  -87.675; -908.000; -883.000
299.877;  -80.325; -791.000; -703.000
300.016;  -19.375;-1095.000; -935.000
300.154;  195.700;  -19.000; -161.000
300.292;   88.250; -428.000; -348.000
300.430;   54.800; -408.000; -291.000
300.568; -103.150; -940.000; -874.000
300.706;  -60.275; -366.000; -469.000
300.844;  -53.125;-1108.000; -979.000
300.982;  121.025;  246.000;  282.000
301.120; -102.500; -965.000; -866.000
301.258;  -68.500; -812.000; -705.000
301.396;   48.150;  104.000;  -41.000
301.534;  117.725; -218.000; -293.000
301.672;   13.550; -664.000; -521.000
301.810;   63.075; -613.000; -545.000
301.948;  149.225;   53.000;  149.000
302.086;  769.650; -250.000;  -32.000
302.224; 1147.550; -610.000; -585.000
302.362;   67.725; -558.000; -622.000
302.500;   -3.625; -923.000; -893.000
302.638;  129.225;  128.000;  245.000
302.776;    4.800; -352.000; -408.000
302.913;   38.275;  447.000;  236.000
303.051;   10.725;  -86.000;  -23.000
303.189;   67.275;   90.000;  118.000
303.327;  -29.875; -341.000; -256.000
303.465;  -88.075; -832.000; -588.000
303.603;  -86.400; -805.000; -604.000
303.740;  109.225;  417.000;  241.000
303.878;   48.625; -800.000; -759.000
304.016;  -78.175; -915.000; -790.000
304.154; -115.475;-1123.000;-1152.000
304.291;  -24.125; -505.000; -554.000
304.429;    4.425;  102.000;   74.000
304.567; -121.225; -908.000; -893.000
304.705;  -59.650; -408.000; -515.000
304.842;  132.675; -616.000; -540.000
304.980;   53.550;  215.000;   35.000
305.118;   77.100; -367.000; -365.000
305.255;  -66.175; -945.000; -927.000
305.393;   53.450;  178.000;  239.000
305.531;  -96.525;-1173.000; -956.000
305.668;  -55.975; -663.000; -582.000
305.806;  134.575; -358.000; -439.000
305.943;  138.450; -629.000; -637.000
306.081;   69.300; -378.000; -267.000
306.219;  -93.225; -863.000; -748.000
306.356;  -21.100;  158.000;   27.000
306.494;   90.900;  981.000;  761.000
306.631;    2.225;  -11.000;  -55.000
306.769;   14.000; -613.000; -485.000
306.906;  -16.600; -284.000; -258.000
307.044;  -67.575; -473.000; -488.000
307.181;  -63.350; -410.000; -332.000
307.319;    9.350;  112.000;   87.000
307.456; -161.950;-1191.000;-1153.000
307.594;  -98.950; -980.000; -727.000
307.731;   -0.025; -371.000; -164.000
307.868;    9.300;  -15.000;   20.000
308.006; -129.675; -961.000; -847.000
308.143;  -67.550; -618.000; -330.000
308.281;  204.200;  -37.000; -254.000
308.418;   11.850; -748.000; -640.000
308.555;  -60.875; -400.000; -250.000
308.693;  -72.200; -577.000; -573.000
308.830; -113.725; -712.000; -657.000
308.967;  -15.875; -215.000;  -95.000
309.105;  -48.125; -507.000; -396.000
309.242;   42.300; -468.000; -367.000
309.379;  411.800; -577.000; -655.000
309.517;  -57.950; -936.000; -948.000
309.654; -103.350; -910.000; -734.000
309.791;  -77.300; -662.000; -580.000
309.928; -111.750; -977.000; -914.000
310.065;  188.700;  819.000;  697.000
310.203;   17.850; -825.000; -850.000
310.340;    3.300; -465.000; -321.000
310.477;  -80.675; -412.000; -516.000
310.614;  -68.150; -383.000; -473.000
310.751;  -80.325; -427.000; -518.000
310.889;  -15.300;    1.000;   11.000
311.026; -149.075;-1161.000; -939.000
311.163;  -48.225; -386.000; -380.000
311.300;  -88.050; -512.000; -479.000
311.437;  -75.225; -658.000; -619.000
311.574; -159.575;-1226.000; -985.000
311.711;  -48.700; -595.000; -433.000
311.848;  -36.525; -380.000; -388.000
311.985;    4.400;  270.000;   93.000
312.122; -118.325; -932.000; -762.000
312.259; -121.425; -941.000; -994.000
312.396;  -84.475; -508.000; -551.000
312.533;  -85.875; -812.000; -790.000
312.670; -139.050;-1070.000; -898.000
312.807;  -38.650; -352.000; -367.000
312.944;  -72.000; -513.000; -611.000
313.081;  -37.700; -150.000; -415.000
313.218; -104.950;-1111.000; -867.000
313.355;   15.450; -531.000; -449.000
313.492;   17.725; -455.000; -292.000
313.629;  132.600;  815.000;  735.000
313.766; -154.325;-1176.000;-1008.000
313.902;   -8.175; -186.000;   21.000
314.039;  -46.825; -372.000; -289.000
314.176;   37.550;  286.000;  192.000
314.313;  -66.850; -569.000; -473.000
314.450;  -78.650; -788.000; -684.000
314.587;  -56.300; -468.000; -480.000
314.723;    1.900;  -78.000;  130.000
314.860;   29.050;  318.000;  332.000
314.997;   27.125;  223.000;  142.000
315.134;  -41.325; -385.000; -368.000
315.270;  -39.750; -480.000; -496.000
315.407; -115.525;-1094.000; -967.000
315.544;  -51.500; -657.000; -538.000
315.681;  -56.725; -681.000; -565.000
315.817;   33.275; -133.000; -176.000
315.954;   17.825; -613.000; -392.000
316.091; -113.650;-1045.000;-1023.000
316.227;  -27.800;  -71.000; -179.000
316.364;   -2.550;   23.000;    6.000
316.500;  -51.675; -113.000; -300.000
316.637;  -45.750; -181.000; -302.000
316.774;  -93.525; -625.000; -358.000
316.910;  -90.150; -598.000; -629.000
317.047;  -58.725; -487.000; -351.000
317.183;  -42.175; -435.000; -566.000
317.320;  -19.075; -367.000; -321.000
317.456;  -76.925; -733.000; -805.000
317.593;  -83.400; -598.000; -641.000
317.729;   -7.400;  168.000;  -67.000
317.866; -201.050;-1434.000;-1285.000
318.002;  -91.275; -708.000; -948.000
318.139;  -85.925; -883.000; -867.000
318.275; -104.950;-1003.000; -738.000
318.412;  -61.650; -517.000; -336.000
318.548;  -19.475; -751.000; -720.000
318.685;  -87.175; -985.000; -888.000
318.821;  -99.800; -762.000; -735.000
318.957;  -26.475;   34.000;  -23.000
319.094;   28.525;  297.000;  154.000
319.230;  -55.375; -756.000; -742.000
319.367;  169.675; -471.000; -520.000
319.503;   61.025; -538.000; -436.000
319.639; -102.200; -877.000; -793.000
319.775;  -67.075; -750.000; -685.000
319.912;  -39.125; -424.000; -519.000
320.048;  -72.725;-1184.000;-1184.000
320.184;   63.400;   59.000;   70.000
320.321;  -69.325; -497.000; -467.000
320.457;   55.400;  475.000;  662.000
320.593;  -66.825; -375.000; -382.000
320.729; -103.875; -732.000; -734.000
320.866;  -74.075; -577.000; -635.000
321.002;  -73.475; -759.000; -809.000
321.138;  -15.825; -135.000; -211.000
321.274;   91.800; -148.000; -115.000
321.410;  -15.075; -585.000; -353.000
321.546;    1.650;-1011.000; -911.000
321.683;   50.775;  400.000;  185.000
321.819;    9.100;  -48.000; -117.000
321.955; -102.900; -743.000; -722.000
322.091;  -45.500; -585.000; -540.000
322.227;   -9.675; -382.000; -202.000
322.363;   11.700; -320.000; -215.000
322.499;  -47.850; -343.000; -331.000
322.635;  185.525;  636.000;  443.000
322.771;   39.150; -139.000;   12.000
322.907;   75.850;  129.000;  327.000
323.043;  -17.375; -115.000; -206.000
323.179;  -23.725; -394.000; -363.000
323.315;   33.350; -401.000; -371.000
323.451;  122.475; -328.000; -236.000
323.587;   78.775;  -60.000;  -77.000
323.723;   51.650; -682.000; -601.000
323.859;  -18.725; -258.000;  -76.000
323.995;  -22.350; -467.000; -409.000
324.131; -119.700; -967.000; -892.000
324.267;  -41.725; -254.000; -276.000
324.402; -118.800; -960.000; -983.000
324.538;   -4.975; -279.000; -104.000
324.674;   23.125;  164.000;   77.000
324.810;  147.925;  226.000;  308.000
324.946;   19.800; -810.000; -658.000
325.082;  -70.025; -568.000; -475.000
325.217;  -22.675;  -62.000;   16.000
325.353; -112.350; -764.000; -659.000
325.489;  -86.600; -540.000; -506.000
325.625;  -61.550; -579.000; -525.000
325.760;   52.750;  517.000;  376.000
325.896;  -33.400; -515.000; -702.000
326.032;  -37.750; -403.000; -352.000
326.168;  -64.825; -462.000; -369.000
326.303;  -65.150; -352.000; -461.000
326.439;  -30.800; -336.000; -276.000
326.575;   -0.950; -190.000;  -29.000
326.710;   -8.650; -156.000;  -30.000
326.846;  -22.550;  146.000;  103.000
326.982;  -95.925; -530.000; -548.000
327.117;  -72.350; -481.000; -442.000
327.253;  -90.400; -745.000; -742.000
327.388; -114.750;-1137.000;-1153.000
327.524;  -41.475; -811.000; -578.000
327.659;  -29.300;  -58.000;  -22.000
327.795;  -21.325;   69.000;   45.000
327.931;  -84.825; -723.000; -499.000
328.066;  -19.450; -417.000; -276.000
328.202;  -25.000;   12.000; -129.000
328.337;   94.050;  957.000;  713.000
328.473;   30.625;  -12.000;  -74.000
328.608;  -39.175; -256.000; -267.000
328.743;  -72.250; -799.000; -664.000
328.879;   24.450;  214.000;  114.000
329.014;  -46.200; -102.000; -122.000
329.150;  -86.425; -358.000; -483.000
329.285;  -64.350; -465.000; -466.000
329.421;  -44.850; -548.000; -246.000
329.556;  -23.025;  -36.000;   85.000
329.691; -103.850; -633.000; -615.000
329.827;  -90.000; -626.000; -480.000
329.962;  -47.925;  131.000; -301.000
330.097;  -90.450; -673.000; -585.000
330.233;  -47.600; -410.000; -223.000
330.368; -123.925; -839.000; -628.000
330.503;  -27.925;    3.000;   98.000
330.638;    1.900;  -93.000; -125.000
330.774;  -53.225; -609.000; -530.000
330.909;  -30.100; -434.000; -244.000
331.044; -107.100; -714.000; -708.000
331.179; -169.425;-1217.000;-1109.000
331.315;   19.325;   77.000;   20.000
331.450;   15.375;  157.000;  285.000
331.585;  -73.825; -805.000; -706.000
331.720;  -76.550; -510.000; -460.000
331.855;   -3.675;  -35.000; -102.000
331.990;  228.625;   62.000;  138.000
332.126;  109.625; -110.000;   71.000
332.261;  -31.150; -379.000; -265.000
332.396;    2.850; -135.000; -242.000
332.531; -114.600;-1074.000;-1031.000
332.666;   22.500; -519.000; -363.000
332.801; -102.100; -726.000; -807.000
332.936;  -20.950; -192.000; -122.000
333.071; -143.850; -870.000; -817.000
333.206;    9.100;  307.000;  379.000
333.341;   13.550;  344.000;  418.000
333.476;  -85.175; -627.000; -623.000
333.611;  -55.500; -251.000; -173.000
333.746;  -35.000; -381.000; -464.000
333.881; -107.575; -973.000; -935.000
334.016; -130.950; -936.000; -917.000
334.151; -123.600; -746.000; -702.000
334.286;   38.275;  152.000;  186.000
334.421;  -12.175; -125.000; -178.000
334.556;  -73.750; -611.000; -567.000
334.690;  -78.625; -631.000; -577.000
334.825;   60.850;  381.000;   83.000
334.960;  -74.500; -285.000; -413.000
335.095;   10.025;  135.000;  -91.000
335.230;  -90.125; -722.000; -738.000
335.365; -145.225;-1084.000; -990.000
335.499; -120.475;-1108.000;-1037.000
335.634;   21.850;    9.000;  534.000
335.769;  -98.050; -755.000; -720.000
335.904;  -43.600; -603.000; -561.000
336.038;  -52.150; -735.000; -657.000
336.173;  -97.500;-1206.000;-1194.000
336.308;    2.550; -116.000; -189.000
336.443;   27.375; -544.000; -634.000
336.577;  -66.800; -936.000; -787.000
336.712;   61.700;   -4.000;  -12.000
336.847;  -41.950; -724.000; -607.000
336.981;   86.000; -272.000; -208.000
337.116;  322.750;  615.000;  501.000
337.250;  175.100; -434.000; -421.000
337.385;  222.225; -297.000; -208.000
337.520;   55.650; -632.000; -603.000
337.654;  -51.150; -215.000; -126.000
337.789; -131.775; -989.000; -933.000
337.923;  -29.950; -104.000; -205.000
338.058;  -88.850; -673.000; -738.000
338.192;  -26.975; -611.000; -488.000
338.327;    2.075;  -18.000; -155.000
338.461;  -82.350; -299.000; -469.000
338.596;  -73.775; -780.000; -638.000
338.730; -105.025; -767.000; -803.000
338.865;   75.575;  -46.000; -140.000
338.999;  -50.000; -846.000; -702.000
339.134;  -28.200; -634.000; -536.000
339.268;   27.000; -741.000; -603.000
339.403;  355.025; -740.000; -775.000
339.537;   98.200; -894.000; -820.000
339.671; -129.300; -829.000; -813.000
339.806;  -71.925; -556.000; -512.000
339.940;   -3.050; -261.000; -235.000
340.074;  -99.350; -685.000; -510.000
340.209;  -48.600; -351.000; -230.000
340.343; -102.825; -517.000; -573.000
340.477;  151.700;  998.000; 1036.000
340.612;  -75.450;-1033.000; -900.000
340.746;  125.300; -199.000; -243.000
340.880;  -59.750; -924.000; -785.000
341.014;  -31.950;  -45.000; -154.000
341.149; -117.850; -756.000; -718.000
341.283; -107.675; -839.000; -754.000
341.417;  -78.400;-1124.000; -938.000
341.551;  191.350; -768.000; -708.000
341.685;  -31.200; -633.000; -611.000
341.820;  -61.125; -562.000; -493.000
341.954;  -44.875; -218.000; -349.000
342.088; -143.775;-1102.000;-1019.000
342.222;   41.325;  565.000;  618.000
342.356;  -48.375; -395.000; -335.000
342.490;  -82.850; -880.000; -841.000
342.624;  -38.900; -339.000; -242.000
342.758;   -9.250; -364.000; -312.000
342.892;  -67.600; -710.000; -585.000
343.026;  -31.550;  -58.000; -116.000
343.160;  -61.625; -426.000; -376.000
343.294;  -89.525; -474.000; -337.000
343.428;   -7.650; -488.000; -448.000
343.562;  -28.250; -172.000;  -23.000
343.696;   -9.975; -385.000; -314.000
343.830;  -10.000; -362.000; -356.000
343.964;   35.650; -231.000; -168.000
344.098; 1112.050;  199.000;   70.000
344.232;  950.975; -266.000; -127.000
344.366;   93.500; -567.000; -453.000
344.500;  101.050; -665.000; -744.000
344.634;   56.225; -324.000; -164.000
344.768;   13.375; -531.000; -341.000
344.902;   21.575;  278.000;  256.000
345.035;  -73.075; -556.000; -496.000
345.169; -136.750; -933.000; -656.000
345.303;  -24.250; -308.000; -482.000
345.437;  -63.825; -826.000; -717.000
345.571;  -77.475; -675.000; -594.000
345.704;  -63.475; -309.000; -532.000
345.838;  -11.600; -331.000; -284.000
345.972;  -35.250; -543.000; -495.000
346.106;  161.975; -179.000; -190.000
346.239;  427.875; -312.000; -243.000
346.373;    8.750; -343.000; -302.000
346.507; -138.575; -950.000; -962.000
346.640;  175.250;  -30.000;   13.000
346.774;  -24.100; -650.000; -797.000
346.908;  -29.450; -138.000;  -11.000
347.041; -108.175; -646.000; -593.000
347.175;   -1.025;  259.000;   27.000
347.309;  -61.400; -698.000; -628.000
347.442;  -92.950; -883.000; -732.000
347.576;  318.850;  670.000;  668.000
347.709;  251.125; -123.000;  -52.000
347.843;  -80.775; -933.000; -825.000
347.976;   30.750;  235.000;  294.000
348.110; -181.425;-1268.000;-1186.000
348.243; -103.975; -679.000; -772.000
348.377;  -22.450;  -26.000;   60.000
348.510;   44.425;  403.000;  540.000
348.644;  -28.275;  -37.000; -159.000
348.777;   -6.425;  180.000;  191.000
348.911;  -55.175; -142.000; -112.000
349.044;  188.600;  471.000;  448.000
349.178;  225.575;-1069.000;-1006.000
349.311;  124.800;  141.000;  255.000
349.444;   -4.750; -927.000; -813.000
349.578;  -25.075; -347.000; -200.000
349.711;  -99.500; -959.000; -862.000
349.845;   16.425; -661.000; -591.000
349.978; -140.325;-1224.000;-1137.000
350.111;  -81.325; -546.000; -612.000
350.244;  -59.150; -596.000; -700.000
350.378;   16.875; -392.000; -393.000
350.511;  -62.675; -393.000; -426.000
350.644;  -99.625; -808.000; -806.000
350.778;    3.225;  168.000;  104.000
350.911;    3.600;  134.000;  140.000
351.044;  -92.050; -685.000; -615.000
351.177;  -29.450; -321.000; -281.000
351.310;  -23.850;    3.000; -131.000
351.444;  -69.550; -888.000; -788.000
351.577;  141.100;  140.000;   90.000
351.710;   86.825;  593.000;  417.000
351.843;  -42.000; -165.000;  -77.000
351.976;    2.375;  149.000;  -79.000
352.109;  -75.900; -621.000; -612.000
352.242;   -8.225; -464.000; -419.000
352.376;  -57.950; -580.000; -636.000
352.509;  219.150; -437.000; -356.000
352.642;   47.350; -654.000; -604.000
352.775;   76.725; -141.000;  -98.000
352.908; -107.450; -933.000; -904.000
353.041;  -95.075; -814.000; -824.000
353.174;  -71.475; -551.000; -424.000
353.307;  -94.350; -753.000; -764.000
353.440;   58.800;  541.000;  453.000
353.573; -106.675; -957.000;-1008.000
353.706;  -56.400; -384.000; -558.000
353.839;  -28.375; -264.000; -220.000
353.971;  -88.225; -657.000; -512.000
354.104;  -82.325; -896.000; -835.000
354.237;  -21.250; -627.000; -662.000
354.370;  -81.500; -846.000; -879.000
354.503; -177.600;-1231.000;-1308.000
354.636;  -37.375; -529.000; -348.000
354.769; -133.600; -937.000; -860.000
354.902;    1.125; -230.000; -139.000
355.034;  -18.325; -164.000; -220.000
355.167;  -18.225; -262.000; -162.000
355.300;  -84.725;-1061.000; -880.000
355.433;  930.750;  -71.000;  -14.000
355.565; 1434.775; -402.000; -384.000
355.698;  368.675; -356.000; -296.000
355.831;   15.150; -882.000; -801.000
355.964;  111.775; -285.000; -170.000
356.096;  -77.200; -856.000; -843.000
356.229;   18.750; -523.000; -530.000
356.362;  288.425; -373.000; -266.000
356.494;  589.750; -229.000; -162.000
356.627;  568.700;  269.000;  377.000
356.760;  654.425;  120.000;   53.000
356.892;  918.550; -286.000; -601.000
357.025;  783.225;  403.000;  389.000
357.157;  748.825; -167.000; -179.000
357.290;  606.275; -856.000; -713.000
357.423;  205.275; -667.000; -556.000
357.555;  161.975; -217.000; -228.000
357.688;  150.400; -483.000; -364.000
357.820;  537.475; -870.000; -877.000
357.953; 4325.400; -563.000; -589.000
358.085; 1015.875; -632.000; -612.000
358.218; 1495.350;-1131.000; -932.000
358.350;  286.925;  -58.000;  312.000
358.483; -107.650;-1300.000;-1187.000
358.615;   16.900;-1182.000;-1078.000
358.747;  -20.300;-1187.000;-1058.000
358.880;   67.250; -810.000; -744.000
359.012;   -5.425; -376.000; -202.000
359.145;  -46.800; -480.000; -511.000
359.277;  109.800; -962.000; -913.000
359.409; 3565.200;  536.000;  231.000
359.542;  973.950; -738.000; -688.000
359.674;   76.300;   46.000;   13.000
359.806;  -49.700; -565.000; -438.000
359.939;  -39.025; -617.000; -516.000
360.071;  -13.050; -583.000; -579.000
360.203;  -21.125; -411.000; -364.000
360.335;   63.950;  164.000;  -16.000
360.468;  226.600; -249.000; -307.000
360.600; 2789.675; -547.000; -454.000
360.732; 2736.300; -546.000; -423.000
360.864;  395.025;-1216.000;-1044.000
360.996;  373.275; -516.000; -554.000
361.129;   67.425; -389.000; -598.000
361.261;   24.125;  110.000; -113.000
361.393;  -23.275; -252.000; -214.000
361.525;   34.550;   94.000;  244.000
361.657;  -26.575; -821.000; -703.000
361.789;   27.700; -139.000; -155.000
361.921;  319.475; -642.000; -593.000
362.053;  312.100;  524.000;  541.000
362.185;   48.300;  288.000;   72.000
362.318;  -62.475; -709.000; -705.000
362.450;  136.250;  294.000;  444.000
362.582;  186.700; -913.000; -870.000
362.714;  -39.300; -353.000; -332.000
362.846;  -77.425; -606.000; -490.000
362.978; -135.350; -941.000; -811.000
363.109;   67.775; -161.000; -260.000
363.241;  582.275; -739.000; -749.000
363.373;  435.200; -649.000; -564.000
363.505;  612.650; -186.000;  -91.000
363.637;  160.150; -787.000; -601.000
363.769; -112.425;-1067.000;-1080.000
363.901;  -68.350; -596.000; -654.000
364.033; -102.825;-1103.000;-1062.000
364.165;   17.600; -283.000; -283.000
364.296;   68.250; -316.000; -177.000
364.428;   66.175;-1344.000;-1220.000
364.560;  -62.950; -679.000; -661.000
364.692;  -50.425; -738.000; -835.000
364.824;  360.925; -588.000; -456.000
364.955;  475.175; -402.000; -564.000
365.087;  811.700;-1097.000; -852.000
365.219;   37.100; -686.000; -816.000
365.351;  -56.600; -526.000; -572.000
365.482;   57.400;  300.000;  240.000
365.614;  -43.025; -402.000; -314.000
365.746;  -99.225; -729.000; -752.000
365.877;  -99.550; -706.000; -672.000
366.009;  230.475;  -35.000;  -62.000
366.141;  -93.150;-1249.000;-1134.000
366.272;  -98.550; -803.000; -719.000
366.404; -116.625;-1005.000; -874.000
366.535;  -11.175; -139.000;  -12.000
366.667; -101.325; -644.000; -649.000
366.799;   31.600;  353.000;  203.000
366.930; -109.825; -862.000; -996.000
367.062;  126.675; -639.000; -613.000
367.193;  145.700; -872.000; -842.000
367.325;  -57.450; -580.000; -684.000
367.456;   79.350; -246.000;   31.000
367.588;  141.675; -371.000; -318.000
367.719;   33.650;  -44.000;  -45.000
367.851;  -14.875; -222.000; -241.000
367.982;  -35.975; -875.000; -732.000
368.113;  141.475; -475.000; -358.000
368.245; -100.275; -960.000; -841.000
368.376;  -20.250; -254.000; -302.000
368.508;  -30.325; -188.000; -263.000
368.639; -131.675;-1166.000;-1034.000
368.770;    0.300; -670.000; -589.000
368.902;  -44.350; -836.000; -926.000
369.033; -103.075; -906.000; -855.000
369.164;  -35.300; -720.000; -653.000
369.296; -105.250; -452.000; -601.000
369.427;    0.625; -209.000; -144.000
369.558;  -49.675; -593.000; -377.000
369.689;  -83.525; -721.000; -569.000
369.821; -126.000; -951.000; -845.000
369.952;  -31.550;   42.000; -108.000
370.083;  -43.600; -229.000; -108.000
370.214;  -83.025; -735.000; -650.000
370.345;  -12.475;   65.000;   81.000
370.477;  -88.175; -810.000; -790.000
370.608;  288.700; -328.000; -264.000
370.739;  -20.125;-1233.000;-1292.000
370.870;  -26.450;-1102.000; -923.000
371.001;  126.975; -378.000; -467.000
371.132;  -60.500; -754.000; -735.000
371.263;  -18.325;  -42.000; -148.000
371.394; -134.950; -841.000; -748.000
371.525;   21.200;  345.000;  225.000
371.657;  -93.550; -808.000; -670.000
371.788;   70.875;  103.000;  199.000
371.919;  233.400; -384.000; -304.000
372.050; 4323.000;  -91.000; -156.000
372.181; 1377.800; -188.000; -294.000
372.311;  459.850;   42.000; -127.000
372.442;   66.375; -457.000; -451.000
372.573;   -9.575; -444.000; -340.000
372.704; -117.025;-1008.000; -980.000
372.835;  139.525; -228.000; -289.000
372.966;  -62.575; -646.000; -554.000
373.097;  -53.375; -575.000; -711.000
373.228;  -29.175; -717.000; -542.000
373.359;  199.375; -824.000; -536.000
373.490; 1177.975; -881.000; -727.000
373.620; 1493.500;-1001.000; -803.000
373.751; 2199.775; -332.000; -396.000
373.882; 1027.625; -663.000; -733.000
374.013;  103.125; -449.000; -262.000
374.143;  -31.825; -581.000; -659.000
374.274;  -94.775; -987.000; -908.000
374.405;  216.300; -388.000; -276.000
374.536;  536.325; -526.000; -387.000
374.666; 1449.525; -759.000; -807.000
374.797;  300.900; -817.000; -868.000
374.928; 1116.000; -710.000; -560.000
375.058; 1132.125; -535.000; -500.000
375.189;  103.150;  -59.000;  -93.000
375.320;  -96.275; -928.000;-1034.000
375.450;  -35.675; -625.000; -616.000
375.581;  -42.475; -526.000; -436.000
375.712;  -38.750; -574.000; -250.000
375.842;  382.150; -438.000; -415.000
375.973;  306.950; -554.000; -513.000
376.103;  -17.400; -665.000; -648.000
376.234;  -69.800; -531.000; -552.000
376.364;  -28.800; -944.000; -867.000
376.495;  379.425;  925.000;  529.000
376.625;   21.600; -472.000; -485.000
376.756;  108.900; -709.000; -678.000
376.886;  -54.825;-1178.000;-1026.000
377.017;   23.250;-1048.000;-1061.000
377.147;  330.150; -786.000; -782.000
377.278;   58.825;  174.000;  228.000
377.408; -124.150; -801.000; -815.000
377.538; -106.100; -707.000; -693.000
377.669;  -79.500; -537.000; -613.000
377.799;  -74.625; -645.000; -635.000
377.929;  -49.050; -610.000; -428.000
378.060; -131.950; -781.000; -847.000
378.190;  -72.775; -726.000; -531.000
378.320;  -44.600; -401.000; -406.000
378.451;   -5.875; -131.000;  -22.000
378.581;   -3.075;  -67.000; -110.000
378.711;  147.975; 1035.000;  866.000
378.841;    3.075; -533.000; -675.000
378.972;  -59.750; -871.000; -751.000
379.102;   15.900; -652.000; -579.000
379.232;  -11.200; -126.000;  -73.000
379.362;  -95.125;-1001.000; -885.000
379.492;   24.500; -373.000; -424.000
379.623;  119.500;    0.000;  111.000
379.753;  -87.100;-1107.000; -974.000
379.883;  221.950;   59.000;  156.000
380.013;   55.300;-1081.000;-1017.000
380.143;  -85.000;-1097.000;-1056.000
380.273;  -93.100; -985.000; -861.000
380.403;    3.150; -344.000; -257.000
380.533;   -9.125; -651.000; -664.000
380.663;   88.825;  173.000;  128.000
380.793;  -80.450;-1027.000;-1074.000
380.923;  -20.700; -103.000;  -34.000
381.053;  -93.600; -613.000; -623.000
381.183;  -33.850; -106.000; -248.000
381.313;   73.625; -656.000; -470.000
381.443;   77.400; -692.000; -473.000
381.573;  282.725; -402.000; -409.000
381.703;  405.450;-1249.000;-1095.000
381.833;  -82.525;-1454.000;-1336.000
381.963;  116.975; -134.000;  -87.000
382.093; 1672.625; -925.000; -909.000
382.223;  566.625; -713.000; -602.000
382.353;   21.000; -801.000; -608.000
382.482;  495.050;-1091.000; -964.000
382.612;  949.425; -872.000; -644.000
382.742;  534.700; -695.000; -622.000
382.872;  374.600; -565.000; -551.000
383.002;   73.100;  347.000; -132.000
383.131;    4.750; -226.000; -160.000
383.261;  -30.050; -706.000; -768.000
383.391;  299.925; -552.000; -377.000
383.521; 2966.925;  451.000;  263.000
383.650;  727.800; -947.000; -904.000
383.780;   -6.875; -783.000; -656.000
383.910;  110.175;  880.000;  802.000
384.039;   74.000; -794.000; -656.000
384.169;  308.175;-1205.000;-1017.000
384.299;   19.450; -650.000; -662.000
384.428;  -84.725; -764.000; -680.000
384.558;  -34.975; -308.000; -275.000
384.687;  -27.775; -414.000; -334.000
384.817;   19.850;   75.000;   -2.000
384.947;   30.975; -234.000; -141.000
385.076;  313.750;  982.000;  912.000
385.206;  117.375;  369.000;  480.000
385.335;  -21.975; -549.000; -417.000
385.465;  -65.050; -655.000; -663.000
385.594;  171.500;  -53.000;  -44.000
385.724;  584.700; -868.000; -838.000
385.853;  168.425; -296.000; -270.000
385.982; 1656.000; -743.000; -787.000
386.112; 2705.850;-1052.000; -871.000
386.241;  209.625; -307.000; -312.000
386.371;   28.925; -174.000;  -87.000
386.500;   36.450; -825.000; -789.000
386.629;   50.050; -874.000; -817.000
386.759;   73.250;  -43.000;   68.000
386.888;    4.950; -170.000; -250.000
387.017;  -76.050; -648.000; -620.000
387.147;  -69.675; -771.000; -798.000
387.276;   11.725; -410.000; -397.000
387.405;   28.600; -398.000; -342.000
387.535;  -35.625; -452.000; -361.000
387.664;  -50.575; -692.000; -620.000
387.793;   69.100; -198.000; -113.000
387.922;  631.425;  255.000;  200.000
388.052;   46.375; -576.000; -423.000
388.181;   37.550; -342.000; -472.000
388.310;   53.350; -889.000; -710.000
388.439;  -16.675; -749.000; -742.000
388.568;  231.825;  365.000;  244.000
388.697; 1306.475; -756.000; -653.000
388.826;  309.000; -768.000; -666.000
388.956;   88.900; -285.000; -307.000
389.085;  -32.450; -347.000; -287.000
389.214; -115.025; -842.000; -872.000
389.343;  -67.800; -645.000; -413.000
389.472;  387.475;  126.000;  149.000
389.601;  544.525;   91.000;    0.000
389.730;   38.600; -568.000; -687.000
389.859;   83.550;  226.000;   46.000
389.988;  242.925; -423.000; -408.000
390.117;  192.125; -168.000; -146.000
390.246;    2.150; -331.000; -320.000
390.375;  159.150; -673.000; -626.000
390.504;  -38.950; -703.000; -621.000
390.633;  -88.500; -672.000; -726.000
390.761;  -54.700; -732.000; -645.000
390.890;   34.800;   -4.000; -130.000
391.019;  -22.000; -421.000; -441.000
391.148; -134.875; -826.000; -855.000
391.277;  -50.900; -576.000; -493.000
391.406;  -57.925; -821.000; -805.000
391.534;   14.675;  574.000; -301.000
391.663;  -56.775; -583.000; -645.000
391.792;  -82.025; -673.000; -701.000
391.921;  126.275;   -3.000;   15.000
392.050;  260.625; -287.000; -228.000
392.178;  -10.000;-1206.000;-1061.000
392.307;  195.325; -758.000; -712.000
392.436;  121.900; -427.000; -641.000
392.564;   33.050;  166.000;   -6.000
392.693;  -92.025; -860.000; -682.000
392.822;  257.100; -529.000; -534.000
392.950;  139.675; -880.000; -714.000
393.079;  418.550; -188.000; -328.000
393.208;   66.175; -488.000; -511.000
393.336;  -14.975; -170.000; -145.000
393.465;  -46.600; -317.000; -199.000
393.593;   -0.950;   62.000;   79.000
393.722; -149.150;-1121.000; -916.000
393.850;  -27.850; -188.000;  -61.000
393.979; -143.175; -926.000; -805.000
394.107;  -60.100; -517.000; -537.000
394.236;  -22.425; -570.000; -507.000
394.364;  250.450;  383.000;  206.000
394.493;  476.225; -911.000; -767.000
394.621;    9.700; -955.000; -916.000
394.750;  648.500; -873.000; -923.000
394.878; 2781.700; -247.000; -149.000
395.007; 3928.975; -721.000; -807.000
395.135;  304.050; -790.000; -721.000
395.263;  -91.775;-1038.000;-1040.000
395.392;    5.150;  -25.000; -107.000
395.520; -138.950; -818.000; -679.000
395.648;  -81.850; -865.000; -915.000
395.777;    2.775; -366.000; -405.000
395.905;  -33.075; -449.000; -564.000
396.033;   23.075;  217.000;  172.000
396.162;  720.450; -399.000; -453.000
396.290;  688.350;  -17.000;   -2.000
396.418;  162.125; -555.000; -514.000
396.546;  -59.775; -571.000; -466.000
396.674;  -85.750; -850.000; -878.000
396.803;    8.525;  -72.000;  -23.000
396.931;  134.700; -179.000; -199.000
397.059;   98.525;-1026.000; -989.000
397.187;  -93.925;-1026.000; -975.000
397.315; -138.275; -884.000; -649.000
397.443;  -91.975; -592.000; -443.000
397.572;  -96.600; -578.000; -424.000
397.700;    6.275; -607.000; -614.000
397.828;   31.375;  120.000;  -90.000
397.956;  -40.450; -508.000; -478.000
398.084;  -78.375; -767.000; -626.000
398.212;   34.775;  137.000;  124.000
398.340;   10.450;  -56.000;  159.000
398.468;   46.175; -390.000; -169.000
398.596; -139.025; -993.000; -953.000
398.724; -116.275; -762.000; -767.000
398.852; -159.125;-1024.000; -976.000
398.980;  -48.775; -560.000; -560.000
399.108;  -52.825; -982.000; -735.000
399.236;   38.600;   13.000;    8.000
399.363;   10.425;  222.000;  196.000
399.491;  -65.100; -404.000; -398.000
399.619; -118.300; -829.000; -800.000
399.747;  -97.525; -859.000; -771.000
399.875;   82.275;  220.000;  234.000
400.003;  -38.300; -359.000; -284.000
400.130;  -84.875; -421.000; -341.000
400.258;  -41.550;  -83.000;   38.000
400.386;  -57.775; -352.000; -168.000
400.514;  -37.600; -526.000; -587.000
400.641;  -67.850; -928.000; -802.000
400.769; -131.200; -979.000; -888.000
400.897; -114.200; -838.000; -793.000
401.025;  -11.100; -166.000; -152.000
401.152;   -6.500;  220.000;   38.000
401.280;  -91.100; -430.000; -429.000
401.408; -120.850; -712.000; -576.000
401.535; -108.275; -735.000; -758.000
401.663; -191.950;-1134.000;-1054.000
401.790;  -90.500; -514.000; -525.000
401.918;   30.900;  436.000;  405.000
402.046;  -26.975;  134.000;  122.000
402.173;  -37.600;  -18.000;    7.000
402.301;  -67.325; -519.000; -397.000
402.428;   30.150;  528.000;  383.000
402.556; -128.900;-1188.000; -913.000
402.683;  -42.375;  -20.000;   -1.000
402.811;  -24.550;  -37.000; -206.000
402.938;  -13.050;   20.000;   27.000
403.066;  244.025; -574.000; -558.000
403.193;  405.975;  299.000;  239.000
403.321;  330.625; -396.000; -574.000
403.448;  398.700;   83.000;   27.000
403.575;  198.975;  -90.000;  -46.000
403.703; -100.150; -732.000; -557.000
403.830;  -75.900; -531.000; -496.000
403.957; -138.500;-1117.000;-1023.000
404.085;   11.350;  -61.000; -172.000
404.212;  104.900;  -50.000;   63.000
404.339;  252.525; -566.000; -306.000
404.467; 5393.750; -612.000; -524.000
404.594; 3943.850; -287.000; -227.000
404.721; 1077.275; -869.000; -764.000
404.848;   93.775; -113.000; -202.000
404.976;  -96.450; -856.000; -783.000
405.103;   -0.175;  -14.000;  -82.000
405.230;  -10.325;  190.000;  226.000
405.357;   24.200;  117.000;   44.000
405.484;  239.050;  -49.000;    5.000
405.612;   53.900; -548.000; -563.000
405.739;  -67.350; -488.000; -243.000
405.866;   87.000;  669.000;  385.000
405.993;  -25.925; -398.000; -102.000
406.120; -133.625; -801.000; -887.000
406.247;  -69.225; -323.000; -342.000
406.374;  534.550;  540.000;  629.000
406.501;  180.775; -632.000; -702.000
406.628;  -63.100; -621.000; -589.000
406.755;  -89.325; -803.000; -620.000
406.882;  -48.450; -228.000; -277.000
407.009; -113.850; -719.000; -628.000
407.136;   52.825; -480.000; -401.000
407.263;  215.350; -939.000; -829.000
407.390;  -63.300; -692.000; -614.000
407.517; -154.450;-1139.000;-1187.000
407.644;  -59.525; -332.000; -256.000
407.771;  -61.750; -249.000; -287.000
407.898;   -1.200;  168.000;  328.000
408.025;  -54.750; -421.000; -313.000
408.151;  -10.100;   82.000;  153.000
408.278;  -73.575; -267.000; -216.000
408.405; -107.975; -931.000; -899.000
408.532;  -71.700; -549.000; -542.000
408.659; -111.850; -677.000; -648.000
408.785; -193.625;-1298.000;-1170.000
408.912;  -70.975; -412.000; -296.000
409.039; -117.225; -610.000; -686.000
409.166; -102.125; -591.000; -555.000
409.292; -117.550; -571.000; -534.000
409.419; -121.875; -665.000; -649.000
409.546;  -87.375; -431.000; -192.000
409.672; -122.825; -713.000; -545.000
409.799;  -26.450;  -36.000;   34.000
409.926;  -33.050; -180.000; -179.000
410.052; -184.850;-1127.000;-1091.000
410.179;  -51.950; -368.000; -392.000
410.305; -100.625; -375.000; -493.000
410.432;  -52.175; -220.000; -333.000
410.558;  -88.650; -305.000; -380.000
410.685; -123.200; -688.000; -431.000
410.812; -105.075; -409.000; -588.000
410.938; -143.050; -964.000; -808.000
411.065; -102.225; -671.000; -645.000
411.191;  -12.925; -189.000; -174.000
411.317; -120.750; -823.000; -742.000
411.444;  -55.425; -317.000; -246.000
411.570;  -87.750; -339.000; -294.000
411.697; -139.075; -758.000; -752.000
411.823; -177.425; -989.000; -999.000
411.949;  -31.200;  -56.000;   17.000
412.076; -120.925; -539.000; -519.000
412.202; -123.350; -758.000; -757.000
412.329; -131.700; -798.000; -752.000
412.455; -109.325; -821.000; -657.000
412.581;  -18.475;  -15.000;  172.000
412.707;  -53.975; -540.000; -457.000
412.834;   12.225;  156.000;  219.000
412.960;  -83.800; -785.000; -784.000
413.086; -103.575; -743.000; -701.000
413.212;  155.875;  604.000;  578.000
413.339;  -52.250; -685.000; -701.000
413.465;   14.125; -364.000; -310.000
413.591;  -72.700; -757.000; -474.000
413.717;  -56.200; -358.000; -366.000
413.843; -135.325; -839.000; -861.000
413.969;  -70.700;  -47.000; -292.000
414.096;  -99.300; -679.000; -679.000
414.222;    3.750;  -33.000;   85.000
414.348;   -9.175; -652.000; -385.000
414.474;  124.825;   38.000;  -52.000
414.600;  -20.650; -126.000; -144.000
414.726;  -16.650;  -96.000;  -55.000
414.852;  -64.050; -365.000; -342.000
414.978;   22.925;  104.000;  -18.000
415.104;   47.650;   38.000;   80.000
415.230;    9.800; -329.000; -330.000
415.356;   33.375; -409.000; -514.000
415.482;  213.575;   13.000;  -35.000
415.608;  275.400; -247.000; -323.000
415.734;  933.175;   67.000;   38.000
415.860;19179.850; -875.000; -767.000
415.986;14933.750; -685.000; -607.000
416.111; 1311.550; -798.000; -652.000
416.237;  261.050; -424.000; -571.000
416.363; 1021.275; -765.000; -733.000
416.489; 4055.650; -324.000; -251.000
416.615;  455.150; -707.000; -742.000
416.741;  -28.050; -677.000; -784.000
416.866;  -85.600; -673.000; -736.000
416.992; -126.425; -801.000; -818.000
417.118;  -40.175;  -41.000;  -80.000
417.244;  -54.275; -798.000; -531.000
417.369;  -84.800; -801.000; -612.000
417.495;   -1.825; -325.000; -254.000
417.621;  -92.575;-1015.000; -803.000
417.746;    4.025; -579.000; -572.000
417.872;   46.750; -254.000; -144.000
417.998;   50.050; -515.000; -530.000
418.123;  934.800;-1073.000; -845.000
418.249; 5232.925; -512.000; -601.000
418.374;  776.550; -916.000; -824.000
418.500;  105.250; -383.000; -482.000
418.626;  110.675;   70.000;  -59.000
418.751;  117.800; -549.000; -448.000
418.877;  203.225; -637.000; -643.000
419.002; 1631.850; -688.000; -560.000
419.128;12126.025; -930.000; -721.000
419.253; 3183.150; -967.000; -837.000
419.379;  405.950; -391.000; -338.000
419.504;  371.525;  325.000;  415.000
419.629;  488.850; -393.000; -212.000
419.755; 3172.325; -317.000; -254.000
419.880;19886.125;  -98.000;   67.000
420.006;10937.725; -280.000; -221.000
420.131;28952.625; -662.000; -775.000
420.256; 4511.400; -315.000; -316.000
420.382;  585.900; -665.000; -687.000
420.507;   69.325; -649.000; -778.000
420.632;  152.425; -337.000; -339.000
420.758;  316.525; -251.000; -425.000
420.883;  -74.175; -876.000; -672.000
421.008;  -95.675; -775.000; -619.000
421.133;  -87.150; -509.000; -467.000
421.259;  -56.100; -325.000; -259.000
421.384; -114.900; -834.000; -693.000
421.509;  -33.600;-1052.000; -862.000
421.634; 1471.275; -936.000; -820.000
421.759;  694.075; -359.000; -327.000
421.885;  -34.625; -717.000; -656.000
422.010;  -65.725; -673.000; -542.000
422.135; -148.200; -695.000; -727.000
422.260;   32.450;  340.000;  280.000
422.385;  -62.050;   12.000;  -98.000
422.510;    8.575;  151.000;  -26.000
422.635;   20.350;  -87.000;  -43.000
422.760;  133.475; -766.000; -791.000
422.885;   71.800;  -57.000;  -80.000
423.010;  -32.225; -112.000; -169.000
423.135;  -93.325; -481.000; -561.000
423.260;   -4.100; -150.000; -245.000
423.385;   74.825;  476.000;  222.000
423.510;   33.825;   71.000;  -22.000
423.635;  105.750;  133.000;   45.000
423.760;   55.450;  383.000;  328.000
423.885;   49.175;  336.000;  391.000
424.010;   10.175;  -68.000;  -13.000
424.135;  -31.375;    5.000;  -33.000
424.259;  -83.350; -654.000; -457.000
424.384;  -75.125; -279.000; -272.000
424.509;  -27.425; -260.000; -186.000
424.634;  -99.775; -761.000; -623.000
424.759;  -11.650; -688.000; -544.000
424.883;  -11.675; -506.000; -527.000
425.008;  182.025; -502.000; -410.000
425.133; 1922.975; -679.000; -653.000
425.258;  970.875; -517.000; -381.000
425.382; 1172.100; -867.000; -774.000
425.507; 3144.975; -487.000; -543.000
425.632;  529.575; -802.000; -663.000
425.756;  458.375; -256.000; -146.000
425.881; 5752.800; -831.000; -857.000
426.006;16586.050; -604.000; -355.000
426.130; 2845.400; -696.000; -508.000
426.255;  368.200; -611.000; -491.000
426.379;  152.850; -189.000; -577.000
426.504;  349.025;  660.000;  544.000
426.629; 3897.100; -519.000; -466.000
426.753; 2904.125;   64.000;  -46.000
426.878;  343.775; -252.000; -288.000
427.002;  141.975; -651.000; -668.000
427.127; 1473.050;  -35.000; -158.000
427.251;10913.750;  372.000;  401.000
427.375; 3451.475; -191.000; -173.000
427.500; 2636.925; -616.000; -610.000
427.624;  983.650; -234.000; -400.000
427.749;  123.200; -216.000; -225.000
427.873;  -10.975; -499.000; -412.000
427.997;  -44.600; -222.000; -230.000
428.122;   75.225;  795.000;  703.000
428.246;   62.200;  433.000;  434.000
428.371; -108.400; -869.000; -773.000
428.495; -103.525; -624.000; -646.000
428.619;  -36.175; -186.000; -117.000
428.743;   19.375;   65.000;  132.000
428.868;   32.725; -732.000; -643.000
428.992; 1660.600; -219.000; -326.000
429.116;  728.750; -329.000; -357.000
429.240;  340.675;  419.000;  426.000
429.365;  -20.950; -454.000; -574.000
429.489;  -37.225; -638.000; -647.000
429.613;   16.200; -236.000; -177.000
429.737;   27.825; -563.000; -432.000
429.861;  276.475; -247.000; -133.000
429.985; 5240.325; -425.000; -305.000
430.109; 6175.750; -770.000; -908.000
430.234;  753.675;   76.000;  -50.000
430.358;   66.550; -250.000; -160.000
430.482;  -66.375; -672.000; -564.000
430.606;  -55.300; -655.000; -375.000
430.730;   26.450; -437.000; -388.000
430.854;  200.275; -909.000; -835.000
430.978;  -52.625; -795.000; -764.000
431.102;  -91.150; -499.000; -422.000
431.226; -108.350; -874.000; -815.000
431.350;   12.175;  345.000;  422.000
431.474;  -67.775; -661.000; -373.000
431.597; -138.850;-1060.000; -848.000
431.721;  -87.875; -276.000; -267.000
431.845; -134.725; -704.000; -472.000
431.969;  -98.550; -304.000; -349.000
432.093;  -95.250; -395.000; -317.000
432.217;  -20.025;   32.000;   82.000
432.341;  -95.025; -523.000; -518.000
432.464;    9.475;   96.000;   40.000
432.588;  264.350; -401.000; -329.000
432.712;  137.125;  -52.000;  -52.000
432.836;   41.525;  213.000;  263.000
432.959;  -12.700; -372.000; -311.000
433.083;   72.925;   11.000;    2.000
433.207;  351.225;  285.000;  930.000
433.330; 4636.825; -391.000; -200.000
433.454; 6146.700; -654.000; -638.000
433.578; 3524.700;  583.000;  278.000
433.701;  689.675; -623.000; -675.000
433.825;  181.500; -292.000; -299.000
433.949;  224.125;   28.000;  -72.000
434.072;  100.650; -410.000; -323.000
434.196;  -10.925; -309.000; -117.000
434.319; 3524.900;25482.000;25124.000
434.443;  722.400; -656.000; -603.000
434.566; 2597.000;  281.000;   62.000
434.690;  473.650; -637.000; -383.000
434.813;   62.625; -251.000; -173.000
434.937;  -73.250; -569.000; -696.000
435.060;  -44.025; -423.000; -332.000
435.184;  422.025; -492.000; -217.000
435.307;  241.525;  159.000;  102.000
435.431;  -18.850;  -40.000;   24.000
435.554;  -76.100; -399.000; -240.000
435.677;  -98.450; -350.000; -258.000
435.801;  -55.650;  -25.000;   49.000
435.924;   -2.450;    1.000;  -67.000
436.048;  -87.525;-1019.000; -732.000
436.171;  -73.325; -240.000;  -66.000
436.294;  -32.125; -248.000; -229.000
436.417;   74.050; -963.000; -849.000
436.541;  -86.700; -814.000; -840.000
436.664;  -59.875; -242.000; -316.000
436.787;  -26.175;   13.000;  113.000
436.910; -100.875; -792.000; -422.000
437.034;   19.025;  142.000;  143.000
437.157;   75.050;  -11.000;    0.000
437.280;  -37.575; -392.000; -292.000
437.403;  -63.150; -982.000; -869.000
437.526;  790.725; -903.000; -865.000
437.649; 2960.650; -505.000; -332.000
437.772;  515.675; -692.000; -540.000
437.896;  129.900;  700.000;  544.000
438.019;  -86.725; -758.000; -503.000
438.142;  -72.475; -596.000; -506.000
438.265;    8.175; -639.000; -670.000
438.388;  710.375; -520.000; -410.000
438.511;  184.600; -597.000; -394.000
438.634;  -37.150; -247.000; -125.000
438.757; -139.925; -693.000; -619.000
438.880;  -19.075;  -34.000;  -57.000
439.003;  -76.325; -417.000; -437.000
439.126;  -70.275; -287.000; -167.000
439.248;  -79.225;  -98.000; -139.000
439.371;  -55.750;    9.000;  -53.000
439.494;    6.325;  510.000;  439.000
439.617;  -58.725;   65.000;  -88.000
439.740; -187.300; -968.000; -816.000
439.863; -144.475; -755.000; -595.000
439.986; -123.750; -476.000; -431.000
440.108;  -48.675; -161.000; -112.000
440.231; -165.175; -950.000; -836.000
440.354;  -50.025;  -64.000; -150.000
440.477;   63.825; -566.000; -542.000
440.599;   38.875; -200.000; -225.000
440.722; -132.425; -709.000; -586.000
440.845;   62.200;  751.000;  928.000
440.968; -113.375; -415.000; -311.000
441.090;  -80.100; -199.000;  -33.000
441.213; -168.925;-1021.000; -825.000
441.336;  -67.025; -159.000;   -5.000
441.458;  -79.050; -549.000; -396.000
441.581;  -83.075; -628.000; -629.000
441.703;  -67.975; -152.000;   13.000
441.826; -111.150; -557.000; -400.000
441.948;  -35.450;   56.000;   51.000
442.071;   21.225;  555.000;  424.000
442.193; -127.650; -531.000; -485.000
442.316;   13.500;  152.000;   97.000
442.438;   40.200; -233.000;  -10.000
442.561;   76.650;  272.000;  262.000
442.683;  660.375; -809.000; -522.000
442.806; 1506.225;   -8.000;   74.000
442.928;   98.000; -859.000; -604.000
443.051;  -50.225; -577.000; -373.000
443.173;  -83.100; -341.000; -339.000
443.295;  -94.950; -263.000; -371.000
443.418;  -72.800; -321.000;  -29.000
443.540;   -4.475; -106.000;   -4.000
443.662; -115.500; -563.000; -465.000
443.785;  -18.075;  335.000;  199.000
443.907; -108.525; -362.000; -208.000
444.029; -137.000; -767.000; -494.000
444.152; -167.750; -644.000; -554.000
444.274;  -33.050;  -18.000;  -24.000
444.396; -110.250; -461.000; -221.000
444.518; -146.700; -691.000; -454.000
444.640; -103.625; -268.000; -111.000
444.763;  -14.950;  388.000;  249.000
444.885; -134.500; -432.000; -392.000
445.007;  -37.400;   35.000;   86.000
445.129; -119.875; -610.000; -515.000
445.251; -107.800; -372.000; -439.000
445.373; -132.625; -537.000; -386.000
445.495;  -11.825;  242.000;  350.000
445.617;   41.150;  853.000;  753.000
445.739;  -71.200; -215.000;  -97.000
445.861;  -31.825; -245.000; -112.000
445.984;  -26.100; -267.000; -101.000
446.105;  254.525; -418.000; -251.000
446.227;  784.525; -176.000;  -19.000
446.349;   40.100; -358.000; -249.000
446.471;  -92.025; -615.000; -448.000
446.593;  -45.800; -316.000;   19.000
446.715;   -0.250;  -67.000;   41.000
446.837;   56.825;  697.000;  832.000
446.959; -105.975; -457.000; -478.000
447.081; -134.000; -628.000; -518.000
447.203;   42.050;  862.000;  834.000
447.325;  -97.575; -270.000;   42.000
447.446;  -10.700;  286.000;  530.000
447.568; -155.700; -921.000; -803.000
447.690;  -74.775; -236.000; -245.000
447.812; -151.525; -798.000; -519.000
447.933;  -32.650;  155.000;  127.000
448.055;  -71.625; -306.000; -261.000
448.177;  172.000;   31.000;   79.000
448.299;  166.750; -935.000; -727.000
448.420;   33.375;  -25.000;  159.000
448.542;  -46.000;   -3.000;   33.000
448.664;  -32.750;  109.000;  322.000
448.785;  -40.775;  265.000;   83.000
448.907;  -74.150; -614.000; -353.000
449.028;  -24.000; -771.000; -471.000
449.150;   55.100;  492.000;  589.000
449.272; -181.025;-1044.000; -913.000
449.393;   25.850;  612.000;  694.000
449.515; -145.950; -634.000; -581.000
449.636;  -52.925; -264.000; -155.000
449.758;   80.700;  763.000;  622.000
449.879;  -80.675; -498.000; -396.000
450.001;  -73.300; -149.000;  -49.000
450.122;  -50.800;  -95.000;  162.000
450.244;  -26.300;   37.000;  364.000
450.365;  -98.500; -495.000; -301.000
450.486;  -42.275;   80.000;  268.000
450.608;   20.300;  393.000;  326.000
450.729;   54.550;  578.000;  645.000
450.850;  -16.575; -574.000; -466.000
450.972;  661.050; -552.000; -389.000
451.093; 4554.300;  190.000;  588.000
451.214; 2144.450; -516.000; -337.000
451.336;  408.850;  773.000;  579.000
451.457;   53.450;  264.000;  393.000
451.578;  -35.550; -118.000;  -74.000
451.699; -120.050; -546.000; -540.000
451.821;  -70.725; -284.000;  -50.000
451.942;  -19.725;  278.000;  285.000
452.063;   22.500;  228.000;  419.000
452.184;  497.250;  -54.000;  -49.000
452.305; 1071.000;  103.000;  170.000
452.427;  139.250; -549.000; -301.000
452.548;  -20.775;   23.000;   79.000
452.669;  -51.125; -257.000;  -89.000
452.790;  -41.200;    3.000;  -18.000
452.911;   -1.075;  195.000;  259.000
453.032;  -56.400; -289.000;  -60.000
453.153;  -41.475;  -29.000;   81.000
453.274;   56.500;  737.000;  868.000
453.395;  -49.000;  -51.000;  175.000
453.516;  124.150; 1317.000; 1388.000
453.637;  -61.750; -205.000; -150.000
453.758;  -52.150;   15.000;   69.000
453.879; -118.775; -462.000; -250.000
454.000;   74.950; 1086.000;  948.000
454.121; -120.050; -554.000; -326.000
454.242; -108.050; -599.000; -383.000
454.362;  -61.150;  -99.000;  114.000
454.483;  -47.875; -309.000; -229.000
454.604;   50.225;  512.000;  580.000
454.725; -133.650; -627.000; -555.000
454.846; -122.675; -474.000; -406.000
454.967;  -36.025;  230.000;  539.000
455.087;  -43.550;  179.000;  153.000
455.208;   19.025;  554.000;  856.000
455.329;  -75.475;  -22.000;   82.000
455.450;   23.450;  473.000;  633.000
455.570;  -83.400; -234.000; -211.000
455.691;  -45.575;  201.000;  407.000
455.812; -104.325; -270.000;  -92.000
455.932;  -73.575;  107.000;  -97.000
456.053;  -69.900;   36.000;   24.000
456.173; -116.725; -433.000; -355.000
456.294; -137.400; -476.000; -303.000
456.415;  -69.350;  -73.000;   70.000
456.535;  -41.075;  297.000;  273.000
456.656;  -43.700;  132.000;  240.000
456.776;  -84.050;    3.000;  298.000
456.897;   -4.075;  308.000;  513.000
457.017;  -95.950; -153.000;   -3.000
457.138; -114.725; -402.000; -249.000
457.258;  -27.425;  263.000;  224.000
457.379;  -15.600;  509.000;  521.000
457.499;  -30.100;  443.000;  432.000
457.620; -128.400; -407.000; -231.000
457.740; -106.450; -132.000;  -11.000
457.860;  -56.350;   87.000;   44.000
457.981;  -51.050;  132.000;  124.000
458.101;  -66.450;  -89.000;   40.000
458.221;  -20.375;  336.000;  402.000
458.342;  -61.400;   -4.000;  -37.000
458.462;    5.825;  617.000;  352.000
458.582;  -57.225; -302.000; -294.000
458.703;   -7.925;  303.000;  154.000
458.823;  -31.650;   22.000;  163.000
458.943;   22.725;  341.000;  467.000
459.063;  -12.150; 1124.000;  192.000
459.183;  -29.750;  328.000;  313.000
459.304;   -1.700;  315.000;  517.000
459.424;  -66.650; -246.000;  -89.000
459.544;  299.750;  388.000;  764.000
459.664;  799.800;  499.000;  506.000
459.784;  314.075; 1004.000; 1175.000
459.904;   51.650;  867.000;  744.000
460.024;   68.100;  867.000;  684.000
460.144;    9.475;  449.000;  554.000
460.264;  -13.375;  515.000;  327.000
460.385; -104.150; -145.000; -119.000
460.505;   37.850;  905.000;  858.000
460.625; -103.100;  -17.000;  -68.000
460.745;  -31.800;  396.000;  541.000
460.864;  -51.575;  153.000;  469.000
460.984;   18.550;  499.000;  573.000
461.104;  145.375; 1656.000; 1775.000
461.224;   12.850;  657.000;  650.000
461.344;  -16.425;  431.000;  360.000
461.464;  -32.525;  258.000;  513.000
461.584;  -11.550;  283.000;  466.000
461.704;  -38.475;   58.000;  108.000
461.824;  -62.750;  238.000;  259.000
461.943;  -29.275;  191.000;  130.000
462.063;  -73.250;    2.000;  324.000
462.183;   19.300;  639.000;  717.000
462.303;   99.800; 1678.000; 1230.000
462.422;   16.225;  781.000;  840.000
462.542;  -51.050;  271.000;  391.000
462.662;   45.550;  353.000;  380.000
462.782;  218.250;  833.000;  572.000
462.901;  446.725;  545.000;  717.000
463.021;  279.250; 1702.000; 1638.000
463.141;   -8.175;  337.000;  770.000
463.260;  -37.625;  614.000;  474.000
463.380;   -0.350;  902.000;  884.000
463.499;  -50.125;  342.000;  332.000
463.619;  -35.200;  581.000;  559.000
463.738;  105.275; 1644.000;  903.000
463.858;    5.925;  657.000;  811.000
463.978;  -42.475;  542.000;  396.000
464.097;   42.600;  921.000; 1114.000
464.217;   99.050; 1196.000; 1143.000
464.336;  102.200; 1068.000; 1130.000
464.455;  -28.375;  328.000;  659.000
464.575;   53.175;  597.000;  602.000
464.694;  174.325; 1204.000; 1179.000
464.814;  128.550; 1190.000; 1138.000
464.933;   63.775; 1095.000; 1027.000
465.052;   89.425; 1412.000; 1054.000
465.172;   79.300;  922.000;  799.000
465.291;  146.300; 1376.000; 1320.000
465.410;   -0.825;  462.000;  735.000
465.530;   72.225; 1355.000; 1310.000
465.649;   70.400; 1209.000; 1273.000
465.768;  119.625; 1673.000; 1508.000
465.888;   43.950;  941.000; 1174.000
466.007;   92.700; 1335.000; 1440.000
466.126;   -8.300;  721.000;  641.000
466.245;   49.375; 1176.000; 1187.000
466.364;   20.875;  950.000; 1060.000
466.484;   65.750; 1024.000; 1213.000
466.603;   42.075; 1101.000; 1222.000
466.722;  109.475; 1490.000; 1769.000
466.841;   81.625; 1151.000; 1401.000
466.960;   46.025; 1069.000;  972.000
467.079;  112.675; 1971.000; 1786.000
467.198;   47.575; 1238.000; 1181.000
467.317;   81.625; 1768.000; 1162.000
467.436;   56.625; 1709.000; 1261.000
467.555;  125.350; 1796.000; 1746.000
467.674;   47.600; 1227.000; 1329.000
467.793;   49.750; 1376.000; 1374.000
467.912;   85.075; 1658.000; 1539.000
468.031;  124.350; 2038.000; 1930.000
468.150;  128.975; 1842.000; 1837.000
468.269;  168.250; 2313.000; 2090.000
468.388;  191.700; 2168.000; 2339.000
468.507;  240.475; 2884.000; 2903.000
468.626;  270.000; 2555.000; 2541.000
468.744;  134.575; 2018.000; 2174.000
468.863;  199.725; 2312.000; 2523.000
468.982;   80.525; 1503.000; 1555.000
469.101;  211.250; 2788.000; 2692.000
469.220;  143.050; 2333.000; 2176.000
469.338;  245.300; 2935.000; 3051.000
469.457;  210.125; 2719.000; 2545.000
469.576;  336.500; 3953.000; 3784.000
469.695;  233.950; 2877.000; 3066.000
469.813;  422.300; 4148.000; 4192.000
469.932;  401.750; 4255.000; 4485.000
470.051;  403.250; 4075.000; 4161.000
470.169;  814.025; 4470.000; 4338.000
470.288; 1421.875; 4700.000; 4809.000
470.406;  887.725; 5059.000; 5194.000
470.525;  613.925; 6101.000; 5787.000
470.644;  649.200; 6847.000; 6794.000
470.762;  822.325; 8397.000; 7873.000
470.881;  881.825; 8651.000; 8464.000
470.999; 1013.300; 9685.000; 9151.000
471.118; 1103.300;11174.000;10711.000

