
Integration time [ms]: 100.000
Averaging Nr. [scans]: 40
Smoothing Nr. [pixels]: 0
Data measured with spectrometer [name]: 2101012U2
Wave   ;Sample   ;Dark     ;Reference
[nm]   ;[counts] ;[counts] ;[counts] 

197.733;   71.100;  516.000;  404.000
197.879;  -75.950; -610.000; -634.000
198.025;  -37.275; -475.000; -420.000
198.171;  -81.150; -602.000; -612.000
198.317;  -30.800; -401.000; -316.000
198.463;  -68.800; -655.000; -404.000
198.609;   35.625;  181.000; -137.000
198.755;  -77.825; -644.000; -410.000
198.901;  -60.475; -505.000; -424.000
199.047;  -66.100; -615.000; -488.000
199.193;  -42.150; -230.000; -468.000
199.339;  -42.825; -222.000; -369.000
199.485;   31.975;  330.000;  271.000
199.631;   32.675;  227.000;  310.000
199.777;  -46.800; -466.000; -398.000
199.923;  -58.825; -610.000; -424.000
200.069;    8.475; -141.000;  -58.000
200.215;   56.900;  128.000;  453.000
200.361;   43.175;  243.000;  477.000
200.507;  -59.375; -600.000; -373.000
200.653;  -22.950; -371.000; -194.000
200.798;  -42.950; -215.000; -125.000
200.944;   -1.650; -146.000;  -41.000
201.090;   38.250;   61.000;  222.000
201.236;    3.175; -116.000; -158.000
201.382;  120.250;  874.000;  903.000
201.528;   -4.275;  -58.000;  -48.000
201.674;  -47.375; -386.000; -293.000
201.819;  -62.700; -540.000; -439.000
201.965;  -84.325; -699.000; -447.000
202.111;  -35.150; -273.000; -226.000
202.257;  -44.125; -250.000; -238.000
202.402;   13.850;   13.000;  -36.000
202.548;  -27.100; -169.000; -116.000
202.694;   81.650;  410.000; -183.000
202.840;  -79.125; -603.000; -531.000
202.985;  -77.500; -681.000; -639.000
203.131; -108.550; -832.000; -666.000
203.277;  -24.825; -199.000; -262.000
203.423;  -51.350; -434.000; -520.000
203.568;  -42.025; -462.000; -237.000
203.714;  -66.950; -535.000; -542.000
203.860;  -74.925; -682.000; -641.000
204.005;   21.625;  112.000;  167.000
204.151;   90.500;  561.000;  556.000
204.296;  -36.600; -354.000; -221.000
204.442;  -67.800; -600.000; -547.000
204.588;  -86.750; -592.000; -579.000
204.733;   21.250;  178.000;  168.000
204.879; -142.200;-1018.000; -822.000
205.025;   12.525;  -99.000;  126.000
205.170;    4.550;  -17.000;   94.000
205.316;   88.950;  438.000;  661.000
205.461;  -87.975; -698.000; -554.000
205.607;   83.750;  609.000;  665.000
205.752;  -73.450; -626.000; -551.000
205.898;  -41.550; -501.000; -391.000
206.043;  -54.625; -578.000; -506.000
206.189;  -40.675; -243.000; -285.000
206.334;   83.650;  554.000;  606.000
206.480;   88.875;  409.000;  239.000
206.625;  -91.050; -529.000; -552.000
206.771;  -42.000; -451.000; -373.000
206.916;  -34.975; -210.000; -537.000
207.062;  -63.050; -545.000; -591.000
207.207;  -57.400; -546.000; -443.000
207.353;   57.725;  185.000;  460.000
207.498;    9.975;  196.000;   85.000
207.643;  -39.850; -501.000; -370.000
207.789; -145.300;-1069.000; -910.000
207.934;  -87.775; -665.000; -713.000
208.080;  -22.350; -154.000;   66.000
208.225;    2.450;  -22.000;  -57.000
208.370;  -82.050; -727.000; -619.000
208.516;  -76.575; -741.000; -487.000
208.661;  -25.650; -127.000;  -69.000
208.806;  -21.325; -165.000; -171.000
208.952; -134.900;-1044.000; -731.000
209.097;   75.850;  378.000;  349.000
209.242;  -56.175; -307.000; -382.000
209.387;   80.750;  392.000;  350.000
209.533;  -43.150; -321.000; -350.000
209.678;   86.175;  472.000;  543.000
209.823;  -60.325; -408.000; -310.000
209.969;  -93.375; -860.000; -757.000
210.114; -108.450; -907.000; -719.000
210.259; -118.075; -939.000; -889.000
210.404;  -11.600; -171.000;  103.000
210.549;   14.575;  108.000;    3.000
210.695;  -23.125;   -3.000;  -95.000
210.840;   39.125;   94.000;   67.000
210.985;  -66.425; -484.000; -303.000
211.130;   66.425;  268.000;  406.000
211.275;   26.300;  207.000;  199.000
211.420;  -45.925; -300.000; -289.000
211.566;  -67.425; -536.000; -489.000
211.711;   27.150;  218.000;  157.000
211.856;  -62.250; -545.000; -519.000
212.001;   10.400;  151.000;   44.000
212.146;   25.475;  153.000;   49.000
212.291;  -16.275; -210.000; -186.000
212.436;  -19.850; -280.000;   -6.000
212.581;  -84.275; -685.000; -653.000
212.726;  -82.600; -487.000; -538.000
212.871;  -35.725; -552.000; -217.000
213.016; -150.725;-1172.000;-1029.000
213.161;   60.250;  406.000;  291.000
213.306;  -76.175; -435.000; -577.000
213.451;  -90.675; -778.000; -689.000
213.596;  -53.875; -455.000; -347.000
213.741;  -36.250; -448.000; -538.000
213.886;  -78.050; -498.000; -517.000
214.031;  -12.800; -294.000; -124.000
214.176;  -47.400; -408.000; -341.000
214.321;   -9.425; -296.000; -157.000
214.466;  -10.425; -163.000;  -43.000
214.611;    0.825;  -61.000;  -10.000
214.756; -124.750; -948.000; -858.000
214.901;  -16.025; -388.000; -226.000
215.046; -122.525; -797.000; -825.000
215.191;   21.100;  128.000;   35.000
215.336;  -10.075; -157.000;  -19.000
215.480;  -56.800; -684.000; -505.000
215.625;  -20.850; -175.000;  -19.000
215.770;  -81.075; -757.000; -662.000
215.915;  -21.325;   -5.000;  -97.000
216.060;    2.950; -113.000;  -21.000
216.205; -117.100; -731.000; -779.000
216.349;  -64.675; -470.000; -533.000
216.494; -143.850; -939.000; -867.000
216.639; -100.375; -823.000; -888.000
216.784;  -84.725; -577.000; -525.000
216.929;   46.700;  392.000;  281.000
217.073;   -4.375; -244.000;  -31.000
217.218;   -1.950;   78.000;  -47.000
217.363;  -86.200; -656.000; -618.000
217.507;  -86.350; -623.000; -588.000
217.652; -115.675; -845.000; -874.000
217.797;  -86.850; -708.000; -659.000
217.942; -116.375; -856.000; -720.000
218.086;   84.575;  608.000;  539.000
218.231;  -32.900; -174.000;  -26.000
218.376;  -28.275; -337.000; -229.000
218.520;    5.050;  -41.000;   96.000
218.665;  -29.050; -338.000; -204.000
218.810;  -49.150; -275.000; -233.000
218.954;   24.175;  201.000;   35.000
219.099; -114.625; -713.000; -963.000
219.243;  -58.825; -589.000; -554.000
219.388;  -33.075; -264.000; -136.000
219.532;   -2.725; -116.000; -116.000
219.677;  -83.600; -564.000; -521.000
219.822;   21.500;   33.000;   89.000
219.966;   -0.750;   17.000;  -99.000
220.111;  -28.975; -328.000;  -40.000
220.255;  -91.900; -797.000; -750.000
220.400;  -18.700; -180.000; -146.000
220.544;  -64.950; -516.000; -450.000
220.689;  -54.600; -422.000; -451.000
220.833;  -32.925; -123.000;  -58.000
220.978;  -44.975; -393.000; -563.000
221.122;   30.025;  319.000;  307.000
221.267; -115.025; -906.000; -837.000
221.411;  -81.400; -478.000; -394.000
221.555;   -4.375; -104.000;  -23.000
221.700;  -46.175; -329.000; -222.000
221.844;   52.125;  255.000;  272.000
221.989;  -54.275; -328.000; -311.000
222.133;  -11.000; -289.000; -307.000
222.277;  -20.725;    5.000;   78.000
222.422;   26.900;  227.000;  113.000
222.566;  -44.250; -381.000; -214.000
222.711;  -46.825; -414.000; -479.000
222.855;  -75.625; -643.000; -586.000
222.999;  -84.800; -642.000; -717.000
223.144;  -48.925; -195.000; -194.000
223.288;   61.200;  423.000;  251.000
223.432;   19.300;  184.000;  230.000
223.576;   25.775;  152.000;  -21.000
223.721;   42.175;  364.000;  273.000
223.865;  -50.725; -472.000; -475.000
224.009;  223.425; 1673.000; 1631.000
224.153;  -81.750; -660.000; -671.000
224.298;  -74.575; -531.000; -489.000
224.442;  -13.075;  -74.000;  -33.000
224.586;  -11.675; -169.000; -106.000
224.730;  -98.375; -858.000; -670.000
224.875; -107.100; -739.000; -688.000
225.019;    6.400;  102.000;  188.000
225.163;   43.400;  208.000;  341.000
225.307;   24.400;   97.000;  -91.000
225.451;   40.850;  360.000;  481.000
225.595;   39.550;  264.000;  176.000
225.739;  -21.850; -170.000;  -94.000
225.884;   -2.725;   86.000;    5.000
226.028;  -92.775; -760.000; -626.000
226.172;  -25.375; -260.000; -273.000
226.316; -121.500; -941.000; -902.000
226.460;  -60.750; -645.000; -493.000
226.604;  -52.950; -406.000; -400.000
226.748;  -99.125; -836.000; -733.000
226.892;  -37.725; -227.000; -181.000
227.036;  -52.450; -537.000; -447.000
227.180;  -55.700; -551.000; -375.000
227.324;  -62.300; -561.000; -580.000
227.468; -118.750; -819.000; -717.000
227.612;   27.825;  242.000;  -28.000
227.756; -103.875; -845.000; -698.000
227.900;   50.975;  342.000;  441.000
228.044;  -71.475; -509.000; -290.000
228.188;   54.950;  448.000;  568.000
228.332;  -91.375; -546.000; -472.000
228.476;  -34.325; -223.000; -149.000
228.620;  -29.850; -210.000; -150.000
228.764;   59.825;  431.000;  349.000
228.908;  -23.200; -155.000;   30.000
229.052;  -62.500; -615.000; -528.000
229.195;  -18.875; -172.000;   13.000
229.339;  -17.100; -235.000; -305.000
229.483;  -21.325;    5.000; -162.000
229.627;   -3.950; -156.000;  139.000
229.771;  -47.925; -218.000; -294.000
229.915;   20.950;  230.000;   79.000
230.059;  -92.675; -648.000; -663.000
230.202;  -33.825; -370.000; -317.000
230.346;  -15.075; -107.000;  107.000
230.490;  -61.050; -489.000; -521.000
230.634; -112.800; -736.000; -553.000
230.777;   66.150;  478.000;  509.000
230.921;  -49.075; -450.000; -359.000
231.065;  -45.000; -246.000; -286.000
231.209;   18.000;  261.000;  265.000
231.352;   31.800;   54.000;   40.000
231.496;   17.550;  568.000;  188.000
231.640;  -78.225; -693.000; -621.000
231.783;   69.000;  546.000;  525.000
231.927;  -35.875; -294.000; -365.000
232.071; -135.625; -962.000; -736.000
232.214; -112.475; -980.000; -764.000
232.358; -117.050; -683.000; -599.000
232.502;   10.075;  -19.000;    7.000
232.645; -138.425;-1090.000; -927.000
232.789;  -20.950; -257.000; -218.000
232.933;  -33.675; -407.000; -224.000
233.076; -124.300;-1038.000; -897.000
233.220; -103.325; -752.000; -777.000
233.363;  -79.675; -669.000; -477.000
233.507;   69.175;  371.000;  129.000
233.650;  -94.100; -764.000; -834.000
233.794;   50.825;  438.000;  461.000
233.938;  -64.900; -530.000; -362.000
234.081;  -20.675;  -93.000;   31.000
234.225;  -63.675; -631.000; -539.000
234.368; -108.000; -773.000; -723.000
234.512;  -43.100; -385.000; -299.000
234.655;  -83.450; -582.000; -555.000
234.798;  -58.550; -493.000; -466.000
234.942; -117.800; -884.000;-1002.000
235.085;  -72.900; -651.000; -443.000
235.229;  -78.750; -405.000; -410.000
235.372;  -48.150; -247.000; -191.000
235.516;  -61.375; -397.000; -321.000
235.659;   13.275;   92.000;  121.000
235.802;   -8.150;  -38.000;  -22.000
235.946;   34.875;  335.000;  215.000
236.089;   21.750;  126.000;  250.000
236.233;   52.250;  275.000;  298.000
236.376;  -52.725; -235.000; -378.000
236.519;  -47.875; -297.000; -319.000
236.663;  -19.875; -215.000; -117.000
236.806; -132.800;-1029.000; -999.000
236.949;   78.350;  543.000;  431.000
237.092;   57.200;  412.000;  391.000
237.236;  -93.575; -589.000; -502.000
237.379;   70.225;  352.000;  428.000
237.522; -118.600; -879.000; -768.000
237.666;   -4.700; -271.000;   18.000
237.809; -127.475; -851.000; -823.000
237.952;   55.375;  469.000;  271.000
238.095;  -79.650; -447.000; -442.000
238.238;   83.925;  688.000;  700.000
238.382;    5.650;  166.000;  103.000
238.525;  -65.225; -598.000; -511.000
238.668; -144.725;-1060.000; -985.000
238.811;  -77.800; -638.000; -643.000
238.954;  -71.050; -483.000; -334.000
239.097;   98.975;  617.000;  664.000
239.241;   17.425;  394.000;  326.000
239.384;  -29.825; -254.000; -214.000
239.527;  -66.150; -424.000; -224.000
239.670; -140.800; -994.000;-1091.000
239.813; -103.075; -696.000; -658.000
239.956;   77.900;  579.000;  473.000
240.099; -121.125; -778.000; -725.000
240.242;   51.400;  428.000;  432.000
240.385;   45.825;  466.000;  450.000
240.528;  -57.950; -706.000; -473.000
240.671;   25.800;  189.000;  134.000
240.814;  -51.850; -441.000; -158.000
240.957; -105.000; -767.000; -578.000
241.100;  -84.200; -779.000; -755.000
241.243; -155.400;-1234.000; -893.000
241.386;  -54.775; -508.000; -379.000
241.529; -105.975; -735.000; -547.000
241.672;  -61.250; -566.000; -495.000
241.815; -124.350; -832.000; -808.000
241.958;  -15.475; -125.000; -182.000
242.101;  -88.775; -545.000; -390.000
242.244;  -48.675; -270.000; -325.000
242.387;  -51.625; -304.000; -246.000
242.530;   63.200;  470.000;  134.000
242.673;  -41.575; -381.000; -309.000
242.815; -109.850; -925.000; -899.000
242.958;  -62.100; -482.000; -381.000
243.101;   17.225;  132.000;  187.000
243.244;  -86.525; -564.000; -521.000
243.387;  -43.350; -313.000; -316.000
243.530;  -95.125; -657.000; -674.000
243.672;  -11.200;   43.000;  -92.000
243.815;  -53.400; -355.000; -283.000
243.958;   11.100;   98.000;  -26.000
244.101;   -6.900;   59.000;  -16.000
244.243;    5.725;  -47.000;  101.000
244.386; -116.300; -761.000; -630.000
244.529;  -28.600; -132.000; -139.000
244.672; -164.375;-1154.000; -951.000
244.814;  -98.925; -621.000; -794.000
244.957;  -68.475; -380.000; -304.000
245.100;  -60.475; -489.000; -489.000
245.242;  -66.975; -387.000; -374.000
245.385;    2.050;  -59.000;  -39.000
245.528; -121.000; -871.000; -705.000
245.670;   96.150;  612.000;  634.000
245.813;  -86.050; -599.000; -547.000
245.956;  -35.850; -324.000; -275.000
246.098;  -75.400; -508.000; -650.000
246.241;   -1.375;  194.000;   48.000
246.383;  -16.525; -119.000;  -73.000
246.526;  -75.525; -454.000; -525.000
246.669; -130.000; -889.000; -780.000
246.811;   11.300;  172.000;   -1.000
246.954;  -76.750; -512.000; -426.000
247.096;  -26.300;  -84.000;   -6.000
247.239;  -73.100; -482.000; -445.000
247.381;  -53.700; -647.000; -488.000
247.524;   70.050;  645.000;  679.000
247.666;   -5.825;   58.000;   11.000
247.809; -107.300; -887.000; -691.000
247.951;    0.950;  -75.000;  138.000
248.094;   20.425;  432.000;  308.000
248.236; -154.375;-1262.000;-1238.000
248.378;   13.500; -356.000;  -81.000
248.521;   -9.650; -334.000; -337.000
248.663;  -45.425; -236.000; -267.000
248.806;  -16.450; -300.000; -266.000
248.948;  -94.000; -886.000; -763.000
249.090;  -37.875; -428.000; -398.000
249.233;  -54.350; -344.000; -381.000
249.375;  -58.650; -474.000; -451.000
249.518;  -31.425;  -83.000; -133.000
249.660;  -13.100; -103.000;    3.000
249.802; -176.425;-1303.000;-1189.000
249.945;  -76.150; -612.000; -540.000
250.087; -122.325; -834.000; -768.000
250.229;  -58.725; -362.000; -480.000
250.371;  -78.550; -494.000; -439.000
250.514;  -47.175; -310.000; -244.000
250.656;  -63.300;   69.000;  102.000
250.798; -114.050; -849.000; -800.000
250.940;  -59.850; -322.000; -322.000
251.083;  -16.225; -335.000; -111.000
251.225;   52.150;  338.000;  310.000
251.367;  -33.000; -274.000; -373.000
251.509;  -38.600; -265.000; -210.000
251.651;  -94.300; -731.000; -671.000
251.794;   77.800;  538.000;  632.000
251.936;  -98.775; -821.000; -747.000
252.078;  -71.850; -540.000; -461.000
252.220;  -69.225; -645.000; -477.000
252.362;   87.450;  344.000;  462.000
252.504;  -62.175; -677.000; -584.000
252.646; -114.650; -875.000; -722.000
252.788;    0.875;   14.000; -128.000
252.931;  -38.225; -257.000; -253.000
253.073;  -31.950; -376.000; -317.000
253.215;   -4.775;  141.000;  122.000
253.357;   -6.375;   82.000; -153.000
253.499;  -65.150; -374.000; -234.000
253.641;  -82.225; -749.000; -594.000
253.783;  -97.175; -609.000; -527.000
253.925;  -94.125; -586.000; -591.000
254.067; -108.675; -744.000; -667.000
254.209;  -26.100; -391.000; -259.000
254.351; -132.950; -865.000; -883.000
254.493;  -61.925; -441.000; -417.000
254.635; -134.425; -936.000; -818.000
254.777;  -82.825; -752.000; -687.000
254.918;  -76.650; -512.000; -430.000
255.060;  -54.350; -551.000; -395.000
255.202;  -51.900; -473.000; -261.000
255.344;  -81.650; -658.000; -455.000
255.486;  -83.225; -471.000; -406.000
255.628; -117.800; -780.000; -781.000
255.770;  -74.375; -676.000; -536.000
255.912;  -58.350; -559.000; -468.000
256.053; -100.950; -730.000; -508.000
256.195;  151.325; 1008.000;  903.000
256.337; -116.000; -861.000; -595.000
256.479;   74.325;  532.000;  416.000
256.621;  -43.150; -394.000; -212.000
256.762; -100.525; -789.000; -742.000
256.904;   37.300;  485.000;  487.000
257.046;  -40.300; -381.000; -271.000
257.188;  -58.750; -351.000; -264.000
257.329;  -66.500; -525.000; -464.000
257.471; -126.675; -939.000; -807.000
257.613;  -49.675; -584.000; -498.000
257.755; -143.825;-1073.000; -982.000
257.896;   50.000;  286.000;  392.000
258.038;  -65.725; -403.000; -352.000
258.180;  -43.450; -354.000; -279.000
258.321;  -94.825; -581.000; -457.000
258.463;   -2.125;  -71.000;  133.000
258.605;  -88.025; -562.000; -570.000
258.746; -106.175; -886.000; -772.000
258.888; -160.475;-1026.000;-1020.000
259.029;   16.700;  121.000;   -8.000
259.171;  -94.700; -614.000; -550.000
259.313;   -5.575;  -49.000;  -47.000
259.454;  -72.650; -536.000; -414.000
259.596;  -47.100; -483.000; -390.000
259.737;  -80.125; -590.000; -474.000
259.879;   44.550;  217.000;  311.000
260.020;   85.975;  901.000;  636.000
260.162;  -29.325; -146.000; -253.000
260.303; -126.875; -768.000; -687.000
260.445;  -87.625; -609.000; -613.000
260.586;    3.875;  392.000;  157.000
260.728;  -41.550; -360.000; -248.000
260.869;  -64.725; -350.000; -343.000
261.011;   85.250;  706.000;  537.000
261.152;  -62.150; -479.000; -319.000
261.293;  -76.050; -576.000; -595.000
261.435;  -34.525; -219.000; -184.000
261.576;  -45.825; -455.000; -325.000
261.718;   59.375;  420.000;  470.000
261.859; -121.575; -940.000; -949.000
262.000; -130.650; -951.000;-1016.000
262.142;  -13.400;  -52.000;  -60.000
262.283; -125.225; -808.000; -691.000
262.424;  -82.375; -666.000; -625.000
262.566; -149.050;-1161.000; -983.000
262.707; -113.325; -840.000; -830.000
262.848; -119.700; -769.000; -726.000
262.990;  -47.725; -362.000; -345.000
263.131;   78.875;  650.000;  681.000
263.272;    2.225;  -61.000;  -41.000
263.413;  -85.925; -589.000; -561.000
263.555;  -69.025; -669.000; -143.000
263.696;  -74.700; -550.000; -641.000
263.837;  -48.400; -449.000; -551.000
263.978;   -2.150;   -5.000;  -77.000
264.119;  -39.350; -283.000; -264.000
264.261; -108.600; -847.000; -630.000
264.402;   -2.250;   33.000;   40.000
264.543;  -75.475; -509.000; -524.000
264.684;    3.650;   61.000;  -50.000
264.825;  -82.175; -816.000; -538.000
264.966;    1.325;  -84.000;  -67.000
265.107; -110.925; -646.000; -670.000
265.248; -126.050; -825.000; -812.000
265.390;  -27.950;  152.000;   -9.000
265.531;  -29.900; -238.000; -107.000
265.672;  -88.750; -557.000; -630.000
265.813;   64.725;  563.000;  439.000
265.954; -134.375; -959.000; -940.000
266.095;  -11.550; -372.000; -322.000
266.236;  -99.200; -686.000; -548.000
266.377;  -33.050; -243.000; -297.000
266.518;  -73.350; -619.000; -547.000
266.659;   36.375;  170.000;  268.000
266.800;    8.625;   83.000;   85.000
266.941;  -70.800; -487.000; -478.000
267.082;   21.975;  354.000;   99.000
267.223;  -35.125; -344.000; -273.000
267.364; -109.300; -892.000; -686.000
267.504;  -12.775;    3.000;  135.000
267.645;    9.375;  160.000;   67.000
267.786;  -26.175; -147.000;  -86.000
267.927;  -70.175; -473.000; -379.000
268.068;   -0.125; -186.000;  -61.000
268.209;  -40.475; -175.000; -413.000
268.350;  -63.050; -388.000; -532.000
268.490;  -81.325; -648.000; -521.000
268.631;   27.400;  127.000;  225.000
268.772; -120.850; -874.000; -647.000
268.913;  -38.800; -328.000; -476.000
269.054;   -7.525; -117.000;   12.000
269.194;  -46.675; -418.000; -402.000
269.335; -149.875;-1137.000;-1074.000
269.476;  -18.400;   33.000;  -35.000
269.617;  -64.500; -347.000; -392.000
269.757;  -88.750; -713.000; -646.000
269.898; -106.075; -856.000; -613.000
270.039;  -63.775; -415.000; -405.000
270.180; -141.050; -952.000; -816.000
270.320;  -18.075; -190.000; -250.000
270.461;  -48.900; -277.000; -249.000
270.602;  -16.975; -186.000; -156.000
270.742; -112.250; -868.000; -943.000
270.883;  -46.800; -442.000; -390.000
271.023;  -50.000; -358.000; -357.000
271.164;  -62.125; -607.000; -528.000
271.305;  -95.000; -666.000; -654.000
271.445;  -83.250; -722.000; -683.000
271.586;  -65.150; -462.000; -283.000
271.726;  -43.850; -397.000; -322.000
271.867;  -54.300; -594.000; -534.000
272.008;  208.000; -473.000; -285.000
272.148;  148.875;  462.000;  468.000
272.289;   20.200; -113.000; -181.000
272.429;   21.125;   19.000;  185.000
272.570;  -95.500; -633.000; -737.000
272.710; -101.175; -825.000; -775.000
272.851;  -10.500;  113.000; -130.000
272.991; -161.275;-1173.000;-1077.000
273.131;  -58.100; -419.000; -459.000
273.272;  -95.650; -683.000; -723.000
273.412;    7.825; -143.000;  -31.000
273.553;  -51.775; -488.000; -507.000
273.693;  164.750;  913.000;  858.000
273.834;  -78.825; -894.000; -692.000
273.974;  -56.125; -664.000; -615.000
274.114;  -94.575; -772.000; -560.000
274.255;   95.050;  414.000;  373.000
274.395;   33.600; -180.000; -125.000
274.535;   46.525;  199.000;  350.000
274.676;   14.775;  225.000;   94.000
274.816;    6.725;  110.000;   34.000
274.956;  -69.250; -624.000; -690.000
275.097;  -52.325;-1014.000; -922.000
275.237; -107.625; -913.000; -803.000
275.377;  -94.175; -778.000; -689.000
275.517; -145.025; -878.000; -937.000
275.658;  -49.800; -590.000; -555.000
275.798;  -66.475; -606.000; -413.000
275.938;   29.050;  215.000;  323.000
276.078; -103.625; -626.000; -395.000
276.218;   21.750;   99.000;  104.000
276.359; -131.600;-1026.000;-1024.000
276.499;  -66.625; -605.000; -446.000
276.639;  -37.625; -305.000; -151.000
276.779;  -38.725; -475.000; -357.000
276.919; -101.050; -783.000; -624.000
277.059;  -14.625; -261.000; -212.000
277.199;  -48.475; -357.000; -259.000
277.340;   46.700;  287.000;  175.000
277.480; -110.525; -840.000; -693.000
277.620;   31.475;  192.000;   16.000
277.760; -201.225;-1533.000;-1294.000
277.900;   34.350;  113.000;   33.000
278.040;   23.725;  137.000;  159.000
278.180;   40.025;  270.000;  170.000
278.320;    8.300;   21.000;   56.000
278.460;  -68.600; -443.000; -469.000
278.600;  -92.850; -708.000; -598.000
278.740;   64.950;  448.000;  224.000
278.880;  -13.850; -768.000; -791.000
279.020;   22.800; -194.000; -144.000
279.160;  -96.875; -672.000; -595.000
279.300; -106.250; -926.000; -873.000
279.440;  -96.350; -709.000; -622.000
279.579;   -9.775;-1014.000; -929.000
279.719;  -49.525; -410.000; -394.000
279.859;   77.450;   -4.000;   41.000
279.999;   18.575; -208.000;  101.000
280.139;   -6.275; -435.000; -387.000
280.279;  -75.300; -708.000; -745.000
280.419;  -10.025; -229.000; -147.000
280.559;  -25.250; -259.000; -180.000
280.698;  -71.125; -790.000; -639.000
280.838;  -82.575; -778.000; -800.000
280.978;  -87.450; -846.000; -790.000
281.118; -112.250; -811.000; -704.000
281.257;   19.825;   24.000;    6.000
281.397;  -82.350;-1094.000; -960.000
281.537;  -64.050; -599.000; -712.000
281.677;  -26.225; -150.000; -101.000
281.816;  -90.325; -700.000; -630.000
281.956;  -15.850; -193.000; -257.000
282.096;  -63.625; -539.000; -396.000
282.235; -108.275; -672.000; -638.000
282.375;  -26.175; -243.000;  -98.000
282.515;  -90.650; -715.000; -707.000
282.654;   46.275;   29.000;  106.000
282.794;   34.125;  388.000;  244.000
282.934;  -38.175; -530.000; -491.000
283.073; -131.800;-1030.000; -857.000
283.213;  -46.825; -460.000; -467.000
283.353;  -25.450; -408.000; -349.000
283.492;  -20.725; -264.000; -296.000
283.632;  -34.975; -254.000; -168.000
283.771;  -88.750; -859.000; -730.000
283.911;  -52.050; -369.000; -260.000
284.050;  -87.025; -794.000; -748.000
284.190; -153.375;-1229.000;-1096.000
284.329; -134.225;-1055.000; -964.000
284.469;  -49.550; -516.000; -591.000
284.608;  -35.775; -559.000; -598.000
284.748;  -89.150; -614.000; -570.000
284.887;    0.150;  -87.000;  -20.000
285.027; -120.100; -844.000; -892.000
285.166;  -11.625; -192.000; -249.000
285.306;   18.650; -116.000;  -33.000
285.445;  -34.500; -229.000; -343.000
285.584; -100.925; -630.000; -494.000
285.724;  -44.725; -282.000; -322.000
285.863; -119.950; -857.000; -507.000
286.002;  -48.050; -366.000; -276.000
286.142; -108.275; -715.000; -622.000
286.281;  -65.775; -525.000; -493.000
286.420;  -80.625; -554.000; -417.000
286.560;  111.200;  653.000;  623.000
286.699; -132.400; -958.000; -912.000
286.838;  -66.975; -590.000; -591.000
286.978;  -77.925; -533.000; -537.000
287.117; -129.725;-1085.000; -950.000
287.256;  -35.275; -228.000; -211.000
287.395;  -41.950; -197.000; -378.000
287.535;  -50.025; -370.000; -298.000
287.674;  -57.725; -509.000; -484.000
287.813;   69.325;  661.000;  533.000
287.952; -107.425;-1010.000; -871.000
288.091; -143.475;-1049.000; -915.000
288.231;   25.500;   13.000;   15.000
288.370; -170.100;-1217.000;-1200.000
288.509;  -85.875; -728.000; -645.000
288.648;  -84.600; -770.000; -548.000
288.787;  -14.400; -243.000;  -87.000
288.926;  -54.050; -454.000; -475.000
289.065;  130.600;  859.000;  672.000
289.204;  -36.050; -377.000; -217.000
289.344;  -84.550; -791.000; -690.000
289.483;   28.525;  416.000;  304.000
289.622;  -15.250; -291.000; -149.000
289.761;  -15.375; -309.000; -166.000
289.900;  -98.575; -785.000; -626.000
290.039;  -22.575;  -12.000;  -95.000
290.178;  -27.750; -274.000; -180.000
290.317;  -75.950; -618.000; -479.000
290.456;  -53.750; -463.000; -451.000
290.595; -134.150; -961.000; -833.000
290.734; -129.475; -904.000; -891.000
290.873;  -73.375; -456.000; -420.000
291.011; -104.375; -833.000; -843.000
291.150; -105.550; -770.000; -682.000
291.289;  -15.350; -343.000; -110.000
291.428;  -81.825; -599.000; -480.000
291.567;  -46.925; -370.000; -442.000
291.706;    9.150;  109.000;  154.000
291.845;  -79.325; -597.000; -505.000
291.984; -169.125;-1234.000;-1061.000
292.122;   83.275;  602.000;  582.000
292.261;   49.900;  620.000;  463.000
292.400;   24.725; -144.000;  211.000
292.539; -113.375; -959.000; -813.000
292.678;  -21.375; -325.000; -300.000
292.816; -148.875;-1136.000; -965.000
292.955;  -64.475; -844.000; -684.000
293.094;   -6.525; -173.000; -337.000
293.233;  -46.900; -556.000; -400.000
293.371;  -34.225; -225.000;  -84.000
293.510;  -84.450; -866.000; -780.000
293.649; -114.000; -959.000; -924.000
293.787;  -24.100;-1083.000;-1012.000
293.926;   15.875; -113.000;  -32.000
294.065;  -36.000; -379.000; -290.000
294.203;   57.475;  298.000;  406.000
294.342;   34.700;   74.000;  156.000
294.481; 5655.750;51180.000; -836.000
294.619;  -25.950; -425.000; -582.000
294.758; -123.000;-1230.000;-1137.000
294.896;   94.925; -125.000;    5.000
295.035; -116.950;-1040.000;-1006.000
295.174; -100.650;-1082.000; -954.000
295.312;  -18.125; -323.000; -203.000
295.451;   17.875; -307.000; -428.000
295.589;  -39.700; -389.000; -518.000
295.728;   34.600; -292.000; -165.000
295.866;   12.000;  -36.000;  -51.000
296.005;  -49.225; -584.000; -341.000
296.143;  -55.700; -558.000; -596.000
296.282;  -79.700; -957.000; -881.000
296.420;  -95.250; -657.000; -557.000
296.559;  -68.250; -892.000; -633.000
296.697;   63.800; -847.000; -665.000
296.835;  146.950;-1141.000;-1002.000
296.974;   54.025;  -23.000;   39.000
297.112;   39.675; -443.000; -504.000
297.251;  -63.425; -815.000; -755.000
297.389;  152.700; -576.000; -438.000
297.527;   58.550; -145.000;  -83.000
297.666;  -35.850; -486.000; -438.000
297.804;  -53.550; -404.000; -264.000
297.942;    9.500; -136.000; -161.000
298.081;    1.650; -183.000;   63.000
298.219;   96.125;  -17.000;  -19.000
298.357;   74.050; -144.000;  -71.000
298.495;   62.450; -810.000; -812.000
298.634;  106.350;  245.000;  219.000
298.772;  114.000; -220.000; -338.000
298.910;  -26.675; -309.000; -182.000
299.048;   14.800; -130.000; -153.000
299.187;  -17.350; -350.000; -250.000
299.325;   51.125;   52.000;  122.000
299.463;  106.325; -389.000; -299.000
299.601;  176.625; -327.000; -271.000
299.739;  -82.800; -908.000; -883.000
299.877;  -59.575; -791.000; -703.000
300.016;  -36.825;-1095.000; -935.000
300.154;  214.050;  -19.000; -161.000
300.292;   94.225; -428.000; -348.000
300.430;   77.150; -408.000; -291.000
300.568;  -84.475; -940.000; -874.000
300.706;  -17.300; -366.000; -469.000
300.844;  -38.000;-1108.000; -979.000
300.982;  144.575;  246.000;  282.000
301.120;  -99.850; -965.000; -866.000
301.258;  -56.900; -812.000; -705.000
301.396;   54.850;  104.000;  -41.000
301.534;  151.725; -218.000; -293.000
301.672;   36.875; -664.000; -521.000
301.810;   84.075; -613.000; -545.000
301.948;  162.175;   53.000;  149.000
302.086;  774.925; -250.000;  -32.000
302.224; 1217.300; -610.000; -585.000
302.362;   75.375; -558.000; -622.000
302.500;   16.625; -923.000; -893.000
302.638;  152.650;  128.000;  245.000
302.776;   16.775; -352.000; -408.000
302.913;   58.825;  447.000;  236.000
303.051;   10.100;  -86.000;  -23.000
303.189;   74.425;   90.000;  118.000
303.327;  -28.150; -341.000; -256.000
303.465;  -78.600; -832.000; -588.000
303.603;  -70.775; -805.000; -604.000
303.740;  139.150;  417.000;  241.000
303.878;   69.400; -800.000; -759.000
304.016;  -81.025; -915.000; -790.000
304.154; -104.250;-1123.000;-1152.000
304.291;  -24.575; -505.000; -554.000
304.429;    7.625;  102.000;   74.000
304.567; -116.450; -908.000; -893.000
304.705;  -33.175; -408.000; -515.000
304.842;  149.850; -616.000; -540.000
304.980;   69.250;  215.000;   35.000
305.118;   96.125; -367.000; -365.000
305.255;  -32.975; -945.000; -927.000
305.393;   89.275;  178.000;  239.000
305.531;  -89.850;-1173.000; -956.000
305.668;  -60.725; -663.000; -582.000
305.806;  115.300; -358.000; -439.000
305.943;  149.075; -629.000; -637.000
306.081;   98.950; -378.000; -267.000
306.219;  -94.975; -863.000; -748.000
306.356;    2.225;  158.000;   27.000
306.494;  115.525;  981.000;  761.000
306.631;    3.950;  -11.000;  -55.000
306.769;   21.525; -613.000; -485.000
306.906;    8.850; -284.000; -258.000
307.044;  -57.175; -473.000; -488.000
307.181;  -63.350; -410.000; -332.000
307.319;   20.200;  112.000;   87.000
307.456; -159.400;-1191.000;-1153.000
307.594;  -81.625; -980.000; -727.000
307.731;    2.500; -371.000; -164.000
307.868;   18.400;  -15.000;   20.000
308.006; -131.200; -961.000; -847.000
308.143;  -53.225; -618.000; -330.000
308.281;  187.675;  -37.000; -254.000
308.418;    1.850; -748.000; -640.000
308.555;  -55.325; -400.000; -250.000
308.693;  -74.675; -577.000; -573.000
308.830; -105.475; -712.000; -657.000
308.967;   -9.150; -215.000;  -95.000
309.105;  -31.225; -507.000; -396.000
309.242;   52.850; -468.000; -367.000
309.379;  344.600; -577.000; -655.000
309.517;  -33.550; -936.000; -948.000
309.654;  -98.575; -910.000; -734.000
309.791;  -65.075; -662.000; -580.000
309.928; -103.425; -977.000; -914.000
310.065;  214.300;  819.000;  697.000
310.203;   33.125; -825.000; -850.000
310.340;   13.825; -465.000; -321.000
310.477;  -61.325; -412.000; -516.000
310.614;  -56.650; -383.000; -473.000
310.751;  -80.550; -427.000; -518.000
310.889;  -24.525;    1.000;   11.000
311.026; -154.575;-1161.000; -939.000
311.163;  -29.050; -386.000; -380.000
311.300;  -74.825; -512.000; -479.000
311.437;  -55.225; -658.000; -619.000
311.574; -141.500;-1226.000; -985.000
311.711;  -47.225; -595.000; -433.000
311.848;  -40.725; -380.000; -388.000
311.985;   24.650;  270.000;   93.000
312.122; -104.500; -932.000; -762.000
312.259; -110.600; -941.000; -994.000
312.396;  -79.250; -508.000; -551.000
312.533;  -84.450; -812.000; -790.000
312.670; -126.575;-1070.000; -898.000
312.807;  -14.900; -352.000; -367.000
312.944;  -76.125; -513.000; -611.000
313.081;  -15.650; -150.000; -415.000
313.218; -102.100;-1111.000; -867.000
313.355;   34.925; -531.000; -449.000
313.492;   32.525; -455.000; -292.000
313.629;  154.700;  815.000;  735.000
313.766; -159.275;-1176.000;-1008.000
313.902;    0.525; -186.000;   21.000
314.039;  -52.225; -372.000; -289.000
314.176;   24.375;  286.000;  192.000
314.313;  -65.100; -569.000; -473.000
314.450;  -55.875; -788.000; -684.000
314.587;  -50.950; -468.000; -480.000
314.723;   15.675;  -78.000;  130.000
314.860;   35.100;  318.000;  332.000
314.997;   46.675;  223.000;  142.000
315.134;  -40.075; -385.000; -368.000
315.270;   -4.900; -480.000; -496.000
315.407; -119.400;-1094.000; -967.000
315.544;  -29.875; -657.000; -538.000
315.681;  -48.975; -681.000; -565.000
315.817;   58.575; -133.000; -176.000
315.954;   38.525; -613.000; -392.000
316.091; -102.150;-1045.000;-1023.000
316.227;  -14.350;  -71.000; -179.000
316.364;   15.375;   23.000;    6.000
316.500;  -40.925; -113.000; -300.000
316.637;  -22.125; -181.000; -302.000
316.774;  -88.900; -625.000; -358.000
316.910;  -84.825; -598.000; -629.000
317.047;  -50.875; -487.000; -351.000
317.183;  -27.925; -435.000; -566.000
317.320;  -26.925; -367.000; -321.000
317.456;  -81.775; -733.000; -805.000
317.593;  -86.375; -598.000; -641.000
317.729;   17.800;  168.000;  -67.000
317.866; -195.225;-1434.000;-1285.000
318.002;  -87.750; -708.000; -948.000
318.139;  -67.450; -883.000; -867.000
318.275;  -93.375;-1003.000; -738.000
318.412;  -53.425; -517.000; -336.000
318.548;    1.775; -751.000; -720.000
318.685;  -92.925; -985.000; -888.000
318.821;  -82.000; -762.000; -735.000
318.957;  -12.800;   34.000;  -23.000
319.094;   55.850;  297.000;  154.000
319.230;  -20.825; -756.000; -742.000
319.367;  184.375; -471.000; -520.000
319.503;   75.775; -538.000; -436.000
319.639;  -90.950; -877.000; -793.000
319.775;  -45.675; -750.000; -685.000
319.912;  -27.375; -424.000; -519.000
320.048;  -70.300;-1184.000;-1184.000
320.184;   76.650;   59.000;   70.000
320.321;  -51.150; -497.000; -467.000
320.457;   61.875;  475.000;  662.000
320.593;  -57.100; -375.000; -382.000
320.729;  -93.350; -732.000; -734.000
320.866;  -80.400; -577.000; -635.000
321.002;  -66.050; -759.000; -809.000
321.138;  -18.050; -135.000; -211.000
321.274;   85.425; -148.000; -115.000
321.410;   -8.525; -585.000; -353.000
321.546;    2.700;-1011.000; -911.000
321.683;   67.900;  400.000;  185.000
321.819;   13.100;  -48.000; -117.000
321.955; -103.975; -743.000; -722.000
322.091;  -36.200; -585.000; -540.000
322.227;   11.925; -382.000; -202.000
322.363;   -0.050; -320.000; -215.000
322.499;  -20.925; -343.000; -331.000
322.635;  184.100;  636.000;  443.000
322.771;   52.500; -139.000;   12.000
322.907;   99.025;  129.000;  327.000
323.043;  -14.300; -115.000; -206.000
323.179;  -28.950; -394.000; -363.000
323.315;   66.025; -401.000; -371.000
323.451;  174.400; -328.000; -236.000
323.587;   80.250;  -60.000;  -77.000
323.723;   53.825; -682.000; -601.000
323.859;   -6.775; -258.000;  -76.000
323.995;   -7.275; -467.000; -409.000
324.131; -119.550; -967.000; -892.000
324.267;  -36.250; -254.000; -276.000
324.402; -116.225; -960.000; -983.000
324.538;   17.225; -279.000; -104.000
324.674;   43.725;  164.000;   77.000
324.810;  177.500;  226.000;  308.000
324.946;   34.975; -810.000; -658.000
325.082;  -61.375; -568.000; -475.000
325.217;    1.425;  -62.000;   16.000
325.353;  -92.400; -764.000; -659.000
325.489;  -76.775; -540.000; -506.000
325.625;  -67.400; -579.000; -525.000
325.760;   52.650;  517.000;  376.000
325.896;  -20.125; -515.000; -702.000
326.032;  -58.500; -403.000; -352.000
326.168;  -49.925; -462.000; -369.000
326.303;  -51.100; -352.000; -461.000
326.439;  -21.225; -336.000; -276.000
326.575;   14.800; -190.000;  -29.000
326.710;    9.275; -156.000;  -30.000
326.846;   -8.125;  146.000;  103.000
326.982;  -79.700; -530.000; -548.000
327.117;  -58.325; -481.000; -442.000
327.253;  -84.700; -745.000; -742.000
327.388; -150.650;-1137.000;-1153.000
327.524;  -10.150; -811.000; -578.000
327.659;  -23.375;  -58.000;  -22.000
327.795;   -3.250;   69.000;   45.000
327.931;  -75.150; -723.000; -499.000
328.066;  -13.075; -417.000; -276.000
328.202;  -25.075;   12.000; -129.000
328.337;  119.100;  957.000;  713.000
328.473;   42.400;  -12.000;  -74.000
328.608;   -0.150; -256.000; -267.000
328.743;  -69.200; -799.000; -664.000
328.879;   22.725;  214.000;  114.000
329.014;  -33.600; -102.000; -122.000
329.150;  -65.500; -358.000; -483.000
329.285;  -77.825; -465.000; -466.000
329.421;  -41.100; -548.000; -246.000
329.556;  -12.675;  -36.000;   85.000
329.691;  -89.000; -633.000; -615.000
329.827;  -73.950; -626.000; -480.000
329.962;  -42.525;  131.000; -301.000
330.097;  -65.750; -673.000; -585.000
330.233;  -47.350; -410.000; -223.000
330.368; -124.200; -839.000; -628.000
330.503;   -6.200;    3.000;   98.000
330.638;   25.875;  -93.000; -125.000
330.774;  -37.075; -609.000; -530.000
330.909;  -51.850; -434.000; -244.000
331.044;  -85.875; -714.000; -708.000
331.179; -167.775;-1217.000;-1109.000
331.315;   23.925;   77.000;   20.000
331.450;   16.175;  157.000;  285.000
331.585;  -66.350; -805.000; -706.000
331.720;  -86.550; -510.000; -460.000
331.855;   -0.650;  -35.000; -102.000
331.990;  205.300;   62.000;  138.000
332.126;  105.475; -110.000;   71.000
332.261;  -32.900; -379.000; -265.000
332.396;   -1.825; -135.000; -242.000
332.531; -122.875;-1074.000;-1031.000
332.666;   11.500; -519.000; -363.000
332.801;  -95.950; -726.000; -807.000
332.936;   -9.725; -192.000; -122.000
333.071; -121.850; -870.000; -817.000
333.206;   16.425;  307.000;  379.000
333.341;   26.175;  344.000;  418.000
333.476;  -82.925; -627.000; -623.000
333.611;  -16.275; -251.000; -173.000
333.746;  -23.550; -381.000; -464.000
333.881;  -88.300; -973.000; -935.000
334.016; -115.725; -936.000; -917.000
334.151; -117.500; -746.000; -702.000
334.286;   47.300;  152.000;  186.000
334.421;  -16.200; -125.000; -178.000
334.556;  -58.700; -611.000; -567.000
334.690;  -67.525; -631.000; -577.000
334.825;   77.200;  381.000;   83.000
334.960;  -56.900; -285.000; -413.000
335.095;   33.400;  135.000;  -91.000
335.230;  -74.750; -722.000; -738.000
335.365; -108.100;-1084.000; -990.000
335.499; -111.300;-1108.000;-1037.000
335.634;   53.075;    9.000;  534.000
335.769;  -88.625; -755.000; -720.000
335.904;  -27.925; -603.000; -561.000
336.038;  -15.500; -735.000; -657.000
336.173;  -83.600;-1206.000;-1194.000
336.308;   30.150; -116.000; -189.000
336.443;   42.000; -544.000; -634.000
336.577;  -55.050; -936.000; -787.000
336.712;  111.500;   -4.000;  -12.000
336.847;   -1.225; -724.000; -607.000
336.981;  120.875; -272.000; -208.000
337.116;  350.750;  615.000;  501.000
337.250;  231.125; -434.000; -421.000
337.385;  183.125; -297.000; -208.000
337.520;   48.575; -632.000; -603.000
337.654;  -43.475; -215.000; -126.000
337.789; -122.075; -989.000; -933.000
337.923;  -26.550; -104.000; -205.000
338.058;  -70.650; -673.000; -738.000
338.192;   -4.500; -611.000; -488.000
338.327;    0.225;  -18.000; -155.000
338.461;  -41.950; -299.000; -469.000
338.596;  -92.000; -780.000; -638.000
338.730;  -99.175; -767.000; -803.000
338.865;   80.150;  -46.000; -140.000
338.999;  -70.575; -846.000; -702.000
339.134;  -29.350; -634.000; -536.000
339.268;   28.925; -741.000; -603.000
339.403;  311.425; -740.000; -775.000
339.537;   48.150; -894.000; -820.000
339.671; -107.175; -829.000; -813.000
339.806;  -68.475; -556.000; -512.000
339.940;   16.750; -261.000; -235.000
340.074;  -81.550; -685.000; -510.000
340.209;  -51.325; -351.000; -230.000
340.343;  -79.850; -517.000; -573.000
340.477;  162.900;  998.000; 1036.000
340.612;  -64.000;-1033.000; -900.000
340.746;  108.975; -199.000; -243.000
340.880;  -57.625; -924.000; -785.000
341.014;   -3.900;  -45.000; -154.000
341.149; -108.125; -756.000; -718.000
341.283; -106.650; -839.000; -754.000
341.417;  -79.300;-1124.000; -938.000
341.551;  231.475; -768.000; -708.000
341.685;  -24.950; -633.000; -611.000
341.820;  -59.725; -562.000; -493.000
341.954;  -48.475; -218.000; -349.000
342.088; -154.700;-1102.000;-1019.000
342.222;   73.925;  565.000;  618.000
342.356;  -51.925; -395.000; -335.000
342.490;  -84.500; -880.000; -841.000
342.624;  -23.475; -339.000; -242.000
342.758;   33.150; -364.000; -312.000
342.892;  -42.075; -710.000; -585.000
343.026;  -37.325;  -58.000; -116.000
343.160;  -45.775; -426.000; -376.000
343.294;  -74.850; -474.000; -337.000
343.428;   18.725; -488.000; -448.000
343.562;   -3.075; -172.000;  -23.000
343.696;   11.600; -385.000; -314.000
343.830;    2.625; -362.000; -356.000
343.964;   41.875; -231.000; -168.000
344.098; 1214.150;  199.000;   70.000
344.232; 1018.600; -266.000; -127.000
344.366;   94.650; -567.000; -453.000
344.500;  112.475; -665.000; -744.000
344.634;   51.550; -324.000; -164.000
344.768;   13.750; -531.000; -341.000
344.902;   36.950;  278.000;  256.000
345.035;  -67.475; -556.000; -496.000
345.169; -129.000; -933.000; -656.000
345.303;    0.175; -308.000; -482.000
345.437;  -43.000; -826.000; -717.000
345.571;  -70.975; -675.000; -594.000
345.704;  -48.325; -309.000; -532.000
345.838;    8.900; -331.000; -284.000
345.972;  -23.250; -543.000; -495.000
346.106;  142.700; -179.000; -190.000
346.239;  446.475; -312.000; -243.000
346.373;   30.875; -343.000; -302.000
346.507; -141.950; -950.000; -962.000
346.640;  217.725;  -30.000;   13.000
346.774;  -10.550; -650.000; -797.000
346.908;   -4.925; -138.000;  -11.000
347.041;  -85.850; -646.000; -593.000
347.175;   12.650;  259.000;   27.000
347.309;  -59.025; -698.000; -628.000
347.442;  -86.300; -883.000; -732.000
347.576;  340.550;  670.000;  668.000
347.709;  284.225; -123.000;  -52.000
347.843;  -63.025; -933.000; -825.000
347.976;   34.300;  235.000;  294.000
348.110; -174.450;-1268.000;-1186.000
348.243;  -81.850; -679.000; -772.000
348.377;   -0.675;  -26.000;   60.000
348.510;   55.600;  403.000;  540.000
348.644;  -30.450;  -37.000; -159.000
348.777;    3.825;  180.000;  191.000
348.911;  -45.775; -142.000; -112.000
349.044;  202.700;  471.000;  448.000
349.178;  255.075;-1069.000;-1006.000
349.311;  124.050;  141.000;  255.000
349.444;  -18.400; -927.000; -813.000
349.578;    2.575; -347.000; -200.000
349.711;  -78.425; -959.000; -862.000
349.845;   49.000; -661.000; -591.000
349.978; -128.775;-1224.000;-1137.000
350.111;  -72.375; -546.000; -612.000
350.244;  -62.700; -596.000; -700.000
350.378;   44.975; -392.000; -393.000
350.511;  -66.250; -393.000; -426.000
350.644;  -95.775; -808.000; -806.000
350.778;    7.875;  168.000;  104.000
350.911;   15.375;  134.000;  140.000
351.044;  -86.825; -685.000; -615.000
351.177;  -10.950; -321.000; -281.000
351.310;   -7.525;    3.000; -131.000
351.444;  -54.725; -888.000; -788.000
351.577;  177.950;  140.000;   90.000
351.710;  114.775;  593.000;  417.000
351.843;  -27.525; -165.000;  -77.000
351.976;    7.925;  149.000;  -79.000
352.109;  -77.750; -621.000; -612.000
352.242;   16.850; -464.000; -419.000
352.376;  -31.800; -580.000; -636.000
352.509;  269.525; -437.000; -356.000
352.642;   61.475; -654.000; -604.000
352.775;   88.125; -141.000;  -98.000
352.908; -102.700; -933.000; -904.000
353.041;  -82.625; -814.000; -824.000
353.174;  -50.250; -551.000; -424.000
353.307;  -65.325; -753.000; -764.000
353.440;   86.625;  541.000;  453.000
353.573;  -98.150; -957.000;-1008.000
353.706;  -20.150; -384.000; -558.000
353.839;   -6.600; -264.000; -220.000
353.971;  -86.900; -657.000; -512.000
354.104;  -78.150; -896.000; -835.000
354.237;  -11.150; -627.000; -662.000
354.370;  -56.975; -846.000; -879.000
354.503; -166.550;-1231.000;-1308.000
354.636;  -21.375; -529.000; -348.000
354.769; -130.600; -937.000; -860.000
354.902;   13.850; -230.000; -139.000
355.034;  -14.475; -164.000; -220.000
355.167;   -4.750; -262.000; -162.000
355.300;  -93.475;-1061.000; -880.000
355.433;  800.700;  -71.000;  -14.000
355.565; 1239.475; -402.000; -384.000
355.698;  317.700; -356.000; -296.000
355.831;   11.725; -882.000; -801.000
355.964;  147.325; -285.000; -170.000
356.096;  -67.125; -856.000; -843.000
356.229;   44.900; -523.000; -530.000
356.362;  279.300; -373.000; -266.000
356.494;  489.125; -229.000; -162.000
356.627;  600.875;  269.000;  377.000
356.760;  610.600;  120.000;   53.000
356.892;  785.550; -286.000; -601.000
357.025;  837.925;  403.000;  389.000
357.157;  806.400; -167.000; -179.000
357.290;  483.400; -856.000; -713.000
357.423;  174.700; -667.000; -556.000
357.555;  162.250; -217.000; -228.000
357.688;  180.325; -483.000; -364.000
357.820;  562.975; -870.000; -877.000
357.953; 4360.400; -563.000; -589.000
358.085; 1066.175; -632.000; -612.000
358.218; 1725.975;-1131.000; -932.000
358.350;  315.900;  -58.000;  312.000
358.483; -100.725;-1300.000;-1187.000
358.615;   49.100;-1182.000;-1078.000
358.747;   -8.575;-1187.000;-1058.000
358.880;   81.575; -810.000; -744.000
359.012;   14.025; -376.000; -202.000
359.145;  -18.000; -480.000; -511.000
359.277;  105.425; -962.000; -913.000
359.409; 3668.375;  536.000;  231.000
359.542;  994.225; -738.000; -688.000
359.674;   92.475;   46.000;   13.000
359.806;  -55.525; -565.000; -438.000
359.939;  -44.375; -617.000; -516.000
360.071;  -20.650; -583.000; -579.000
360.203;  -26.875; -411.000; -364.000
360.335;   62.125;  164.000;  -16.000
360.468;  225.825; -249.000; -307.000
360.600; 2787.875; -547.000; -454.000
360.732; 2268.500; -546.000; -423.000
360.864;  319.650;-1216.000;-1044.000
360.996;  433.275; -516.000; -554.000
361.129;   77.700; -389.000; -598.000
361.261;   36.125;  110.000; -113.000
361.393;  -21.550; -252.000; -214.000
361.525;   43.500;   94.000;  244.000
361.657;  -21.175; -821.000; -703.000
361.789;   36.625; -139.000; -155.000
361.921;  355.375; -642.000; -593.000
362.053;  355.550;  524.000;  541.000
362.185;   70.200;  288.000;   72.000
362.318;  -45.025; -709.000; -705.000
362.450;  198.825;  294.000;  444.000
362.582;  274.325; -913.000; -870.000
362.714;  -20.900; -353.000; -332.000
362.846;  -79.825; -606.000; -490.000
362.978; -138.975; -941.000; -811.000
363.109;  107.975; -161.000; -260.000
363.241;  601.150; -739.000; -749.000
363.373;  376.300; -649.000; -564.000
363.505;  500.500; -186.000;  -91.000
363.637;  142.600; -787.000; -601.000
363.769;  -97.075;-1067.000;-1080.000
363.901;  -50.825; -596.000; -654.000
364.033;  -96.300;-1103.000;-1062.000
364.165;   10.950; -283.000; -283.000
364.296;   66.775; -316.000; -177.000
364.428;   19.875;-1344.000;-1220.000
364.560;  -67.250; -679.000; -661.000
364.692;  -52.950; -738.000; -835.000
364.824;  412.525; -588.000; -456.000
364.955;  444.350; -402.000; -564.000
365.087;  614.775;-1097.000; -852.000
365.219;   14.325; -686.000; -816.000
365.351;  -77.825; -526.000; -572.000
365.482;   74.600;  300.000;  240.000
365.614;  -32.975; -402.000; -314.000
365.746;  -86.725; -729.000; -752.000
365.877;  -90.600; -706.000; -672.000
366.009;  213.000;  -35.000;  -62.000
366.141; -126.125;-1249.000;-1134.000
366.272;  -93.050; -803.000; -719.000
366.404; -107.525;-1005.000; -874.000
366.535;   -1.475; -139.000;  -12.000
366.667;  -95.525; -644.000; -649.000
366.799;   57.500;  353.000;  203.000
366.930;  -92.100; -862.000; -996.000
367.062;  112.550; -639.000; -613.000
367.193;   79.550; -872.000; -842.000
367.325;  -54.050; -580.000; -684.000
367.456;  118.950; -246.000;   31.000
367.588;  141.350; -371.000; -318.000
367.719;   34.150;  -44.000;  -45.000
367.851;   -2.025; -222.000; -241.000
367.982;  -15.075; -875.000; -732.000
368.113;  156.325; -475.000; -358.000
368.245;  -99.075; -960.000; -841.000
368.376;   12.700; -254.000; -302.000
368.508;  -24.150; -188.000; -263.000
368.639; -122.575;-1166.000;-1034.000
368.770;   18.150; -670.000; -589.000
368.902;  -30.000; -836.000; -926.000
369.033;  -86.150; -906.000; -855.000
369.164;  -49.625; -720.000; -653.000
369.296; -101.725; -452.000; -601.000
369.427;   17.525; -209.000; -144.000
369.558;  -25.475; -593.000; -377.000
369.689;  -83.200; -721.000; -569.000
369.821; -130.575; -951.000; -845.000
369.952;  -19.600;   42.000; -108.000
370.083;  -35.300; -229.000; -108.000
370.214;  -64.075; -735.000; -650.000
370.345;    6.500;   65.000;   81.000
370.477;  -66.225; -810.000; -790.000
370.608;  328.300; -328.000; -264.000
370.739;    9.450;-1233.000;-1292.000
370.870;    2.825;-1102.000; -923.000
371.001;  162.300; -378.000; -467.000
371.132;  -64.400; -754.000; -735.000
371.263;   -6.100;  -42.000; -148.000
371.394; -127.775; -841.000; -748.000
371.525;   49.425;  345.000;  225.000
371.657;  -74.700; -808.000; -670.000
371.788;   99.825;  103.000;  199.000
371.919;  258.725; -384.000; -304.000
372.050; 4649.400;  -91.000; -156.000
372.181; 1396.025; -188.000; -294.000
372.311;  499.300;   42.000; -127.000
372.442;   74.850; -457.000; -451.000
372.573;   -7.300; -444.000; -340.000
372.704; -112.700;-1008.000; -980.000
372.835;  127.800; -228.000; -289.000
372.966;  -43.600; -646.000; -554.000
373.097;  -40.975; -575.000; -711.000
373.228;   -8.450; -717.000; -542.000
373.359;  243.150; -824.000; -536.000
373.490; 1293.175; -881.000; -727.000
373.620; 1616.875;-1001.000; -803.000
373.751; 2445.550; -332.000; -396.000
373.882; 1111.475; -663.000; -733.000
374.013;  120.200; -449.000; -262.000
374.143;   -7.150; -581.000; -659.000
374.274;  -87.825; -987.000; -908.000
374.405;  238.100; -388.000; -276.000
374.536;  628.250; -526.000; -387.000
374.666; 1577.675; -759.000; -807.000
374.797;  343.100; -817.000; -868.000
374.928; 1234.475; -710.000; -560.000
375.058; 1222.950; -535.000; -500.000
375.189;  133.050;  -59.000;  -93.000
375.320;  -89.850; -928.000;-1034.000
375.450;  -17.200; -625.000; -616.000
375.581;  -44.150; -526.000; -436.000
375.712;  -13.425; -574.000; -250.000
375.842;  437.500; -438.000; -415.000
375.973;  339.950; -554.000; -513.000
376.103;    8.400; -665.000; -648.000
376.234;  -62.475; -531.000; -552.000
376.364;    0.650; -944.000; -867.000
376.495;  398.800;  925.000;  529.000
376.625;   58.850; -472.000; -485.000
376.756;  127.975; -709.000; -678.000
376.886;  -42.925;-1178.000;-1026.000
377.017;   11.775;-1048.000;-1061.000
377.147;  229.700; -786.000; -782.000
377.278;   59.125;  174.000;  228.000
377.408; -123.300; -801.000; -815.000
377.538;  -86.075; -707.000; -693.000
377.669;  -83.250; -537.000; -613.000
377.799;  -49.950; -645.000; -635.000
377.929;  -31.325; -610.000; -428.000
378.060; -117.775; -781.000; -847.000
378.190;  -50.175; -726.000; -531.000
378.320;  -39.975; -401.000; -406.000
378.451;    6.600; -131.000;  -22.000
378.581;    7.750;  -67.000; -110.000
378.711;  189.800; 1035.000;  866.000
378.841;   23.275; -533.000; -675.000
378.972;  -31.125; -871.000; -751.000
379.102;   41.850; -652.000; -579.000
379.232;   -1.950; -126.000;  -73.000
379.362;  -82.325;-1001.000; -885.000
379.492;   48.475; -373.000; -424.000
379.623;  146.150;    0.000;  111.000
379.753;  -64.275;-1107.000; -974.000
379.883;  283.300;   59.000;  156.000
380.013;   51.975;-1081.000;-1017.000
380.143;  -72.725;-1097.000;-1056.000
380.273;  -65.875; -985.000; -861.000
380.403;   34.900; -344.000; -257.000
380.533;   20.675; -651.000; -664.000
380.663;  111.975;  173.000;  128.000
380.793;  -69.050;-1027.000;-1074.000
380.923;   -5.650; -103.000;  -34.000
381.053;  -80.475; -613.000; -623.000
381.183;  -16.325; -106.000; -248.000
381.313;   85.175; -656.000; -470.000
381.443;   87.550; -692.000; -473.000
381.573;  328.325; -402.000; -409.000
381.703;  478.500;-1249.000;-1095.000
381.833;  -97.125;-1454.000;-1336.000
381.963;  144.375; -134.000;  -87.000
382.093; 1769.875; -925.000; -909.000
382.223;  562.525; -713.000; -602.000
382.353;   22.175; -801.000; -608.000
382.482;  579.275;-1091.000; -964.000
382.612; 1007.450; -872.000; -644.000
382.742;  602.950; -695.000; -622.000
382.872;  394.125; -565.000; -551.000
383.002;   87.925;  347.000; -132.000
383.131;   11.375; -226.000; -160.000
383.261;  -34.000; -706.000; -768.000
383.391;  284.400; -552.000; -377.000
383.521; 2443.775;  451.000;  263.000
383.650;  516.850; -947.000; -904.000
383.780;  -17.500; -783.000; -656.000
383.910;  115.900;  880.000;  802.000
384.039;   74.150; -794.000; -656.000
384.169;  348.375;-1205.000;-1017.000
384.299;    7.800; -650.000; -662.000
384.428;  -67.800; -764.000; -680.000
384.558;  -29.800; -308.000; -275.000
384.687;  -11.475; -414.000; -334.000
384.817;   45.275;   75.000;   -2.000
384.947;   47.675; -234.000; -141.000
385.076;  370.475;  982.000;  912.000
385.206;  133.750;  369.000;  480.000
385.335;   -1.325; -549.000; -417.000
385.465;  -53.625; -655.000; -663.000
385.594;  189.750;  -53.000;  -44.000
385.724;  638.350; -868.000; -838.000
385.853;  186.750; -296.000; -270.000
385.982; 1877.875; -743.000; -787.000
386.112; 2927.200;-1052.000; -871.000
386.241;  226.275; -307.000; -312.000
386.371;   64.825; -174.000;  -87.000
386.500;   31.500; -825.000; -789.000
386.629;   40.325; -874.000; -817.000
386.759;   70.025;  -43.000;   68.000
386.888;   29.725; -170.000; -250.000
387.017;  -64.375; -648.000; -620.000
387.147;  -64.125; -771.000; -798.000
387.276;   29.450; -410.000; -397.000
387.405;   63.350; -398.000; -342.000
387.535;  -17.125; -452.000; -361.000
387.664;  -46.800; -692.000; -620.000
387.793;   88.625; -198.000; -113.000
387.922;  722.975;  255.000;  200.000
388.052;   67.675; -576.000; -423.000
388.181;   78.575; -342.000; -472.000
388.310;   75.850; -889.000; -710.000
388.439;    7.375; -749.000; -742.000
388.568;  265.525;  365.000;  244.000
388.697; 1480.300; -756.000; -653.000
388.826;  318.225; -768.000; -666.000
388.956;  120.275; -285.000; -307.000
389.085;  -18.775; -347.000; -287.000
389.214;  -92.675; -842.000; -872.000
389.343;  -51.950; -645.000; -413.000
389.472;  361.075;  126.000;  149.000
389.601;  485.250;   91.000;    0.000
389.730;   63.850; -568.000; -687.000
389.859;  103.750;  226.000;   46.000
389.988;  276.225; -423.000; -408.000
390.117;  211.975; -168.000; -146.000
390.246;    7.950; -331.000; -320.000
390.375;  195.100; -673.000; -626.000
390.504;  -38.925; -703.000; -621.000
390.633;  -81.525; -672.000; -726.000
390.761;  -43.475; -732.000; -645.000
390.890;   55.225;   -4.000; -130.000
391.019;   -2.875; -421.000; -441.000
391.148; -114.275; -826.000; -855.000
391.277;  -36.525; -576.000; -493.000
391.406;  -41.400; -821.000; -805.000
391.534;   26.775;  574.000; -301.000
391.663;  -31.300; -583.000; -645.000
391.792;  -56.775; -673.000; -701.000
391.921;  161.475;   -3.000;   15.000
392.050;  326.825; -287.000; -228.000
392.178;   31.875;-1206.000;-1061.000
392.307;  232.275; -758.000; -712.000
392.436;  132.475; -427.000; -641.000
392.564;   38.975;  166.000;   -6.000
392.693;  -92.075; -860.000; -682.000
392.822;  341.950; -529.000; -534.000
392.950;  175.225; -880.000; -714.000
393.079;  472.625; -188.000; -328.000
393.208;   64.125; -488.000; -511.000
393.336;   -4.725; -170.000; -145.000
393.465;  -39.325; -317.000; -199.000
393.593;   18.150;   62.000;   79.000
393.722; -140.600;-1121.000; -916.000
393.850;  -23.775; -188.000;  -61.000
393.979; -148.200; -926.000; -805.000
394.107;  -48.575; -517.000; -537.000
394.236;    1.625; -570.000; -507.000
394.364;  239.175;  383.000;  206.000
394.493;  383.125; -911.000; -767.000
394.621;   -5.650; -955.000; -916.000
394.750;  555.450; -873.000; -923.000
394.878; 2427.200; -247.000; -149.000
395.007; 3266.100; -721.000; -807.000
395.135;  231.075; -790.000; -721.000
395.263;  -95.600;-1038.000;-1040.000
395.392;   21.425;  -25.000; -107.000
395.520; -142.000; -818.000; -679.000
395.648;  -61.950; -865.000; -915.000
395.777;    2.850; -366.000; -405.000
395.905;  -31.325; -449.000; -564.000
396.033;    6.825;  217.000;  172.000
396.162;  626.675; -399.000; -453.000
396.290;  562.500;  -17.000;   -2.000
396.418;  174.200; -555.000; -514.000
396.546;  -74.925; -571.000; -466.000
396.674;  -81.375; -850.000; -878.000
396.803;   24.500;  -72.000;  -23.000
396.931;  162.750; -179.000; -199.000
397.059;  155.550;-1026.000; -989.000
397.187;  -90.600;-1026.000; -975.000
397.315; -139.800; -884.000; -649.000
397.443;  -94.050; -592.000; -443.000
397.572;  -87.475; -578.000; -424.000
397.700;   47.150; -607.000; -614.000
397.828;   38.300;  120.000;  -90.000
397.956;  -40.350; -508.000; -478.000
398.084;  -67.200; -767.000; -626.000
398.212;   59.350;  137.000;  124.000
398.340;   26.025;  -56.000;  159.000
398.468;   85.625; -390.000; -169.000
398.596; -121.125; -993.000; -953.000
398.724; -117.600; -762.000; -767.000
398.852; -171.175;-1024.000; -976.000
398.980;  -54.000; -560.000; -560.000
399.108;  -26.475; -982.000; -735.000
399.236;   62.000;   13.000;    8.000
399.363;   20.600;  222.000;  196.000
399.491;  -65.150; -404.000; -398.000
399.619; -124.950; -829.000; -800.000
399.747;  -84.650; -859.000; -771.000
399.875;  104.425;  220.000;  234.000
400.003;  -46.275; -359.000; -284.000
400.130;  -95.050; -421.000; -341.000
400.258;  -17.825;  -83.000;   38.000
400.386;  -72.475; -352.000; -168.000
400.514;  -12.225; -526.000; -587.000
400.641;  -60.600; -928.000; -802.000
400.769; -121.050; -979.000; -888.000
400.897;  -94.050; -838.000; -793.000
401.025;   -4.225; -166.000; -152.000
401.152;   -6.125;  220.000;   38.000
401.280;  -79.250; -430.000; -429.000
401.408; -103.325; -712.000; -576.000
401.535;  -81.800; -735.000; -758.000
401.663; -180.200;-1134.000;-1054.000
401.790;  -74.800; -514.000; -525.000
401.918;   34.975;  436.000;  405.000
402.046;   -3.550;  134.000;  122.000
402.173;  -35.150;  -18.000;    7.000
402.301;  -47.050; -519.000; -397.000
402.428;   32.850;  528.000;  383.000
402.556; -128.275;-1188.000; -913.000
402.683;  -31.325;  -20.000;   -1.000
402.811;  -11.350;  -37.000; -206.000
402.938;   -9.600;   20.000;   27.000
403.066;  298.725; -574.000; -558.000
403.193;  445.350;  299.000;  239.000
403.321;  372.100; -396.000; -574.000
403.448;  435.375;   83.000;   27.000
403.575;  191.000;  -90.000;  -46.000
403.703;  -88.375; -732.000; -557.000
403.830;  -54.650; -531.000; -496.000
403.957; -140.775;-1117.000;-1023.000
404.085;   21.775;  -61.000; -172.000
404.212;  122.650;  -50.000;   63.000
404.339;  230.600; -566.000; -306.000
404.467; 4624.650; -612.000; -524.000
404.594; 3565.700; -287.000; -227.000
404.721;  997.175; -869.000; -764.000
404.848;  102.375; -113.000; -202.000
404.976;  -91.800; -856.000; -783.000
405.103;   -8.550;  -14.000;  -82.000
405.230;    6.100;  190.000;  226.000
405.357;   41.600;  117.000;   44.000
405.484;  219.275;  -49.000;    5.000
405.612;   40.475; -548.000; -563.000
405.739;  -52.275; -488.000; -243.000
405.866;   94.725;  669.000;  385.000
405.993;  -56.000; -398.000; -102.000
406.120; -126.325; -801.000; -887.000
406.247;  -61.350; -323.000; -342.000
406.374;  594.675;  540.000;  629.000
406.501;  208.425; -632.000; -702.000
406.628;  -68.900; -621.000; -589.000
406.755;  -95.625; -803.000; -620.000
406.882;   -9.825; -228.000; -277.000
407.009; -104.050; -719.000; -628.000
407.136;   94.200; -480.000; -401.000
407.263;  243.375; -939.000; -829.000
407.390;  -55.675; -692.000; -614.000
407.517; -156.375;-1139.000;-1187.000
407.644;  -45.750; -332.000; -256.000
407.771;  -54.050; -249.000; -287.000
407.898;   20.850;  168.000;  328.000
408.025;  -48.325; -421.000; -313.000
408.151;    3.275;   82.000;  153.000
408.278;  -66.225; -267.000; -216.000
408.405;  -97.150; -931.000; -899.000
408.532;  -76.825; -549.000; -542.000
408.659; -120.875; -677.000; -648.000
408.785; -201.875;-1298.000;-1170.000
408.912;  -57.225; -412.000; -296.000
409.039; -126.325; -610.000; -686.000
409.166; -109.600; -591.000; -555.000
409.292; -100.800; -571.000; -534.000
409.419; -115.125; -665.000; -649.000
409.546;  -90.350; -431.000; -192.000
409.672; -105.925; -713.000; -545.000
409.799;  -10.850;  -36.000;   34.000
409.926;  -32.200; -180.000; -179.000
410.052; -169.450;-1127.000;-1091.000
410.179;  -36.650; -368.000; -392.000
410.305;  -99.075; -375.000; -493.000
410.432;  -38.300; -220.000; -333.000
410.558;  -83.925; -305.000; -380.000
410.685;  -99.300; -688.000; -431.000
410.812;  -98.775; -409.000; -588.000
410.938; -125.200; -964.000; -808.000
411.065; -101.675; -671.000; -645.000
411.191;   -2.500; -189.000; -174.000
411.317; -119.700; -823.000; -742.000
411.444;  -54.925; -317.000; -246.000
411.570;  -76.975; -339.000; -294.000
411.697; -111.875; -758.000; -752.000
411.823; -171.950; -989.000; -999.000
411.949;  -27.900;  -56.000;   17.000
412.076; -115.475; -539.000; -519.000
412.202; -114.825; -758.000; -757.000
412.329; -128.250; -798.000; -752.000
412.455; -109.750; -821.000; -657.000
412.581;  -31.775;  -15.000;  172.000
412.707;  -44.075; -540.000; -457.000
412.834;   29.175;  156.000;  219.000
412.960;  -73.175; -785.000; -784.000
413.086; -106.025; -743.000; -701.000
413.212;  179.775;  604.000;  578.000
413.339;  -40.425; -685.000; -701.000
413.465;   35.800; -364.000; -310.000
413.591;  -73.575; -757.000; -474.000
413.717;  -36.950; -358.000; -366.000
413.843; -137.475; -839.000; -861.000
413.969;  -55.400;  -47.000; -292.000
414.096; -103.950; -679.000; -679.000
414.222;   -2.425;  -33.000;   85.000
414.348;    1.225; -652.000; -385.000
414.474;  160.800;   38.000;  -52.000
414.600;  -10.425; -126.000; -144.000
414.726;   -6.750;  -96.000;  -55.000
414.852;  -77.800; -365.000; -342.000
414.978;   34.200;  104.000;  -18.000
415.104;   33.700;   38.000;   80.000
415.230;   17.750; -329.000; -330.000
415.356;   36.300; -409.000; -514.000
415.482;  211.800;   13.000;  -35.000
415.608;  229.525; -247.000; -323.000
415.734;  867.775;   67.000;   38.000
415.860;17456.900; -875.000; -767.000
415.986;12654.875; -685.000; -607.000
416.111; 1060.900; -798.000; -652.000
416.237;  206.350; -424.000; -571.000
416.363;  902.700; -765.000; -733.000
416.489; 3398.850; -324.000; -251.000
416.615;  330.025; -707.000; -742.000
416.741;  -41.000; -677.000; -784.000
416.866; -102.500; -673.000; -736.000
416.992; -122.825; -801.000; -818.000
417.118;  -27.225;  -41.000;  -80.000
417.244;  -52.725; -798.000; -531.000
417.369;  -94.450; -801.000; -612.000
417.495;    3.000; -325.000; -254.000
417.621;  -70.900;-1015.000; -803.000
417.746;   17.150; -579.000; -572.000
417.872;   44.100; -254.000; -144.000
417.998;   42.425; -515.000; -530.000
418.123;  827.300;-1073.000; -845.000
418.249; 4426.825; -512.000; -601.000
418.374;  599.775; -916.000; -824.000
418.500;   90.400; -383.000; -482.000
418.626;   89.550;   70.000;  -59.000
418.751;  126.575; -549.000; -448.000
418.877;  159.525; -637.000; -643.000
419.002; 1474.225; -688.000; -560.000
419.128;10302.025; -930.000; -721.000
419.253; 2493.375; -967.000; -837.000
419.379;  308.825; -391.000; -338.000
419.504;  316.675;  325.000;  415.000
419.629;  411.550; -393.000; -212.000
419.755; 2744.475; -317.000; -254.000
419.880;16318.975;  -98.000;   67.000
420.006; 9393.700; -280.000; -221.000
420.131;24853.575; -662.000; -775.000
420.256; 3631.400; -315.000; -316.000
420.382;  438.925; -665.000; -687.000
420.507;   41.325; -649.000; -778.000
420.632;  201.550; -337.000; -339.000
420.758;  412.900; -251.000; -425.000
420.883;  -68.600; -876.000; -672.000
421.008;  -93.750; -775.000; -619.000
421.133;  -84.650; -509.000; -467.000
421.259;  -33.575; -325.000; -259.000
421.384; -104.775; -834.000; -693.000
421.509;    5.575;-1052.000; -862.000
421.634; 1783.075; -936.000; -820.000
421.759;  805.400; -359.000; -327.000
421.885;  -23.500; -717.000; -656.000
422.010;  -65.875; -673.000; -542.000
422.135; -150.500; -695.000; -727.000
422.260;   37.725;  340.000;  280.000
422.385;  -49.325;   12.000;  -98.000
422.510;   12.575;  151.000;  -26.000
422.635;   21.450;  -87.000;  -43.000
422.760;  117.025; -766.000; -791.000
422.885;   71.500;  -57.000;  -80.000
423.010;  -33.100; -112.000; -169.000
423.135;  -97.775; -481.000; -561.000
423.260;   -5.025; -150.000; -245.000
423.385;   87.000;  476.000;  222.000
423.510;   49.200;   71.000;  -22.000
423.635;  116.925;  133.000;   45.000
423.760;   74.675;  383.000;  328.000
423.885;   58.750;  336.000;  391.000
424.010;   27.300;  -68.000;  -13.000
424.135;  -18.525;    5.000;  -33.000
424.259;  -85.450; -654.000; -457.000
424.384;  -58.400; -279.000; -272.000
424.509;  -25.500; -260.000; -186.000
424.634; -102.525; -761.000; -623.000
424.759;  -16.625; -688.000; -544.000
424.883;  -11.850; -506.000; -527.000
425.008;  160.700; -502.000; -410.000
425.133; 1674.850; -679.000; -653.000
425.258;  765.050; -517.000; -381.000
425.382; 1273.275; -867.000; -774.000
425.507; 3361.275; -487.000; -543.000
425.632;  492.625; -802.000; -663.000
425.756;  374.725; -256.000; -146.000
425.881; 4842.700; -831.000; -857.000
426.006;13019.450; -604.000; -355.000
426.130; 2165.550; -696.000; -508.000
426.255;  260.350; -611.000; -491.000
426.379;  124.750; -189.000; -577.000
426.504;  311.100;  660.000;  544.000
426.629; 3522.950; -519.000; -466.000
426.753; 2431.850;   64.000;  -46.000
426.878;  273.150; -252.000; -288.000
427.002;  161.925; -651.000; -668.000
427.127; 1385.550;  -35.000; -158.000
427.251; 9398.250;  372.000;  401.000
427.375; 2749.025; -191.000; -173.000
427.500; 2859.450; -616.000; -610.000
427.624;  980.150; -234.000; -400.000
427.749;  129.650; -216.000; -225.000
427.873;  -35.725; -499.000; -412.000
427.997;  -34.475; -222.000; -230.000
428.122;   71.825;  795.000;  703.000
428.246;   94.050;  433.000;  434.000
428.371; -126.575; -869.000; -773.000
428.495; -101.925; -624.000; -646.000
428.619;  -24.025; -186.000; -117.000
428.743;   42.050;   65.000;  132.000
428.868;   50.125; -732.000; -643.000
428.992; 1833.525; -219.000; -326.000
429.116;  782.450; -329.000; -357.000
429.240;  375.425;  419.000;  426.000
429.365;  -10.850; -454.000; -574.000
429.489;  -16.275; -638.000; -647.000
429.613;   35.350; -236.000; -177.000
429.737;   16.250; -563.000; -432.000
429.861;  245.100; -247.000; -133.000
429.985; 4673.675; -425.000; -305.000
430.109; 5087.200; -770.000; -908.000
430.234;  596.425;   76.000;  -50.000
430.358;   62.250; -250.000; -160.000
430.482;  -69.300; -672.000; -564.000
430.606;  -60.325; -655.000; -375.000
430.730;   66.150; -437.000; -388.000
430.854;  227.925; -909.000; -835.000
430.978;  -47.450; -795.000; -764.000
431.102;  -76.650; -499.000; -422.000
431.226; -106.175; -874.000; -815.000
431.350;   50.325;  345.000;  422.000
431.474;  -57.700; -661.000; -373.000
431.597; -146.500;-1060.000; -848.000
431.721;  -76.125; -276.000; -267.000
431.845; -125.850; -704.000; -472.000
431.969;  -79.075; -304.000; -349.000
432.093; -102.975; -395.000; -317.000
432.217;  -26.150;   32.000;   82.000
432.341;  -89.725; -523.000; -518.000
432.464;   26.325;   96.000;   40.000
432.588;  322.125; -401.000; -329.000
432.712;  156.700;  -52.000;  -52.000
432.836;   39.400;  213.000;  263.000
432.959;  -17.700; -372.000; -311.000
433.083;   37.175;   11.000;    2.000
433.207;  324.525;  285.000;  930.000
433.330; 4071.000; -391.000; -200.000
433.454; 5015.275; -654.000; -638.000
433.578; 2944.125;  583.000;  278.000
433.701;  564.450; -623.000; -675.000
433.825;  214.500; -292.000; -299.000
433.949;  317.775;   28.000;  -72.000
434.072;  146.425; -410.000; -323.000
434.196;   -5.675; -309.000; -117.000
434.319; 3711.175;25482.000;25124.000
434.443;  731.125; -656.000; -603.000
434.566; 2218.500;  281.000;   62.000
434.690;  357.450; -637.000; -383.000
434.813;   39.550; -251.000; -173.000
434.937;  -70.425; -569.000; -696.000
435.060;   -5.950; -423.000; -332.000
435.184;  589.475; -492.000; -217.000
435.307;  323.225;  159.000;  102.000
435.431;   18.650;  -40.000;   24.000
435.554;  -84.425; -399.000; -240.000
435.677;  -88.050; -350.000; -258.000
435.801;  -60.325;  -25.000;   49.000
435.924;    7.250;    1.000;  -67.000
436.048;  -74.050;-1019.000; -732.000
436.171;  -45.825; -240.000;  -66.000
436.294;  -39.550; -248.000; -229.000
436.417;   50.375; -963.000; -849.000
436.541;  -91.425; -814.000; -840.000
436.664;  -51.125; -242.000; -316.000
436.787;  -22.725;   13.000;  113.000
436.910; -104.350; -792.000; -422.000
437.034;   16.750;  142.000;  143.000
437.157;  108.975;  -11.000;    0.000
437.280;  -16.325; -392.000; -292.000
437.403;  -38.700; -982.000; -869.000
437.526; 1078.075; -903.000; -865.000
437.649; 3595.150; -505.000; -332.000
437.772;  602.650; -692.000; -540.000
437.896;  167.200;  700.000;  544.000
438.019;  -92.900; -758.000; -503.000
438.142;  -76.475; -596.000; -506.000
438.265;   32.350; -639.000; -670.000
438.388;  861.750; -520.000; -410.000
438.511;  208.175; -597.000; -394.000
438.634;  -25.450; -247.000; -125.000
438.757; -131.650; -693.000; -619.000
438.880;   -5.225;  -34.000;  -57.000
439.003;  -81.050; -417.000; -437.000
439.126;  -52.950; -287.000; -167.000
439.248;  -70.750;  -98.000; -139.000
439.371;  -52.300;    9.000;  -53.000
439.494;   13.850;  510.000;  439.000
439.617;  -40.050;   65.000;  -88.000
439.740; -184.775; -968.000; -816.000
439.863; -144.275; -755.000; -595.000
439.986; -127.675; -476.000; -431.000
440.108;  -63.025; -161.000; -112.000
440.231; -172.450; -950.000; -836.000
440.354;  -22.400;  -64.000; -150.000
440.477;   93.300; -566.000; -542.000
440.599;   45.300; -200.000; -225.000
440.722; -123.450; -709.000; -586.000
440.845;   77.400;  751.000;  928.000
440.968; -109.650; -415.000; -311.000
441.090;  -75.025; -199.000;  -33.000
441.213; -170.950;-1021.000; -825.000
441.336;  -50.625; -159.000;   -5.000
441.458;  -77.850; -549.000; -396.000
441.581;  -61.925; -628.000; -629.000
441.703;  -49.400; -152.000;   13.000
441.826; -109.175; -557.000; -400.000
441.948;  -57.825;   56.000;   51.000
442.071;   32.275;  555.000;  424.000
442.193; -119.750; -531.000; -485.000
442.316;   35.225;  152.000;   97.000
442.438;   25.325; -233.000;  -10.000
442.561;   87.350;  272.000;  262.000
442.683;  847.225; -809.000; -522.000
442.806; 1814.575;   -8.000;   74.000
442.928;  115.925; -859.000; -604.000
443.051;  -59.000; -577.000; -373.000
443.173;  -90.625; -341.000; -339.000
443.295;  -81.675; -263.000; -371.000
443.418;  -70.350; -321.000;  -29.000
443.540;    3.975; -106.000;   -4.000
443.662; -118.500; -563.000; -465.000
443.785;  -23.250;  335.000;  199.000
443.907; -104.000; -362.000; -208.000
444.029; -127.800; -767.000; -494.000
444.152; -157.875; -644.000; -554.000
444.274;  -35.400;  -18.000;  -24.000
444.396; -116.275; -461.000; -221.000
444.518; -133.500; -691.000; -454.000
444.640; -113.300; -268.000; -111.000
444.763;  -26.700;  388.000;  249.000
444.885; -118.275; -432.000; -392.000
445.007;  -25.975;   35.000;   86.000
445.129; -121.800; -610.000; -515.000
445.251;  -91.925; -372.000; -439.000
445.373; -133.000; -537.000; -386.000
445.495;    0.625;  242.000;  350.000
445.617;   41.325;  853.000;  753.000
445.739;  -67.150; -215.000;  -97.000
445.861;  -22.050; -245.000; -112.000
445.984;  -28.175; -267.000; -101.000
446.105;  317.800; -418.000; -251.000
446.227;  874.675; -176.000;  -19.000
446.349;   61.725; -358.000; -249.000
446.471;  -89.925; -615.000; -448.000
446.593;  -46.325; -316.000;   19.000
446.715;   -1.225;  -67.000;   41.000
446.837;   48.075;  697.000;  832.000
446.959;  -86.425; -457.000; -478.000
447.081; -140.725; -628.000; -518.000
447.203;   55.150;  862.000;  834.000
447.325;  -91.900; -270.000;   42.000
447.446;   -5.650;  286.000;  530.000
447.568; -154.575; -921.000; -803.000
447.690;  -70.900; -236.000; -245.000
447.812; -160.350; -798.000; -519.000
447.933;  -18.925;  155.000;  127.000
448.055;  -71.825; -306.000; -261.000
448.177;  214.150;   31.000;   79.000
448.299;  161.550; -935.000; -727.000
448.420;   38.875;  -25.000;  159.000
448.542;  -44.875;   -3.000;   33.000
448.664;  -25.425;  109.000;  322.000
448.785;  -43.200;  265.000;   83.000
448.907;  -68.200; -614.000; -353.000
449.028;   -7.000; -771.000; -471.000
449.150;   77.650;  492.000;  589.000
449.272; -184.700;-1044.000; -913.000
449.393;   28.975;  612.000;  694.000
449.515; -138.250; -634.000; -581.000
449.636;  -44.625; -264.000; -155.000
449.758;   75.900;  763.000;  622.000
449.879;  -99.600; -498.000; -396.000
450.001;  -84.775; -149.000;  -49.000
450.122;  -29.600;  -95.000;  162.000
450.244;  -31.125;   37.000;  364.000
450.365;  -95.575; -495.000; -301.000
450.486;  -58.850;   80.000;  268.000
450.608;   25.975;  393.000;  326.000
450.729;   41.325;  578.000;  645.000
450.850;  -21.975; -574.000; -466.000
450.972;  527.675; -552.000; -389.000
451.093; 3794.475;  190.000;  588.000
451.214; 1622.375; -516.000; -337.000
451.336;  330.650;  773.000;  579.000
451.457;   31.825;  264.000;  393.000
451.578;  -34.550; -118.000;  -74.000
451.699; -119.225; -546.000; -540.000
451.821;  -60.775; -284.000;  -50.000
451.942;  -12.550;  278.000;  285.000
452.063;   28.650;  228.000;  419.000
452.184;  416.450;  -54.000;  -49.000
452.305;  893.900;  103.000;  170.000
452.427;   84.375; -549.000; -301.000
452.548;  -16.775;   23.000;   79.000
452.669;  -49.600; -257.000;  -89.000
452.790;  -40.525;    3.000;  -18.000
452.911;   -9.725;  195.000;  259.000
453.032;  -68.275; -289.000;  -60.000
453.153;  -27.500;  -29.000;   81.000
453.274;   52.575;  737.000;  868.000
453.395;  -40.550;  -51.000;  175.000
453.516;  133.750; 1317.000; 1388.000
453.637;  -58.600; -205.000; -150.000
453.758;  -49.175;   15.000;   69.000
453.879; -118.600; -462.000; -250.000
454.000;  101.000; 1086.000;  948.000
454.121; -118.700; -554.000; -326.000
454.242; -112.350; -599.000; -383.000
454.362;  -55.825;  -99.000;  114.000
454.483;  -35.425; -309.000; -229.000
454.604;   67.400;  512.000;  580.000
454.725; -106.350; -627.000; -555.000
454.846; -126.075; -474.000; -406.000
454.967;  -25.675;  230.000;  539.000
455.087;  -58.825;  179.000;  153.000
455.208;   22.150;  554.000;  856.000
455.329;  -66.400;  -22.000;   82.000
455.450;   17.875;  473.000;  633.000
455.570;  -98.000; -234.000; -211.000
455.691;  -50.750;  201.000;  407.000
455.812; -110.275; -270.000;  -92.000
455.932;  -68.725;  107.000;  -97.000
456.053;  -85.325;   36.000;   24.000
456.173; -124.075; -433.000; -355.000
456.294; -148.175; -476.000; -303.000
456.415;  -69.500;  -73.000;   70.000
456.535;  -53.900;  297.000;  273.000
456.656;  -40.075;  132.000;  240.000
456.776;  -69.825;    3.000;  298.000
456.897;   -6.975;  308.000;  513.000
457.017;  -83.275; -153.000;   -3.000
457.138; -100.500; -402.000; -249.000
457.258;  -22.450;  263.000;  224.000
457.379;  -17.200;  509.000;  521.000
457.499;  -27.500;  443.000;  432.000
457.620; -139.100; -407.000; -231.000
457.740; -105.525; -132.000;  -11.000
457.860;  -52.650;   87.000;   44.000
457.981;  -48.925;  132.000;  124.000
458.101;  -67.175;  -89.000;   40.000
458.221;  -15.250;  336.000;  402.000
458.342;  -69.225;   -4.000;  -37.000
458.462;    0.350;  617.000;  352.000
458.582;  -64.500; -302.000; -294.000
458.703;   -9.375;  303.000;  154.000
458.823;  -35.225;   22.000;  163.000
458.943;    3.200;  341.000;  467.000
459.063;  -16.900; 1124.000;  192.000
459.183;  -29.475;  328.000;  313.000
459.304;   -2.225;  315.000;  517.000
459.424;  -76.275; -246.000;  -89.000
459.544;  277.100;  388.000;  764.000
459.664;  651.000;  499.000;  506.000
459.784;  279.750; 1004.000; 1175.000
459.904;   45.025;  867.000;  744.000
460.024;   83.700;  867.000;  684.000
460.144;   13.750;  449.000;  554.000
460.264;  -11.575;  515.000;  327.000
460.385; -110.325; -145.000; -119.000
460.505;   25.225;  905.000;  858.000
460.625;  -85.375;  -17.000;  -68.000
460.745;  -31.475;  396.000;  541.000
460.864;  -44.250;  153.000;  469.000
460.984;   19.075;  499.000;  573.000
461.104;  144.825; 1656.000; 1775.000
461.224;   21.675;  657.000;  650.000
461.344;  -33.200;  431.000;  360.000
461.464;  -15.600;  258.000;  513.000
461.584;   -6.900;  283.000;  466.000
461.704;  -38.700;   58.000;  108.000
461.824;  -74.350;  238.000;  259.000
461.943;  -43.450;  191.000;  130.000
462.063;  -73.925;    2.000;  324.000
462.183;   36.400;  639.000;  717.000
462.303;   97.825; 1678.000; 1230.000
462.422;   31.400;  781.000;  840.000
462.542;  -33.825;  271.000;  391.000
462.662;   44.825;  353.000;  380.000
462.782;  204.850;  833.000;  572.000
462.901;  404.825;  545.000;  717.000
463.021;  249.675; 1702.000; 1638.000
463.141;  -12.800;  337.000;  770.000
463.260;  -15.150;  614.000;  474.000
463.380;   15.475;  902.000;  884.000
463.499;  -45.475;  342.000;  332.000
463.619;  -26.325;  581.000;  559.000
463.738;  110.650; 1644.000;  903.000
463.858;   19.000;  657.000;  811.000
463.978;  -32.725;  542.000;  396.000
464.097;   54.050;  921.000; 1114.000
464.217;   92.775; 1196.000; 1143.000
464.336;  102.625; 1068.000; 1130.000
464.455;  -40.100;  328.000;  659.000
464.575;   54.075;  597.000;  602.000
464.694;  198.775; 1204.000; 1179.000
464.814;  114.725; 1190.000; 1138.000
464.933;   65.775; 1095.000; 1027.000
465.052;   99.800; 1412.000; 1054.000
465.172;   97.525;  922.000;  799.000
465.291;  152.275; 1376.000; 1320.000
465.410;    4.600;  462.000;  735.000
465.530;   84.725; 1355.000; 1310.000
465.649;   79.650; 1209.000; 1273.000
465.768;  134.975; 1673.000; 1508.000
465.888;   49.775;  941.000; 1174.000
466.007;   95.125; 1335.000; 1440.000
466.126;   -6.075;  721.000;  641.000
466.245;   33.500; 1176.000; 1187.000
466.364;   17.325;  950.000; 1060.000
466.484;   69.200; 1024.000; 1213.000
466.603;   33.050; 1101.000; 1222.000
466.722;  122.825; 1490.000; 1769.000
466.841;   75.925; 1151.000; 1401.000
466.960;   35.175; 1069.000;  972.000
467.079;  132.400; 1971.000; 1786.000
467.198;   52.675; 1238.000; 1181.000
467.317;   89.600; 1768.000; 1162.000
467.436;   64.450; 1709.000; 1261.000
467.555;  127.800; 1796.000; 1746.000
467.674;   63.500; 1227.000; 1329.000
467.793;   37.600; 1376.000; 1374.000
467.912;  101.325; 1658.000; 1539.000
468.031;  126.400; 2038.000; 1930.000
468.150;  154.625; 1842.000; 1837.000
468.269;  201.325; 2313.000; 2090.000
468.388;  195.400; 2168.000; 2339.000
468.507;  235.950; 2884.000; 2903.000
468.626;  239.850; 2555.000; 2541.000
468.744;  124.100; 2018.000; 2174.000
468.863;  204.400; 2312.000; 2523.000
468.982;   99.550; 1503.000; 1555.000
469.101;  223.950; 2788.000; 2692.000
469.220;  147.800; 2333.000; 2176.000
469.338;  260.975; 2935.000; 3051.000
469.457;  179.025; 2719.000; 2545.000
469.576;  331.650; 3953.000; 3784.000
469.695;  219.025; 2877.000; 3066.000
469.813;  430.725; 4148.000; 4192.000
469.932;  407.225; 4255.000; 4485.000
470.051;  400.825; 4075.000; 4161.000
470.169;  767.025; 4470.000; 4338.000
470.288; 1297.575; 4700.000; 4809.000
470.406;  797.300; 5059.000; 5194.000
470.525;  622.750; 6101.000; 5787.000
470.644;  638.900; 6847.000; 6794.000
470.762;  827.850; 8397.000; 7873.000
470.881;  888.050; 8651.000; 8464.000
470.999; 1030.825; 9685.000; 9151.000
471.118; 1089.675;11174.000;10711.000

