
Integration time [ms]: 100.000
Averaging Nr. [scans]: 40
Smoothing Nr. [pixels]: 0
Data measured with spectrometer [name]: 2101012U2
Wave   ;Sample   ;Dark     ;Reference
[nm]   ;[counts] ;[counts] ;[counts] 

197.733;   59.625;  516.000;  404.000
197.879;  -77.350; -610.000; -634.000
198.025;  -48.150; -475.000; -420.000
198.171;  -66.425; -602.000; -612.000
198.317;  -17.750; -401.000; -316.000
198.463;  -53.000; -655.000; -404.000
198.609;   29.675;  181.000; -137.000
198.755;  -90.700; -644.000; -410.000
198.901;  -52.625; -505.000; -424.000
199.047;  -61.875; -615.000; -488.000
199.193;  -24.025; -230.000; -468.000
199.339;  -47.925; -222.000; -369.000
199.485;   37.825;  330.000;  271.000
199.631;   12.325;  227.000;  310.000
199.777;  -48.350; -466.000; -398.000
199.923;  -59.300; -610.000; -424.000
200.069;    5.025; -141.000;  -58.000
200.215;   52.375;  128.000;  453.000
200.361;   25.400;  243.000;  477.000
200.507;  -39.175; -600.000; -373.000
200.653;  -14.675; -371.000; -194.000
200.798;  -41.875; -215.000; -125.000
200.944;   -3.700; -146.000;  -41.000
201.090;   21.775;   61.000;  222.000
201.236;    0.925; -116.000; -158.000
201.382;  113.925;  874.000;  903.000
201.528;   11.700;  -58.000;  -48.000
201.674;  -47.675; -386.000; -293.000
201.819;  -46.750; -540.000; -439.000
201.965;  -81.825; -699.000; -447.000
202.111;  -10.275; -273.000; -226.000
202.257;  -28.675; -250.000; -238.000
202.402;    5.725;   13.000;  -36.000
202.548;  -21.225; -169.000; -116.000
202.694;   89.800;  410.000; -183.000
202.840;  -68.225; -603.000; -531.000
202.985;  -78.325; -681.000; -639.000
203.131; -105.350; -832.000; -666.000
203.277;  -12.550; -199.000; -262.000
203.423;  -48.850; -434.000; -520.000
203.568;  -46.550; -462.000; -237.000
203.714;  -51.475; -535.000; -542.000
203.860;  -71.550; -682.000; -641.000
204.005;   11.300;  112.000;  167.000
204.151;   77.475;  561.000;  556.000
204.296;  -46.625; -354.000; -221.000
204.442;  -54.150; -600.000; -547.000
204.588;  -61.150; -592.000; -579.000
204.733;   24.475;  178.000;  168.000
204.879; -128.075;-1018.000; -822.000
205.025;   22.875;  -99.000;  126.000
205.170;   -3.800;  -17.000;   94.000
205.316;   95.700;  438.000;  661.000
205.461;  -69.350; -698.000; -554.000
205.607;   83.500;  609.000;  665.000
205.752;  -67.425; -626.000; -551.000
205.898;  -50.325; -501.000; -391.000
206.043;  -61.175; -578.000; -506.000
206.189;  -23.950; -243.000; -285.000
206.334;   83.625;  554.000;  606.000
206.480;   72.175;  409.000;  239.000
206.625;  -71.750; -529.000; -552.000
206.771;  -50.250; -451.000; -373.000
206.916;  -34.400; -210.000; -537.000
207.062;  -69.100; -545.000; -591.000
207.207;  -40.825; -546.000; -443.000
207.353;   63.800;  185.000;  460.000
207.498;   30.650;  196.000;   85.000
207.643;  -40.250; -501.000; -370.000
207.789; -126.250;-1069.000; -910.000
207.934;  -85.400; -665.000; -713.000
208.080;  -18.300; -154.000;   66.000
208.225;    2.025;  -22.000;  -57.000
208.370;  -69.700; -727.000; -619.000
208.516;  -59.075; -741.000; -487.000
208.661;  -16.350; -127.000;  -69.000
208.806;  -16.900; -165.000; -171.000
208.952; -116.850;-1044.000; -731.000
209.097;   86.325;  378.000;  349.000
209.242;  -51.500; -307.000; -382.000
209.387;   67.025;  392.000;  350.000
209.533;  -48.175; -321.000; -350.000
209.678;   77.300;  472.000;  543.000
209.823;  -35.575; -408.000; -310.000
209.969;  -96.325; -860.000; -757.000
210.114;  -89.500; -907.000; -719.000
210.259; -102.500; -939.000; -889.000
210.404;   -2.600; -171.000;  103.000
210.549;   30.150;  108.000;    3.000
210.695;    3.075;   -3.000;  -95.000
210.840;   31.975;   94.000;   67.000
210.985;  -58.375; -484.000; -303.000
211.130;   68.800;  268.000;  406.000
211.275;   18.475;  207.000;  199.000
211.420;  -39.525; -300.000; -289.000
211.566;  -73.425; -536.000; -489.000
211.711;   15.875;  218.000;  157.000
211.856;  -76.050; -545.000; -519.000
212.001;   23.100;  151.000;   44.000
212.146;   45.050;  153.000;   49.000
212.291;  -16.025; -210.000; -186.000
212.436;  -15.325; -280.000;   -6.000
212.581;  -71.825; -685.000; -653.000
212.726;  -63.525; -487.000; -538.000
212.871;  -31.900; -552.000; -217.000
213.016; -156.925;-1172.000;-1029.000
213.161;   69.850;  406.000;  291.000
213.306;  -67.925; -435.000; -577.000
213.451;  -89.525; -778.000; -689.000
213.596;  -42.150; -455.000; -347.000
213.741;  -41.900; -448.000; -538.000
213.886;  -60.450; -498.000; -517.000
214.031;  -19.975; -294.000; -124.000
214.176;  -37.100; -408.000; -341.000
214.321;  -12.375; -296.000; -157.000
214.466;  -24.275; -163.000;  -43.000
214.611;   -4.650;  -61.000;  -10.000
214.756; -118.050; -948.000; -858.000
214.901;  -25.700; -388.000; -226.000
215.046; -114.200; -797.000; -825.000
215.191;   26.575;  128.000;   35.000
215.336;  -11.750; -157.000;  -19.000
215.480;  -58.575; -684.000; -505.000
215.625;   -9.550; -175.000;  -19.000
215.770;  -71.925; -757.000; -662.000
215.915;    5.925;   -5.000;  -97.000
216.060;   -1.425; -113.000;  -21.000
216.205; -104.875; -731.000; -779.000
216.349;  -63.225; -470.000; -533.000
216.494; -126.500; -939.000; -867.000
216.639; -112.400; -823.000; -888.000
216.784;  -82.475; -577.000; -525.000
216.929;   44.125;  392.000;  281.000
217.073;   -0.600; -244.000;  -31.000
217.218;    4.425;   78.000;  -47.000
217.363;  -78.225; -656.000; -618.000
217.507;  -76.075; -623.000; -588.000
217.652; -122.425; -845.000; -874.000
217.797;  -73.400; -708.000; -659.000
217.942; -102.400; -856.000; -720.000
218.086;   75.925;  608.000;  539.000
218.231;  -10.375; -174.000;  -26.000
218.376;  -36.025; -337.000; -229.000
218.520;    6.025;  -41.000;   96.000
218.665;  -42.675; -338.000; -204.000
218.810;  -46.750; -275.000; -233.000
218.954;   21.625;  201.000;   35.000
219.099; -110.175; -713.000; -963.000
219.243;  -59.425; -589.000; -554.000
219.388;  -32.775; -264.000; -136.000
219.532;   -5.900; -116.000; -116.000
219.677;  -73.000; -564.000; -521.000
219.822;    7.725;   33.000;   89.000
219.966;    7.075;   17.000;  -99.000
220.111;  -41.275; -328.000;  -40.000
220.255;  -85.875; -797.000; -750.000
220.400;  -21.100; -180.000; -146.000
220.544;  -67.825; -516.000; -450.000
220.689;  -48.375; -422.000; -451.000
220.833;  -19.225; -123.000;  -58.000
220.978;  -34.925; -393.000; -563.000
221.122;    8.300;  319.000;  307.000
221.267;  -92.900; -906.000; -837.000
221.411;  -68.400; -478.000; -394.000
221.555;    9.825; -104.000;  -23.000
221.700;  -46.525; -329.000; -222.000
221.844;   32.700;  255.000;  272.000
221.989;  -46.950; -328.000; -311.000
222.133;  -38.450; -289.000; -307.000
222.277;   -7.875;    5.000;   78.000
222.422;   25.375;  227.000;  113.000
222.566;  -17.225; -381.000; -214.000
222.711;  -49.225; -414.000; -479.000
222.855;  -67.000; -643.000; -586.000
222.999;  -74.200; -642.000; -717.000
223.144;  -13.650; -195.000; -194.000
223.288;   42.925;  423.000;  251.000
223.432;   23.825;  184.000;  230.000
223.576;   19.375;  152.000;  -21.000
223.721;   38.075;  364.000;  273.000
223.865;  -52.050; -472.000; -475.000
224.009;  227.800; 1673.000; 1631.000
224.153;  -71.250; -660.000; -671.000
224.298;  -62.100; -531.000; -489.000
224.442;  -12.925;  -74.000;  -33.000
224.586;   -8.250; -169.000; -106.000
224.730; -101.475; -858.000; -670.000
224.875; -102.600; -739.000; -688.000
225.019;    4.300;  102.000;  188.000
225.163;   54.550;  208.000;  341.000
225.307;   20.025;   97.000;  -91.000
225.451;   46.600;  360.000;  481.000
225.595;   37.725;  264.000;  176.000
225.739;  -22.150; -170.000;  -94.000
225.884;   -0.450;   86.000;    5.000
226.028;  -76.050; -760.000; -626.000
226.172;  -39.975; -260.000; -273.000
226.316; -108.050; -941.000; -902.000
226.460;  -77.175; -645.000; -493.000
226.604;  -57.150; -406.000; -400.000
226.748;  -96.975; -836.000; -733.000
226.892;  -31.775; -227.000; -181.000
227.036;  -40.925; -537.000; -447.000
227.180;  -60.200; -551.000; -375.000
227.324;  -78.025; -561.000; -580.000
227.468; -104.675; -819.000; -717.000
227.612;   31.575;  242.000;  -28.000
227.756;  -95.675; -845.000; -698.000
227.900;   37.575;  342.000;  441.000
228.044;  -57.750; -509.000; -290.000
228.188;   51.300;  448.000;  568.000
228.332;  -84.200; -546.000; -472.000
228.476;  -28.075; -223.000; -149.000
228.620;  -28.725; -210.000; -150.000
228.764;   69.825;  431.000;  349.000
228.908;  -23.000; -155.000;   30.000
229.052;  -59.750; -615.000; -528.000
229.195;  -10.050; -172.000;   13.000
229.339;  -22.575; -235.000; -305.000
229.483;  -21.875;    5.000; -162.000
229.627;    1.475; -156.000;  139.000
229.771;  -55.050; -218.000; -294.000
229.915;   26.575;  230.000;   79.000
230.059;  -93.075; -648.000; -663.000
230.202;  -24.575; -370.000; -317.000
230.346;  -17.550; -107.000;  107.000
230.490;  -62.250; -489.000; -521.000
230.634; -100.925; -736.000; -553.000
230.777;   70.475;  478.000;  509.000
230.921;  -57.175; -450.000; -359.000
231.065;  -31.150; -246.000; -286.000
231.209;   17.400;  261.000;  265.000
231.352;   28.975;   54.000;   40.000
231.496;   19.150;  568.000;  188.000
231.640;  -72.675; -693.000; -621.000
231.783;   70.100;  546.000;  525.000
231.927;  -47.575; -294.000; -365.000
232.071; -108.750; -962.000; -736.000
232.214; -101.175; -980.000; -764.000
232.358;  -86.000; -683.000; -599.000
232.502;    6.275;  -19.000;    7.000
232.645; -130.450;-1090.000; -927.000
232.789;   -7.375; -257.000; -218.000
232.933;  -21.800; -407.000; -224.000
233.076; -117.850;-1038.000; -897.000
233.220; -113.025; -752.000; -777.000
233.363;  -80.525; -669.000; -477.000
233.507;   45.500;  371.000;  129.000
233.650;  -88.525; -764.000; -834.000
233.794;   41.575;  438.000;  461.000
233.938;  -58.375; -530.000; -362.000
234.081;  -20.200;  -93.000;   31.000
234.225;  -61.325; -631.000; -539.000
234.368;  -97.650; -773.000; -723.000
234.512;  -35.650; -385.000; -299.000
234.655;  -84.475; -582.000; -555.000
234.798;  -55.175; -493.000; -466.000
234.942; -119.350; -884.000;-1002.000
235.085;  -71.725; -651.000; -443.000
235.229;  -65.350; -405.000; -410.000
235.372;  -47.475; -247.000; -191.000
235.516;  -50.850; -397.000; -321.000
235.659;   16.575;   92.000;  121.000
235.802;  -14.850;  -38.000;  -22.000
235.946;   28.125;  335.000;  215.000
236.089;   33.100;  126.000;  250.000
236.233;   55.750;  275.000;  298.000
236.376;  -46.825; -235.000; -378.000
236.519;  -42.125; -297.000; -319.000
236.663;  -20.175; -215.000; -117.000
236.806; -133.900;-1029.000; -999.000
236.949;   34.875;  543.000;  431.000
237.092;   58.725;  412.000;  391.000
237.236;  -81.200; -589.000; -502.000
237.379;   65.550;  352.000;  428.000
237.522; -106.250; -879.000; -768.000
237.666;  -10.700; -271.000;   18.000
237.809; -123.075; -851.000; -823.000
237.952;   35.775;  469.000;  271.000
238.095;  -66.125; -447.000; -442.000
238.238;   87.400;  688.000;  700.000
238.382;   -2.600;  166.000;  103.000
238.525;  -53.775; -598.000; -511.000
238.668; -125.300;-1060.000; -985.000
238.811;  -69.925; -638.000; -643.000
238.954;  -49.050; -483.000; -334.000
239.097;   82.175;  617.000;  664.000
239.241;   12.400;  394.000;  326.000
239.384;  -39.800; -254.000; -214.000
239.527;  -66.725; -424.000; -224.000
239.670; -134.625; -994.000;-1091.000
239.813; -112.000; -696.000; -658.000
239.956;   73.725;  579.000;  473.000
240.099;  -96.175; -778.000; -725.000
240.242;   63.400;  428.000;  432.000
240.385;   34.175;  466.000;  450.000
240.528;  -75.175; -706.000; -473.000
240.671;   12.450;  189.000;  134.000
240.814;  -36.750; -441.000; -158.000
240.957;  -97.100; -767.000; -578.000
241.100;  -87.375; -779.000; -755.000
241.243; -134.300;-1234.000; -893.000
241.386;  -58.425; -508.000; -379.000
241.529;  -85.350; -735.000; -547.000
241.672;  -65.400; -566.000; -495.000
241.815;  -92.925; -832.000; -808.000
241.958;  -32.125; -125.000; -182.000
242.101;  -82.000; -545.000; -390.000
242.244;  -45.825; -270.000; -325.000
242.387;  -50.050; -304.000; -246.000
242.530;   59.050;  470.000;  134.000
242.673;  -36.125; -381.000; -309.000
242.815; -106.725; -925.000; -899.000
242.958;  -51.675; -482.000; -381.000
243.101;   15.650;  132.000;  187.000
243.244;  -79.275; -564.000; -521.000
243.387;  -39.250; -313.000; -316.000
243.530;  -94.525; -657.000; -674.000
243.672;    1.850;   43.000;  -92.000
243.815;  -52.025; -355.000; -283.000
243.958;   -7.275;   98.000;  -26.000
244.101;   -7.750;   59.000;  -16.000
244.243;    0.925;  -47.000;  101.000
244.386; -105.375; -761.000; -630.000
244.529;  -17.375; -132.000; -139.000
244.672; -153.050;-1154.000; -951.000
244.814;  -90.800; -621.000; -794.000
244.957;  -60.275; -380.000; -304.000
245.100;  -71.775; -489.000; -489.000
245.242;  -56.725; -387.000; -374.000
245.385;    6.500;  -59.000;  -39.000
245.528; -106.800; -871.000; -705.000
245.670;   85.600;  612.000;  634.000
245.813;  -71.325; -599.000; -547.000
245.956;  -21.925; -324.000; -275.000
246.098;  -69.050; -508.000; -650.000
246.241;    3.925;  194.000;   48.000
246.383;  -15.575; -119.000;  -73.000
246.526;  -67.625; -454.000; -525.000
246.669; -115.900; -889.000; -780.000
246.811;   20.025;  172.000;   -1.000
246.954;  -63.650; -512.000; -426.000
247.096;   -6.500;  -84.000;   -6.000
247.239;  -62.325; -482.000; -445.000
247.381;  -55.550; -647.000; -488.000
247.524;   72.925;  645.000;  679.000
247.666;   -1.625;   58.000;   11.000
247.809; -101.950; -887.000; -691.000
247.951;  -11.675;  -75.000;  138.000
248.094;   37.325;  432.000;  308.000
248.236; -145.875;-1262.000;-1238.000
248.378;   14.300; -356.000;  -81.000
248.521;  -13.725; -334.000; -337.000
248.663;  -32.850; -236.000; -267.000
248.806;  -21.775; -300.000; -266.000
248.948;  -93.600; -886.000; -763.000
249.090;  -42.925; -428.000; -398.000
249.233;  -43.925; -344.000; -381.000
249.375;  -59.400; -474.000; -451.000
249.518;  -26.925;  -83.000; -133.000
249.660;   -6.875; -103.000;    3.000
249.802; -168.150;-1303.000;-1189.000
249.945;  -63.250; -612.000; -540.000
250.087;  -94.650; -834.000; -768.000
250.229;  -53.300; -362.000; -480.000
250.371;  -64.275; -494.000; -439.000
250.514;  -44.300; -310.000; -244.000
250.656;  -19.200;   69.000;  102.000
250.798; -105.150; -849.000; -800.000
250.940;  -61.875; -322.000; -322.000
251.083;  -33.750; -335.000; -111.000
251.225;   51.375;  338.000;  310.000
251.367;  -35.075; -274.000; -373.000
251.509;  -40.700; -265.000; -210.000
251.651;  -93.100; -731.000; -671.000
251.794;   56.950;  538.000;  632.000
251.936;  -99.825; -821.000; -747.000
252.078;  -74.750; -540.000; -461.000
252.220;  -50.925; -645.000; -477.000
252.362;   92.275;  344.000;  462.000
252.504;  -66.950; -677.000; -584.000
252.646; -105.075; -875.000; -722.000
252.788;   -3.450;   14.000; -128.000
252.931;  -22.925; -257.000; -253.000
253.073;  -29.875; -376.000; -317.000
253.215;  -14.100;  141.000;  122.000
253.357;  -11.250;   82.000; -153.000
253.499;  -49.700; -374.000; -234.000
253.641;  -81.550; -749.000; -594.000
253.783;  -90.425; -609.000; -527.000
253.925;  -72.875; -586.000; -591.000
254.067; -108.350; -744.000; -667.000
254.209;  -18.400; -391.000; -259.000
254.351; -121.500; -865.000; -883.000
254.493;  -54.350; -441.000; -417.000
254.635; -121.725; -936.000; -818.000
254.777;  -75.225; -752.000; -687.000
254.918;  -58.300; -512.000; -430.000
255.060;  -51.575; -551.000; -395.000
255.202;  -54.825; -473.000; -261.000
255.344;  -72.925; -658.000; -455.000
255.486;  -66.375; -471.000; -406.000
255.628;  -99.250; -780.000; -781.000
255.770; -107.225; -676.000; -536.000
255.912;  -64.775; -559.000; -468.000
256.053;  -82.450; -730.000; -508.000
256.195;  150.150; 1008.000;  903.000
256.337;  -98.825; -861.000; -595.000
256.479;   55.275;  532.000;  416.000
256.621;  -54.550; -394.000; -212.000
256.762;  -94.300; -789.000; -742.000
256.904;   53.650;  485.000;  487.000
257.046;  -41.875; -381.000; -271.000
257.188;  -52.425; -351.000; -264.000
257.329;  -79.625; -525.000; -464.000
257.471; -113.450; -939.000; -807.000
257.613;  -52.500; -584.000; -498.000
257.755; -138.550;-1073.000; -982.000
257.896;   25.475;  286.000;  392.000
258.038;  -68.125; -403.000; -352.000
258.180;  -48.050; -354.000; -279.000
258.321;  -85.775; -581.000; -457.000
258.463;    1.075;  -71.000;  133.000
258.605;  -79.225; -562.000; -570.000
258.746;  -90.475; -886.000; -772.000
258.888; -140.125;-1026.000;-1020.000
259.029;   23.850;  121.000;   -8.000
259.171;  -88.075; -614.000; -550.000
259.313;    9.925;  -49.000;  -47.000
259.454;  -64.175; -536.000; -414.000
259.596;  -64.725; -483.000; -390.000
259.737;  -62.725; -590.000; -474.000
259.879;   28.575;  217.000;  311.000
260.020;   88.000;  901.000;  636.000
260.162;  -28.775; -146.000; -253.000
260.303; -111.550; -768.000; -687.000
260.445;  -86.275; -609.000; -613.000
260.586;   35.750;  392.000;  157.000
260.728;  -39.475; -360.000; -248.000
260.869; -108.550; -350.000; -343.000
261.011;   82.925;  706.000;  537.000
261.152;  -50.550; -479.000; -319.000
261.293;  -71.250; -576.000; -595.000
261.435;  -17.725; -219.000; -184.000
261.576;  -36.100; -455.000; -325.000
261.718;   41.950;  420.000;  470.000
261.859; -121.850; -940.000; -949.000
262.000; -131.125; -951.000;-1016.000
262.142;  -21.625;  -52.000;  -60.000
262.283; -107.425; -808.000; -691.000
262.424;  -95.700; -666.000; -625.000
262.566; -134.850;-1161.000; -983.000
262.707; -102.900; -840.000; -830.000
262.848; -125.925; -769.000; -726.000
262.990;  -44.700; -362.000; -345.000
263.131;   90.350;  650.000;  681.000
263.272;   -8.450;  -61.000;  -41.000
263.413;  -89.550; -589.000; -561.000
263.555;  -61.075; -669.000; -143.000
263.696;  -75.950; -550.000; -641.000
263.837;  -48.375; -449.000; -551.000
263.978;   -6.500;   -5.000;  -77.000
264.119;  -55.475; -283.000; -264.000
264.261; -102.800; -847.000; -630.000
264.402;    3.600;   33.000;   40.000
264.543;  -72.175; -509.000; -524.000
264.684;  -19.450;   61.000;  -50.000
264.825;  -78.475; -816.000; -538.000
264.966;    4.425;  -84.000;  -67.000
265.107; -107.600; -646.000; -670.000
265.248; -109.475; -825.000; -812.000
265.390;    3.650;  152.000;   -9.000
265.531;  -27.025; -238.000; -107.000
265.672;  -78.350; -557.000; -630.000
265.813;   53.575;  563.000;  439.000
265.954; -141.650; -959.000; -940.000
266.095;  -13.550; -372.000; -322.000
266.236; -105.225; -686.000; -548.000
266.377;  -29.125; -243.000; -297.000
266.518;  -58.175; -619.000; -547.000
266.659;   34.275;  170.000;  268.000
266.800;   14.575;   83.000;   85.000
266.941;  -68.125; -487.000; -478.000
267.082;   16.150;  354.000;   99.000
267.223;  -62.275; -344.000; -273.000
267.364; -107.850; -892.000; -686.000
267.504;   -7.350;    3.000;  135.000
267.645;   -3.525;  160.000;   67.000
267.786;  -36.600; -147.000;  -86.000
267.927;  -65.350; -473.000; -379.000
268.068;  -16.100; -186.000;  -61.000
268.209;  -37.225; -175.000; -413.000
268.350;  -57.950; -388.000; -532.000
268.490;  -84.950; -648.000; -521.000
268.631;   34.475;  127.000;  225.000
268.772; -100.300; -874.000; -647.000
268.913;  -54.575; -328.000; -476.000
269.054;  -23.500; -117.000;   12.000
269.194;  -45.250; -418.000; -402.000
269.335; -151.275;-1137.000;-1074.000
269.476;  -21.375;   33.000;  -35.000
269.617;  -44.150; -347.000; -392.000
269.757;  -79.550; -713.000; -646.000
269.898; -112.725; -856.000; -613.000
270.039;  -55.150; -415.000; -405.000
270.180; -118.550; -952.000; -816.000
270.320;  -30.300; -190.000; -250.000
270.461;  -39.650; -277.000; -249.000
270.602;  -14.350; -186.000; -156.000
270.742; -108.575; -868.000; -943.000
270.883;  -47.450; -442.000; -390.000
271.023;  -44.825; -358.000; -357.000
271.164;  -67.275; -607.000; -528.000
271.305;  -94.650; -666.000; -654.000
271.445;  -93.000; -722.000; -683.000
271.586;  -56.025; -462.000; -283.000
271.726;  -31.200; -397.000; -322.000
271.867;  -49.675; -594.000; -534.000
272.008;  209.725; -473.000; -285.000
272.148;  142.150;  462.000;  468.000
272.289;   18.200; -113.000; -181.000
272.429;   13.775;   19.000;  185.000
272.570;  -79.675; -633.000; -737.000
272.710;  -92.625; -825.000; -775.000
272.851;  -13.325;  113.000; -130.000
272.991; -160.325;-1173.000;-1077.000
273.131;  -63.850; -419.000; -459.000
273.272;  -87.775; -683.000; -723.000
273.412;    8.675; -143.000;  -31.000
273.553;  -48.675; -488.000; -507.000
273.693;  146.150;  913.000;  858.000
273.834;  -74.800; -894.000; -692.000
273.974;  -62.600; -664.000; -615.000
274.114;  -88.350; -772.000; -560.000
274.255;   68.300;  414.000;  373.000
274.395;   10.425; -180.000; -125.000
274.535;   47.175;  199.000;  350.000
274.676;   35.825;  225.000;   94.000
274.816;    8.850;  110.000;   34.000
274.956;  -69.100; -624.000; -690.000
275.097;  -56.950;-1014.000; -922.000
275.237;  -99.325; -913.000; -803.000
275.377;  -88.225; -778.000; -689.000
275.517; -146.625; -878.000; -937.000
275.658;  -49.475; -590.000; -555.000
275.798;  -57.500; -606.000; -413.000
275.938;   17.650;  215.000;  323.000
276.078; -103.575; -626.000; -395.000
276.218;   13.275;   99.000;  104.000
276.359; -116.925;-1026.000;-1024.000
276.499;  -67.450; -605.000; -446.000
276.639;  -20.600; -305.000; -151.000
276.779;  -38.975; -475.000; -357.000
276.919;  -98.250; -783.000; -624.000
277.059;  -21.225; -261.000; -212.000
277.199;  -38.725; -357.000; -259.000
277.340;   56.450;  287.000;  175.000
277.480; -109.750; -840.000; -693.000
277.620;   27.725;  192.000;   16.000
277.760; -180.950;-1533.000;-1294.000
277.900;   38.675;  113.000;   33.000
278.040;   14.800;  137.000;  159.000
278.180;   47.625;  270.000;  170.000
278.320;    5.700;   21.000;   56.000
278.460;  -57.425; -443.000; -469.000
278.600;  -92.350; -708.000; -598.000
278.740;   61.900;  448.000;  224.000
278.880;  -27.350; -768.000; -791.000
279.020;    6.925; -194.000; -144.000
279.160;  -75.075; -672.000; -595.000
279.300; -114.375; -926.000; -873.000
279.440;  -86.400; -709.000; -622.000
279.579;   -1.525;-1014.000; -929.000
279.719;  -42.650; -410.000; -394.000
279.859;   79.450;   -4.000;   41.000
279.999;   49.525; -208.000;  101.000
280.139;  -15.925; -435.000; -387.000
280.279;  -68.175; -708.000; -745.000
280.419;   -3.650; -229.000; -147.000
280.559;  -26.900; -259.000; -180.000
280.698;  -73.350; -790.000; -639.000
280.838;  -69.175; -778.000; -800.000
280.978;  -78.775; -846.000; -790.000
281.118; -108.050; -811.000; -704.000
281.257;   -0.175;   24.000;    6.000
281.397;  -93.150;-1094.000; -960.000
281.537;  -73.275; -599.000; -712.000
281.677;  -35.250; -150.000; -101.000
281.816;  -72.850; -700.000; -630.000
281.956;  -32.700; -193.000; -257.000
282.096;  -67.125; -539.000; -396.000
282.235;  -86.400; -672.000; -638.000
282.375;  -21.325; -243.000;  -98.000
282.515;  -82.750; -715.000; -707.000
282.654;   37.250;   29.000;  106.000
282.794;   35.250;  388.000;  244.000
282.934;  -28.900; -530.000; -491.000
283.073; -131.625;-1030.000; -857.000
283.213;  -45.025; -460.000; -467.000
283.353;  -30.450; -408.000; -349.000
283.492;  -25.675; -264.000; -296.000
283.632;  -28.650; -254.000; -168.000
283.771;  -86.075; -859.000; -730.000
283.911;  -51.300; -369.000; -260.000
284.050; -101.575; -794.000; -748.000
284.190; -148.125;-1229.000;-1096.000
284.329; -129.900;-1055.000; -964.000
284.469;  -53.050; -516.000; -591.000
284.608;  -48.125; -559.000; -598.000
284.748;  -85.550; -614.000; -570.000
284.887;    7.700;  -87.000;  -20.000
285.027; -105.950; -844.000; -892.000
285.166;  -25.525; -192.000; -249.000
285.306;    6.825; -116.000;  -33.000
285.445;  -33.125; -229.000; -343.000
285.584;  -82.550; -630.000; -494.000
285.724;  -43.800; -282.000; -322.000
285.863; -105.450; -857.000; -507.000
286.002;  -59.100; -366.000; -276.000
286.142; -104.150; -715.000; -622.000
286.281;  -51.275; -525.000; -493.000
286.420;  -76.775; -554.000; -417.000
286.560;  103.450;  653.000;  623.000
286.699; -131.250; -958.000; -912.000
286.838;  -77.075; -590.000; -591.000
286.978;  -79.000; -533.000; -537.000
287.117; -128.125;-1085.000; -950.000
287.256;  -37.575; -228.000; -211.000
287.395;  -36.200; -197.000; -378.000
287.535;  -43.250; -370.000; -298.000
287.674;  -79.500; -509.000; -484.000
287.813;   64.275;  661.000;  533.000
287.952; -111.200;-1010.000; -871.000
288.091; -141.700;-1049.000; -915.000
288.231;   22.475;   13.000;   15.000
288.370; -163.900;-1217.000;-1200.000
288.509;  -93.125; -728.000; -645.000
288.648;  -88.250; -770.000; -548.000
288.787;  -14.125; -243.000;  -87.000
288.926;  -54.750; -454.000; -475.000
289.065;  123.000;  859.000;  672.000
289.204;  -55.325; -377.000; -217.000
289.344;  -91.175; -791.000; -690.000
289.483;   37.450;  416.000;  304.000
289.622;   -8.050; -291.000; -149.000
289.761;  -15.100; -309.000; -166.000
289.900; -102.400; -785.000; -626.000
290.039;  -18.475;  -12.000;  -95.000
290.178;  -30.225; -274.000; -180.000
290.317;  -72.725; -618.000; -479.000
290.456;  -45.950; -463.000; -451.000
290.595; -107.050; -961.000; -833.000
290.734; -127.775; -904.000; -891.000
290.873;  -66.400; -456.000; -420.000
291.011; -106.200; -833.000; -843.000
291.150;  -84.675; -770.000; -682.000
291.289;  -20.650; -343.000; -110.000
291.428;  -88.325; -599.000; -480.000
291.567;  -41.225; -370.000; -442.000
291.706;  -10.900;  109.000;  154.000
291.845;  -69.275; -597.000; -505.000
291.984; -158.950;-1234.000;-1061.000
292.122;   72.800;  602.000;  582.000
292.261;   49.625;  620.000;  463.000
292.400;   17.825; -144.000;  211.000
292.539; -113.125; -959.000; -813.000
292.678;  -27.825; -325.000; -300.000
292.816; -151.900;-1136.000; -965.000
292.955;  -83.450; -844.000; -684.000
293.094;  -20.300; -173.000; -337.000
293.233;  -50.875; -556.000; -400.000
293.371;  -26.050; -225.000;  -84.000
293.510;  -96.575; -866.000; -780.000
293.649; -124.800; -959.000; -924.000
293.787;  -40.250;-1083.000;-1012.000
293.926;   -0.525; -113.000;  -32.000
294.065;  -32.300; -379.000; -290.000
294.203;   61.425;  298.000;  406.000
294.342;   28.100;   74.000;  156.000
294.481; 5442.100;51180.000; -836.000
294.619;  -25.200; -425.000; -582.000
294.758; -128.275;-1230.000;-1137.000
294.896;   80.700; -125.000;    5.000
295.035; -113.850;-1040.000;-1006.000
295.174; -113.800;-1082.000; -954.000
295.312;  -31.475; -323.000; -203.000
295.451;    2.275; -307.000; -428.000
295.589;  -36.050; -389.000; -518.000
295.728;   35.650; -292.000; -165.000
295.866;   21.700;  -36.000;  -51.000
296.005;  -60.675; -584.000; -341.000
296.143;  -52.850; -558.000; -596.000
296.282;  -91.525; -957.000; -881.000
296.420;  -85.025; -657.000; -557.000
296.559;  -75.925; -892.000; -633.000
296.697;   60.300; -847.000; -665.000
296.835;  127.500;-1141.000;-1002.000
296.974;   50.175;  -23.000;   39.000
297.112;   33.800; -443.000; -504.000
297.251;  -53.650; -815.000; -755.000
297.389;  129.025; -576.000; -438.000
297.527;   50.275; -145.000;  -83.000
297.666;  -31.475; -486.000; -438.000
297.804;  -54.000; -404.000; -264.000
297.942;  -14.950; -136.000; -161.000
298.081;    4.375; -183.000;   63.000
298.219;   91.075;  -17.000;  -19.000
298.357;   74.100; -144.000;  -71.000
298.495;   78.925; -810.000; -812.000
298.634;  104.425;  245.000;  219.000
298.772;   81.875; -220.000; -338.000
298.910;  -24.450; -309.000; -182.000
299.048;   -7.575; -130.000; -153.000
299.187;  -33.225; -350.000; -250.000
299.325;   28.925;   52.000;  122.000
299.463;  101.075; -389.000; -299.000
299.601;  152.025; -327.000; -271.000
299.739;  -87.350; -908.000; -883.000
299.877;  -68.075; -791.000; -703.000
300.016;  -31.825;-1095.000; -935.000
300.154;  200.050;  -19.000; -161.000
300.292;   74.275; -428.000; -348.000
300.430;   61.750; -408.000; -291.000
300.568;  -86.350; -940.000; -874.000
300.706;  -41.675; -366.000; -469.000
300.844;  -42.500;-1108.000; -979.000
300.982;  129.375;  246.000;  282.000
301.120; -104.525; -965.000; -866.000
301.258;  -58.525; -812.000; -705.000
301.396;   44.925;  104.000;  -41.000
301.534;  125.500; -218.000; -293.000
301.672;   29.875; -664.000; -521.000
301.810;   77.325; -613.000; -545.000
301.948;  170.500;   53.000;  149.000
302.086;  787.000; -250.000;  -32.000
302.224; 1164.275; -610.000; -585.000
302.362;   75.575; -558.000; -622.000
302.500;   12.975; -923.000; -893.000
302.638;  124.750;  128.000;  245.000
302.776;   12.150; -352.000; -408.000
302.913;   48.450;  447.000;  236.000
303.051;    6.025;  -86.000;  -23.000
303.189;   79.450;   90.000;  118.000
303.327;  -40.925; -341.000; -256.000
303.465;  -75.175; -832.000; -588.000
303.603;  -85.425; -805.000; -604.000
303.740;  133.800;  417.000;  241.000
303.878;   58.825; -800.000; -759.000
304.016;  -78.025; -915.000; -790.000
304.154; -121.625;-1123.000;-1152.000
304.291;   -8.125; -505.000; -554.000
304.429;   11.075;  102.000;   74.000
304.567; -112.925; -908.000; -893.000
304.705;  -43.275; -408.000; -515.000
304.842;  135.200; -616.000; -540.000
304.980;   59.075;  215.000;   35.000
305.118;   83.525; -367.000; -365.000
305.255;  -51.375; -945.000; -927.000
305.393;   75.075;  178.000;  239.000
305.531;  -88.050;-1173.000; -956.000
305.668;  -64.275; -663.000; -582.000
305.806;  151.300; -358.000; -439.000
305.943;  143.675; -629.000; -637.000
306.081;   80.050; -378.000; -267.000
306.219;  -98.050; -863.000; -748.000
306.356;   16.950;  158.000;   27.000
306.494;  116.900;  981.000;  761.000
306.631;   -8.950;  -11.000;  -55.000
306.769;   22.675; -613.000; -485.000
306.906;   -8.225; -284.000; -258.000
307.044;  -50.500; -473.000; -488.000
307.181;  -55.900; -410.000; -332.000
307.319;   11.250;  112.000;   87.000
307.456; -169.125;-1191.000;-1153.000
307.594;  -88.200; -980.000; -727.000
307.731;    0.075; -371.000; -164.000
307.868;   -5.675;  -15.000;   20.000
308.006; -120.025; -961.000; -847.000
308.143;  -43.500; -618.000; -330.000
308.281;  220.350;  -37.000; -254.000
308.418;   21.000; -748.000; -640.000
308.555;  -59.450; -400.000; -250.000
308.693;  -60.250; -577.000; -573.000
308.830;  -80.450; -712.000; -657.000
308.967;   -2.675; -215.000;  -95.000
309.105;  -36.050; -507.000; -396.000
309.242;   64.850; -468.000; -367.000
309.379;  422.500; -577.000; -655.000
309.517;  -23.900; -936.000; -948.000
309.654;  -96.375; -910.000; -734.000
309.791;  -56.025; -662.000; -580.000
309.928; -115.400; -977.000; -914.000
310.065;  191.450;  819.000;  697.000
310.203;   16.500; -825.000; -850.000
310.340;   14.725; -465.000; -321.000
310.477;  -55.700; -412.000; -516.000
310.614;  -69.550; -383.000; -473.000
310.751;  -68.300; -427.000; -518.000
310.889;  -10.850;    1.000;   11.000
311.026; -134.200;-1161.000; -939.000
311.163;  -55.425; -386.000; -380.000
311.300;  -66.150; -512.000; -479.000
311.437;  -63.225; -658.000; -619.000
311.574; -143.125;-1226.000; -985.000
311.711;  -40.400; -595.000; -433.000
311.848;  -34.275; -380.000; -388.000
311.985;    3.925;  270.000;   93.000
312.122; -113.375; -932.000; -762.000
312.259; -117.850; -941.000; -994.000
312.396;  -57.300; -508.000; -551.000
312.533;  -76.050; -812.000; -790.000
312.670; -111.750;-1070.000; -898.000
312.807;  -27.225; -352.000; -367.000
312.944;  -61.225; -513.000; -611.000
313.081;  -36.325; -150.000; -415.000
313.218;  -98.400;-1111.000; -867.000
313.355;   24.875; -531.000; -449.000
313.492;   27.625; -455.000; -292.000
313.629;  143.100;  815.000;  735.000
313.766; -135.100;-1176.000;-1008.000
313.902;  -10.200; -186.000;   21.000
314.039;  -45.025; -372.000; -289.000
314.176;   36.425;  286.000;  192.000
314.313;  -77.625; -569.000; -473.000
314.450;  -57.075; -788.000; -684.000
314.587;  -54.425; -468.000; -480.000
314.723;    7.300;  -78.000;  130.000
314.860;   31.575;  318.000;  332.000
314.997;   54.550;  223.000;  142.000
315.134;  -26.200; -385.000; -368.000
315.270;  -15.825; -480.000; -496.000
315.407; -118.300;-1094.000; -967.000
315.544;  -41.975; -657.000; -538.000
315.681;  -65.075; -681.000; -565.000
315.817;   38.575; -133.000; -176.000
315.954;   26.500; -613.000; -392.000
316.091;  -94.425;-1045.000;-1023.000
316.227;  -19.250;  -71.000; -179.000
316.364;    1.950;   23.000;    6.000
316.500;  -34.175; -113.000; -300.000
316.637;  -35.300; -181.000; -302.000
316.774;  -83.700; -625.000; -358.000
316.910;  -74.975; -598.000; -629.000
317.047;  -53.100; -487.000; -351.000
317.183;  -41.175; -435.000; -566.000
317.320;  -19.500; -367.000; -321.000
317.456;  -67.300; -733.000; -805.000
317.593;  -89.925; -598.000; -641.000
317.729;   -2.875;  168.000;  -67.000
317.866; -193.575;-1434.000;-1285.000
318.002;  -78.425; -708.000; -948.000
318.139;  -69.375; -883.000; -867.000
318.275;  -97.550;-1003.000; -738.000
318.412;  -49.625; -517.000; -336.000
318.548;   -7.575; -751.000; -720.000
318.685;  -89.475; -985.000; -888.000
318.821;  -83.975; -762.000; -735.000
318.957;  -19.700;   34.000;  -23.000
319.094;   38.600;  297.000;  154.000
319.230;  -39.100; -756.000; -742.000
319.367;  175.550; -471.000; -520.000
319.503;   78.625; -538.000; -436.000
319.639;  -75.350; -877.000; -793.000
319.775;  -43.625; -750.000; -685.000
319.912;  -41.850; -424.000; -519.000
320.048;  -68.975;-1184.000;-1184.000
320.184;   90.075;   59.000;   70.000
320.321;  -59.850; -497.000; -467.000
320.457;   56.800;  475.000;  662.000
320.593;  -53.625; -375.000; -382.000
320.729;  -97.625; -732.000; -734.000
320.866;  -76.850; -577.000; -635.000
321.002;  -79.750; -759.000; -809.000
321.138;   -6.075; -135.000; -211.000
321.274;   93.225; -148.000; -115.000
321.410;   -7.325; -585.000; -353.000
321.546;    6.600;-1011.000; -911.000
321.683;   77.950;  400.000;  185.000
321.819;   20.950;  -48.000; -117.000
321.955;  -97.500; -743.000; -722.000
322.091;  -41.025; -585.000; -540.000
322.227;   -7.850; -382.000; -202.000
322.363;  -12.350; -320.000; -215.000
322.499;  -32.300; -343.000; -331.000
322.635;  186.650;  636.000;  443.000
322.771;   39.800; -139.000;   12.000
322.907;   99.325;  129.000;  327.000
323.043;   -1.100; -115.000; -206.000
323.179;  -28.550; -394.000; -363.000
323.315;   58.725; -401.000; -371.000
323.451;  137.425; -328.000; -236.000
323.587;   70.625;  -60.000;  -77.000
323.723;   36.225; -682.000; -601.000
323.859;   -8.525; -258.000;  -76.000
323.995;  -26.725; -467.000; -409.000
324.131; -114.225; -967.000; -892.000
324.267;  -34.475; -254.000; -276.000
324.402; -110.600; -960.000; -983.000
324.538;   -2.375; -279.000; -104.000
324.674;   34.300;  164.000;   77.000
324.810;  170.775;  226.000;  308.000
324.946;   33.675; -810.000; -658.000
325.082;  -62.775; -568.000; -475.000
325.217;   -0.875;  -62.000;   16.000
325.353;  -86.050; -764.000; -659.000
325.489;  -80.150; -540.000; -506.000
325.625;  -62.950; -579.000; -525.000
325.760;   54.375;  517.000;  376.000
325.896;  -33.525; -515.000; -702.000
326.032;  -46.125; -403.000; -352.000
326.168;  -56.050; -462.000; -369.000
326.303;  -51.275; -352.000; -461.000
326.439;  -11.775; -336.000; -276.000
326.575;    4.500; -190.000;  -29.000
326.710;  -15.500; -156.000;  -30.000
326.846;   -6.475;  146.000;  103.000
326.982;  -84.000; -530.000; -548.000
327.117;  -60.775; -481.000; -442.000
327.253;  -78.200; -745.000; -742.000
327.388; -104.050;-1137.000;-1153.000
327.524;  -15.350; -811.000; -578.000
327.659;  -22.750;  -58.000;  -22.000
327.795;    2.275;   69.000;   45.000
327.931;  -77.775; -723.000; -499.000
328.066;  -13.875; -417.000; -276.000
328.202;   -4.325;   12.000; -129.000
328.337;  104.625;  957.000;  713.000
328.473;   26.400;  -12.000;  -74.000
328.608;  -30.475; -256.000; -267.000
328.743;  -70.100; -799.000; -664.000
328.879;   11.225;  214.000;  114.000
329.014;  -19.200; -102.000; -122.000
329.150;  -65.875; -358.000; -483.000
329.285;  -60.325; -465.000; -466.000
329.421;  -47.750; -548.000; -246.000
329.556;  -14.175;  -36.000;   85.000
329.691;  -87.625; -633.000; -615.000
329.827;  -80.125; -626.000; -480.000
329.962;  -38.050;  131.000; -301.000
330.097;  -84.250; -673.000; -585.000
330.233;  -37.875; -410.000; -223.000
330.368; -121.175; -839.000; -628.000
330.503;  -15.975;    3.000;   98.000
330.638;   19.975;  -93.000; -125.000
330.774;  -48.025; -609.000; -530.000
330.909;  -36.450; -434.000; -244.000
331.044;  -87.675; -714.000; -708.000
331.179; -173.175;-1217.000;-1109.000
331.315;   15.800;   77.000;   20.000
331.450;   15.050;  157.000;  285.000
331.585;  -84.450; -805.000; -706.000
331.720;  -81.250; -510.000; -460.000
331.855;    0.325;  -35.000; -102.000
331.990;  222.800;   62.000;  138.000
332.126;  130.675; -110.000;   71.000
332.261;  -15.525; -379.000; -265.000
332.396;    2.900; -135.000; -242.000
332.531;  -77.925;-1074.000;-1031.000
332.666;   47.050; -519.000; -363.000
332.801;  -84.150; -726.000; -807.000
332.936;   -7.875; -192.000; -122.000
333.071; -144.800; -870.000; -817.000
333.206;   22.550;  307.000;  379.000
333.341;   29.850;  344.000;  418.000
333.476;  -77.525; -627.000; -623.000
333.611;  -30.075; -251.000; -173.000
333.746;  -40.500; -381.000; -464.000
333.881; -109.150; -973.000; -935.000
334.016; -122.100; -936.000; -917.000
334.151; -100.225; -746.000; -702.000
334.286;   44.850;  152.000;  186.000
334.421;  -15.250; -125.000; -178.000
334.556;  -57.425; -611.000; -567.000
334.690;  -91.825; -631.000; -577.000
334.825;   64.975;  381.000;   83.000
334.960;  -41.775; -285.000; -413.000
335.095;    8.475;  135.000;  -91.000
335.230;  -89.375; -722.000; -738.000
335.365; -126.050;-1084.000; -990.000
335.499; -107.425;-1108.000;-1037.000
335.634;   23.575;    9.000;  534.000
335.769;  -74.875; -755.000; -720.000
335.904;  -50.600; -603.000; -561.000
336.038;  -40.625; -735.000; -657.000
336.173;  -79.550;-1206.000;-1194.000
336.308;   22.050; -116.000; -189.000
336.443;   28.225; -544.000; -634.000
336.577;  -56.250; -936.000; -787.000
336.712;   69.850;   -4.000;  -12.000
336.847;  -13.700; -724.000; -607.000
336.981;  103.425; -272.000; -208.000
337.116;  333.300;  615.000;  501.000
337.250;  207.150; -434.000; -421.000
337.385;  244.875; -297.000; -208.000
337.520;   71.650; -632.000; -603.000
337.654;  -27.450; -215.000; -126.000
337.789; -105.025; -989.000; -933.000
337.923;  -29.975; -104.000; -205.000
338.058;  -75.450; -673.000; -738.000
338.192;  -11.075; -611.000; -488.000
338.327;    2.725;  -18.000; -155.000
338.461;  -42.225; -299.000; -469.000
338.596;  -76.400; -780.000; -638.000
338.730;  -94.850; -767.000; -803.000
338.865;   86.625;  -46.000; -140.000
338.999;  -42.775; -846.000; -702.000
339.134;  -25.625; -634.000; -536.000
339.268;   15.375; -741.000; -603.000
339.403;  379.150; -740.000; -775.000
339.537;  101.075; -894.000; -820.000
339.671; -108.800; -829.000; -813.000
339.806;  -53.150; -556.000; -512.000
339.940;   23.175; -261.000; -235.000
340.074; -102.975; -685.000; -510.000
340.209;  -35.800; -351.000; -230.000
340.343;  -79.075; -517.000; -573.000
340.477;  147.350;  998.000; 1036.000
340.612;  -54.675;-1033.000; -900.000
340.746;  143.200; -199.000; -243.000
340.880;  -49.350; -924.000; -785.000
341.014;  -14.200;  -45.000; -154.000
341.149; -104.175; -756.000; -718.000
341.283;  -90.800; -839.000; -754.000
341.417;  -71.300;-1124.000; -938.000
341.551;  190.075; -768.000; -708.000
341.685;   -7.500; -633.000; -611.000
341.820;  -47.650; -562.000; -493.000
341.954;  -36.600; -218.000; -349.000
342.088; -146.775;-1102.000;-1019.000
342.222;   52.825;  565.000;  618.000
342.356;  -42.275; -395.000; -335.000
342.490;  -88.175; -880.000; -841.000
342.624;  -22.925; -339.000; -242.000
342.758;   24.375; -364.000; -312.000
342.892;  -52.550; -710.000; -585.000
343.026;  -32.850;  -58.000; -116.000
343.160;  -67.100; -426.000; -376.000
343.294;  -62.725; -474.000; -337.000
343.428;   -4.375; -488.000; -448.000
343.562;   -2.200; -172.000;  -23.000
343.696;  -11.275; -385.000; -314.000
343.830;   11.775; -362.000; -356.000
343.964;   36.325; -231.000; -168.000
344.098; 1127.750;  199.000;   70.000
344.232;  927.850; -266.000; -127.000
344.366;  118.275; -567.000; -453.000
344.500;  111.800; -665.000; -744.000
344.634;   66.075; -324.000; -164.000
344.768;   17.950; -531.000; -341.000
344.902;   27.700;  278.000;  256.000
345.035;  -72.125; -556.000; -496.000
345.169; -122.350; -933.000; -656.000
345.303;   -7.575; -308.000; -482.000
345.437;  -52.775; -826.000; -717.000
345.571;  -74.900; -675.000; -594.000
345.704;  -51.225; -309.000; -532.000
345.838;  -17.125; -331.000; -284.000
345.972;  -11.450; -543.000; -495.000
346.106;  177.775; -179.000; -190.000
346.239;  445.050; -312.000; -243.000
346.373;   26.825; -343.000; -302.000
346.507; -137.675; -950.000; -962.000
346.640;  177.000;  -30.000;   13.000
346.774;  -21.125; -650.000; -797.000
346.908;  -12.775; -138.000;  -11.000
347.041;  -74.750; -646.000; -593.000
347.175;   14.875;  259.000;   27.000
347.309;  -53.325; -698.000; -628.000
347.442;  -85.500; -883.000; -732.000
347.576;  318.050;  670.000;  668.000
347.709;  241.275; -123.000;  -52.000
347.843;  -69.675; -933.000; -825.000
347.976;   47.800;  235.000;  294.000
348.110; -170.675;-1268.000;-1186.000
348.243;  -96.075; -679.000; -772.000
348.377;   15.075;  -26.000;   60.000
348.510;   53.650;  403.000;  540.000
348.644;  -14.275;  -37.000; -159.000
348.777;   -2.600;  180.000;  191.000
348.911;  -45.025; -142.000; -112.000
349.044;  198.300;  471.000;  448.000
349.178;  223.350;-1069.000;-1006.000
349.311;  119.175;  141.000;  255.000
349.444;    2.175; -927.000; -813.000
349.578;  -11.150; -347.000; -200.000
349.711;  -74.825; -959.000; -862.000
349.845;   32.250; -661.000; -591.000
349.978; -124.125;-1224.000;-1137.000
350.111;  -83.600; -546.000; -612.000
350.244;  -67.225; -596.000; -700.000
350.378;   22.700; -392.000; -393.000
350.511;  -68.050; -393.000; -426.000
350.644; -105.900; -808.000; -806.000
350.778;   14.600;  168.000;  104.000
350.911;   14.450;  134.000;  140.000
351.044;  -84.775; -685.000; -615.000
351.177;  -20.650; -321.000; -281.000
351.310;   -6.200;    3.000; -131.000
351.444;  -54.875; -888.000; -788.000
351.577;  151.475;  140.000;   90.000
351.710;  113.575;  593.000;  417.000
351.843;  -25.100; -165.000;  -77.000
351.976;    9.975;  149.000;  -79.000
352.109;  -69.425; -621.000; -612.000
352.242;   -6.900; -464.000; -419.000
352.376;  -46.050; -580.000; -636.000
352.509;  248.750; -437.000; -356.000
352.642;   73.375; -654.000; -604.000
352.775;   88.625; -141.000;  -98.000
352.908; -113.150; -933.000; -904.000
353.041;  -88.625; -814.000; -824.000
353.174;  -42.500; -551.000; -424.000
353.307;  -61.525; -753.000; -764.000
353.440;   94.275;  541.000;  453.000
353.573;  -92.925; -957.000;-1008.000
353.706;  -38.775; -384.000; -558.000
353.839;   -6.850; -264.000; -220.000
353.971;  -84.400; -657.000; -512.000
354.104;  -62.950; -896.000; -835.000
354.237;  -17.325; -627.000; -662.000
354.370;  -66.750; -846.000; -879.000
354.503; -179.150;-1231.000;-1308.000
354.636;  -19.575; -529.000; -348.000
354.769; -105.400; -937.000; -860.000
354.902;   -2.950; -230.000; -139.000
355.034;   -9.425; -164.000; -220.000
355.167;   -4.700; -262.000; -162.000
355.300;  -75.550;-1061.000; -880.000
355.433;  947.325;  -71.000;  -14.000
355.565; 1477.250; -402.000; -384.000
355.698;  375.725; -356.000; -296.000
355.831;   31.125; -882.000; -801.000
355.964;  107.300; -285.000; -170.000
356.096;  -60.200; -856.000; -843.000
356.229;   26.675; -523.000; -530.000
356.362;  316.675; -373.000; -266.000
356.494;  589.025; -229.000; -162.000
356.627;  572.875;  269.000;  377.000
356.760;  660.975;  120.000;   53.000
356.892;  934.650; -286.000; -601.000
357.025;  768.875;  403.000;  389.000
357.157;  767.350; -167.000; -179.000
357.290;  615.600; -856.000; -713.000
357.423;  201.875; -667.000; -556.000
357.555;  153.100; -217.000; -228.000
357.688;  157.225; -483.000; -364.000
357.820;  580.500; -870.000; -877.000
357.953; 4247.125; -563.000; -589.000
358.085; 1001.900; -632.000; -612.000
358.218; 1544.875;-1131.000; -932.000
358.350;  289.250;  -58.000;  312.000
358.483;  -96.625;-1300.000;-1187.000
358.615;   38.025;-1182.000;-1078.000
358.747;  -10.275;-1187.000;-1058.000
358.880;   69.600; -810.000; -744.000
359.012;   10.350; -376.000; -202.000
359.145;  -23.500; -480.000; -511.000
359.277;  121.350; -962.000; -913.000
359.409; 3510.225;  536.000;  231.000
359.542;  987.825; -738.000; -688.000
359.674;  106.450;   46.000;   13.000
359.806;  -65.450; -565.000; -438.000
359.939;  -44.300; -617.000; -516.000
360.071;   -6.300; -583.000; -579.000
360.203;   -5.500; -411.000; -364.000
360.335;   63.775;  164.000;  -16.000
360.468;  237.550; -249.000; -307.000
360.600; 2789.100; -547.000; -454.000
360.732; 2704.275; -546.000; -423.000
360.864;  405.900;-1216.000;-1044.000
360.996;  363.525; -516.000; -554.000
361.129;   77.400; -389.000; -598.000
361.261;   38.975;  110.000; -113.000
361.393;  -30.600; -252.000; -214.000
361.525;   29.250;   94.000;  244.000
361.657;  -10.150; -821.000; -703.000
361.789;   22.025; -139.000; -155.000
361.921;  325.500; -642.000; -593.000
362.053;  324.625;  524.000;  541.000
362.185;   71.675;  288.000;   72.000
362.318;  -61.225; -709.000; -705.000
362.450;  147.650;  294.000;  444.000
362.582;  204.050; -913.000; -870.000
362.714;  -29.000; -353.000; -332.000
362.846;  -62.675; -606.000; -490.000
362.978; -121.425; -941.000; -811.000
363.109;   74.300; -161.000; -260.000
363.241;  574.350; -739.000; -749.000
363.373;  449.850; -649.000; -564.000
363.505;  630.575; -186.000;  -91.000
363.637;  170.400; -787.000; -601.000
363.769; -110.975;-1067.000;-1080.000
363.901;  -54.625; -596.000; -654.000
364.033;  -90.950;-1103.000;-1062.000
364.165;   16.375; -283.000; -283.000
364.296;   82.550; -316.000; -177.000
364.428;   76.050;-1344.000;-1220.000
364.560;  -64.350; -679.000; -661.000
364.692;  -50.225; -738.000; -835.000
364.824;  372.775; -588.000; -456.000
364.955;  475.175; -402.000; -564.000
365.087;  833.975;-1097.000; -852.000
365.219;   36.825; -686.000; -816.000
365.351;  -52.300; -526.000; -572.000
365.482;   77.675;  300.000;  240.000
365.614;  -29.050; -402.000; -314.000
365.746;  -84.175; -729.000; -752.000
365.877;  -93.000; -706.000; -672.000
366.009;  249.150;  -35.000;  -62.000
366.141;  -87.200;-1249.000;-1134.000
366.272;  -85.775; -803.000; -719.000
366.404; -100.000;-1005.000; -874.000
366.535;   -5.050; -139.000;  -12.000
366.667;  -93.000; -644.000; -649.000
366.799;   36.750;  353.000;  203.000
366.930; -113.475; -862.000; -996.000
367.062;  131.600; -639.000; -613.000
367.193;  150.250; -872.000; -842.000
367.325;  -61.000; -580.000; -684.000
367.456;   80.050; -246.000;   31.000
367.588;  165.625; -371.000; -318.000
367.719;   22.850;  -44.000;  -45.000
367.851;   -4.275; -222.000; -241.000
367.982;  -27.075; -875.000; -732.000
368.113;  142.850; -475.000; -358.000
368.245;  -96.700; -960.000; -841.000
368.376;  -16.300; -254.000; -302.000
368.508;  -11.550; -188.000; -263.000
368.639; -107.125;-1166.000;-1034.000
368.770;   13.700; -670.000; -589.000
368.902;  -25.900; -836.000; -926.000
369.033;  -97.850; -906.000; -855.000
369.164;  -45.825; -720.000; -653.000
369.296;  -91.875; -452.000; -601.000
369.427;    4.500; -209.000; -144.000
369.558;  -39.650; -593.000; -377.000
369.689;  -66.600; -721.000; -569.000
369.821; -128.700; -951.000; -845.000
369.952;  -16.550;   42.000; -108.000
370.083;  -46.275; -229.000; -108.000
370.214;  -69.925; -735.000; -650.000
370.345;    6.475;   65.000;   81.000
370.477;  -67.275; -810.000; -790.000
370.608;  305.725; -328.000; -264.000
370.739;   -3.675;-1233.000;-1292.000
370.870;   -4.475;-1102.000; -923.000
371.001;  130.650; -378.000; -467.000
371.132;  -62.650; -754.000; -735.000
371.263;  -10.825;  -42.000; -148.000
371.394; -128.425; -841.000; -748.000
371.525;   34.125;  345.000;  225.000
371.657;  -65.475; -808.000; -670.000
371.788;   83.200;  103.000;  199.000
371.919;  229.300; -384.000; -304.000
372.050; 4298.275;  -91.000; -156.000
372.181; 1339.800; -188.000; -294.000
372.311;  483.750;   42.000; -127.000
372.442;   76.950; -457.000; -451.000
372.573;   -2.475; -444.000; -340.000
372.704; -107.575;-1008.000; -980.000
372.835;  122.750; -228.000; -289.000
372.966;  -34.150; -646.000; -554.000
373.097;  -54.275; -575.000; -711.000
373.228;  -13.450; -717.000; -542.000
373.359;  188.100; -824.000; -536.000
373.490; 1152.425; -881.000; -727.000
373.620; 1504.550;-1001.000; -803.000
373.751; 2217.275; -332.000; -396.000
373.882; 1043.025; -663.000; -733.000
374.013;  104.050; -449.000; -262.000
374.143;   -9.300; -581.000; -659.000
374.274;  -96.200; -987.000; -908.000
374.405;  218.825; -388.000; -276.000
374.536;  565.525; -526.000; -387.000
374.666; 1437.875; -759.000; -807.000
374.797;  307.700; -817.000; -868.000
374.928; 1116.700; -710.000; -560.000
375.058; 1152.775; -535.000; -500.000
375.189;  121.900;  -59.000;  -93.000
375.320;  -82.050; -928.000;-1034.000
375.450;   -8.125; -625.000; -616.000
375.581;  -35.100; -526.000; -436.000
375.712;   -3.300; -574.000; -250.000
375.842;  409.600; -438.000; -415.000
375.973;  307.200; -554.000; -513.000
376.103;   -5.525; -665.000; -648.000
376.234;  -70.500; -531.000; -552.000
376.364;   -9.575; -944.000; -867.000
376.495;  371.250;  925.000;  529.000
376.625;   41.200; -472.000; -485.000
376.756;  117.600; -709.000; -678.000
376.886;  -41.725;-1178.000;-1026.000
377.017;   46.175;-1048.000;-1061.000
377.147;  325.850; -786.000; -782.000
377.278;   66.375;  174.000;  228.000
377.408; -121.550; -801.000; -815.000
377.538;  -96.725; -707.000; -693.000
377.669;  -71.050; -537.000; -613.000
377.799;  -61.675; -645.000; -635.000
377.929;  -44.675; -610.000; -428.000
378.060;  -96.800; -781.000; -847.000
378.190;  -59.575; -726.000; -531.000
378.320;  -33.250; -401.000; -406.000
378.451;  -15.825; -131.000;  -22.000
378.581;    2.250;  -67.000; -110.000
378.711;  164.350; 1035.000;  866.000
378.841;   -2.100; -533.000; -675.000
378.972;  -46.550; -871.000; -751.000
379.102;   18.400; -652.000; -579.000
379.232;    0.850; -126.000;  -73.000
379.362;  -78.825;-1001.000; -885.000
379.492;   55.925; -373.000; -424.000
379.623;  145.875;    0.000;  111.000
379.753;  -82.650;-1107.000; -974.000
379.883;  253.425;   59.000;  156.000
380.013;   60.875;-1081.000;-1017.000
380.143;  -81.550;-1097.000;-1056.000
380.273;  -74.550; -985.000; -861.000
380.403;   15.575; -344.000; -257.000
380.533;    9.850; -651.000; -664.000
380.663;   92.775;  173.000;  128.000
380.793;  -55.975;-1027.000;-1074.000
380.923;   -2.800; -103.000;  -34.000
381.053;  -79.075; -613.000; -623.000
381.183;  -13.475; -106.000; -248.000
381.313;   62.400; -656.000; -470.000
381.443;   75.825; -692.000; -473.000
381.573;  266.325; -402.000; -409.000
381.703;  428.275;-1249.000;-1095.000
381.833;  -93.875;-1454.000;-1336.000
381.963;  152.000; -134.000;  -87.000
382.093; 1667.275; -925.000; -909.000
382.223;  564.725; -713.000; -602.000
382.353;   28.500; -801.000; -608.000
382.482;  495.425;-1091.000; -964.000
382.612;  954.450; -872.000; -644.000
382.742;  585.950; -695.000; -622.000
382.872;  373.675; -565.000; -551.000
383.002;   82.350;  347.000; -132.000
383.131;   -5.400; -226.000; -160.000
383.261;  -20.200; -706.000; -768.000
383.391;  328.625; -552.000; -377.000
383.521; 2980.625;  451.000;  263.000
383.650;  739.525; -947.000; -904.000
383.780;  -13.500; -783.000; -656.000
383.910;  130.925;  880.000;  802.000
384.039;   66.200; -794.000; -656.000
384.169;  331.575;-1205.000;-1017.000
384.299;   18.150; -650.000; -662.000
384.428;  -73.225; -764.000; -680.000
384.558;  -25.775; -308.000; -275.000
384.687;  -28.425; -414.000; -334.000
384.817;   30.125;   75.000;   -2.000
384.947;   43.425; -234.000; -141.000
385.076;  347.550;  982.000;  912.000
385.206;  131.175;  369.000;  480.000
385.335;  -14.800; -549.000; -417.000
385.465;  -56.650; -655.000; -663.000
385.594;  182.800;  -53.000;  -44.000
385.724;  582.175; -868.000; -838.000
385.853;  179.250; -296.000; -270.000
385.982; 1664.175; -743.000; -787.000
386.112; 2709.375;-1052.000; -871.000
386.241;  214.500; -307.000; -312.000
386.371;   49.625; -174.000;  -87.000
386.500;   38.550; -825.000; -789.000
386.629;   63.725; -874.000; -817.000
386.759;   80.525;  -43.000;   68.000
386.888;   17.375; -170.000; -250.000
387.017;  -50.700; -648.000; -620.000
387.147;  -61.975; -771.000; -798.000
387.276;   22.050; -410.000; -397.000
387.405;   40.350; -398.000; -342.000
387.535;  -29.300; -452.000; -361.000
387.664;  -37.700; -692.000; -620.000
387.793;   82.025; -198.000; -113.000
387.922;  647.125;  255.000;  200.000
388.052;   85.625; -576.000; -423.000
388.181;   48.575; -342.000; -472.000
388.310;   65.775; -889.000; -710.000
388.439;   17.325; -749.000; -742.000
388.568;  244.100;  365.000;  244.000
388.697; 1343.900; -756.000; -653.000
388.826;  311.400; -768.000; -666.000
388.956;   89.300; -285.000; -307.000
389.085;   -8.175; -347.000; -287.000
389.214; -100.300; -842.000; -872.000
389.343;  -56.100; -645.000; -413.000
389.472;  395.675;  126.000;  149.000
389.601;  558.975;   91.000;    0.000
389.730;   57.475; -568.000; -687.000
389.859;   94.750;  226.000;   46.000
389.988;  254.350; -423.000; -408.000
390.117;  188.050; -168.000; -146.000
390.246;   14.300; -331.000; -320.000
390.375;  171.050; -673.000; -626.000
390.504;  -36.350; -703.000; -621.000
390.633;  -93.300; -672.000; -726.000
390.761;  -38.725; -732.000; -645.000
390.890;   42.500;   -4.000; -130.000
391.019;   -8.550; -421.000; -441.000
391.148; -102.275; -826.000; -855.000
391.277;  -56.100; -576.000; -493.000
391.406;  -59.500; -821.000; -805.000
391.534;   27.325;  574.000; -301.000
391.663;  -44.050; -583.000; -645.000
391.792;  -66.150; -673.000; -701.000
391.921;  124.700;   -3.000;   15.000
392.050;  264.400; -287.000; -228.000
392.178;   12.575;-1206.000;-1061.000
392.307;  218.250; -758.000; -712.000
392.436;  121.550; -427.000; -641.000
392.564;   44.175;  166.000;   -6.000
392.693;  -70.700; -860.000; -682.000
392.822;  289.025; -529.000; -534.000
392.950;  153.150; -880.000; -714.000
393.079;  423.800; -188.000; -328.000
393.208;   68.675; -488.000; -511.000
393.336;   -5.200; -170.000; -145.000
393.465;  -31.875; -317.000; -199.000
393.593;   13.425;   62.000;   79.000
393.722; -139.925;-1121.000; -916.000
393.850;  -20.300; -188.000;  -61.000
393.979; -143.975; -926.000; -805.000
394.107;  -54.450; -517.000; -537.000
394.236;    0.175; -570.000; -507.000
394.364;  265.200;  383.000;  206.000
394.493;  493.225; -911.000; -767.000
394.621;   21.250; -955.000; -916.000
394.750;  664.750; -873.000; -923.000
394.878; 2813.150; -247.000; -149.000
395.007; 3917.300; -721.000; -807.000
395.135;  316.800; -790.000; -721.000
395.263;  -73.425;-1038.000;-1040.000
395.392;   15.350;  -25.000; -107.000
395.520; -124.975; -818.000; -679.000
395.648;  -78.325; -865.000; -915.000
395.777;    7.650; -366.000; -405.000
395.905;  -36.800; -449.000; -564.000
396.033;   15.975;  217.000;  172.000
396.162;  748.150; -399.000; -453.000
396.290;  688.500;  -17.000;   -2.000
396.418;  154.700; -555.000; -514.000
396.546;  -44.950; -571.000; -466.000
396.674;  -71.925; -850.000; -878.000
396.803;   31.975;  -72.000;  -23.000
396.931;  133.275; -179.000; -199.000
397.059;  129.850;-1026.000; -989.000
397.187;  -97.275;-1026.000; -975.000
397.315; -117.750; -884.000; -649.000
397.443;  -73.975; -592.000; -443.000
397.572;  -83.675; -578.000; -424.000
397.700;   28.425; -607.000; -614.000
397.828;   46.475;  120.000;  -90.000
397.956;  -36.600; -508.000; -478.000
398.084;  -55.450; -767.000; -626.000
398.212;   42.500;  137.000;  124.000
398.340;   26.750;  -56.000;  159.000
398.468;   60.050; -390.000; -169.000
398.596; -120.075; -993.000; -953.000
398.724; -115.575; -762.000; -767.000
398.852; -162.275;-1024.000; -976.000
398.980;  -56.300; -560.000; -560.000
399.108;  -35.775; -982.000; -735.000
399.236;   65.525;   13.000;    8.000
399.363;   21.275;  222.000;  196.000
399.491;  -69.375; -404.000; -398.000
399.619; -121.350; -829.000; -800.000
399.747;  -75.325; -859.000; -771.000
399.875;   91.200;  220.000;  234.000
400.003;  -43.700; -359.000; -284.000
400.130;  -88.100; -421.000; -341.000
400.258;  -19.875;  -83.000;   38.000
400.386;  -62.225; -352.000; -168.000
400.514;  -26.225; -526.000; -587.000
400.641;  -72.275; -928.000; -802.000
400.769; -124.775; -979.000; -888.000
400.897;  -98.450; -838.000; -793.000
401.025;    8.525; -166.000; -152.000
401.152;   -0.825;  220.000;   38.000
401.280;  -65.750; -430.000; -429.000
401.408; -110.950; -712.000; -576.000
401.535;  -93.375; -735.000; -758.000
401.663; -177.350;-1134.000;-1054.000
401.790;  -77.025; -514.000; -525.000
401.918;   55.275;  436.000;  405.000
402.046;  -13.200;  134.000;  122.000
402.173;  -20.550;  -18.000;    7.000
402.301;  -69.400; -519.000; -397.000
402.428;   38.900;  528.000;  383.000
402.556; -127.450;-1188.000; -913.000
402.683;  -33.300;  -20.000;   -1.000
402.811;   -9.700;  -37.000; -206.000
402.938;   -1.000;   20.000;   27.000
403.066;  256.075; -574.000; -558.000
403.193;  425.600;  299.000;  239.000
403.321;  343.125; -396.000; -574.000
403.448;  406.625;   83.000;   27.000
403.575;  200.850;  -90.000;  -46.000
403.703;  -81.900; -732.000; -557.000
403.830;  -52.700; -531.000; -496.000
403.957; -129.075;-1117.000;-1023.000
404.085;   21.450;  -61.000; -172.000
404.212;  127.400;  -50.000;   63.000
404.339;  255.700; -566.000; -306.000
404.467; 5432.425; -612.000; -524.000
404.594; 4014.025; -287.000; -227.000
404.721; 1063.975; -869.000; -764.000
404.848;  115.250; -113.000; -202.000
404.976;  -76.250; -856.000; -783.000
405.103;   -9.825;  -14.000;  -82.000
405.230;  -17.375;  190.000;  226.000
405.357;   31.450;  117.000;   44.000
405.484;  253.825;  -49.000;    5.000
405.612;   56.400; -548.000; -563.000
405.739;  -61.425; -488.000; -243.000
405.866;   97.275;  669.000;  385.000
405.993;  -37.025; -398.000; -102.000
406.120; -122.275; -801.000; -887.000
406.247;  -42.725; -323.000; -342.000
406.374;  547.850;  540.000;  629.000
406.501;  189.300; -632.000; -702.000
406.628;  -69.475; -621.000; -589.000
406.755;  -81.900; -803.000; -620.000
406.882;  -25.600; -228.000; -277.000
407.009;  -96.625; -719.000; -628.000
407.136;   78.875; -480.000; -401.000
407.263;  231.350; -939.000; -829.000
407.390;  -47.925; -692.000; -614.000
407.517; -145.900;-1139.000;-1187.000
407.644;  -41.975; -332.000; -256.000
407.771;  -47.600; -249.000; -287.000
407.898;   11.950;  168.000;  328.000
408.025;  -49.400; -421.000; -313.000
408.151;   -2.400;   82.000;  153.000
408.278;  -73.025; -267.000; -216.000
408.405;  -98.625; -931.000; -899.000
408.532;  -58.800; -549.000; -542.000
408.659; -103.950; -677.000; -648.000
408.785; -180.850;-1298.000;-1170.000
408.912;  -61.700; -412.000; -296.000
409.039; -110.175; -610.000; -686.000
409.166;  -90.125; -591.000; -555.000
409.292; -104.050; -571.000; -534.000
409.419; -112.050; -665.000; -649.000
409.546;  -76.475; -431.000; -192.000
409.672;  -97.250; -713.000; -545.000
409.799;  -22.575;  -36.000;   34.000
409.926;  -41.275; -180.000; -179.000
410.052; -165.325;-1127.000;-1091.000
410.179;  -38.350; -368.000; -392.000
410.305;  -75.950; -375.000; -493.000
410.432;  -40.625; -220.000; -333.000
410.558;  -91.150; -305.000; -380.000
410.685;  -96.600; -688.000; -431.000
410.812;  -87.100; -409.000; -588.000
410.938; -120.700; -964.000; -808.000
411.065;  -78.400; -671.000; -645.000
411.191;    4.475; -189.000; -174.000
411.317; -103.575; -823.000; -742.000
411.444;  -62.525; -317.000; -246.000
411.570;  -58.150; -339.000; -294.000
411.697; -108.800; -758.000; -752.000
411.823; -169.100; -989.000; -999.000
411.949;  -27.275;  -56.000;   17.000
412.076;  -90.825; -539.000; -519.000
412.202; -117.375; -758.000; -757.000
412.329; -116.575; -798.000; -752.000
412.455;  -98.400; -821.000; -657.000
412.581;  -13.200;  -15.000;  172.000
412.707;  -48.100; -540.000; -457.000
412.834;   27.800;  156.000;  219.000
412.960;  -71.075; -785.000; -784.000
413.086;  -95.450; -743.000; -701.000
413.212;  186.200;  604.000;  578.000
413.339;  -41.025; -685.000; -701.000
413.465;   20.950; -364.000; -310.000
413.591;  -69.300; -757.000; -474.000
413.717;  -43.150; -358.000; -366.000
413.843; -125.525; -839.000; -861.000
413.969;  -53.575;  -47.000; -292.000
414.096;  -87.450; -679.000; -679.000
414.222;   -3.975;  -33.000;   85.000
414.348;  -10.450; -652.000; -385.000
414.474;  139.325;   38.000;  -52.000
414.600;    9.100; -126.000; -144.000
414.726;   -8.975;  -96.000;  -55.000
414.852;  -53.650; -365.000; -342.000
414.978;   45.225;  104.000;  -18.000
415.104;   52.625;   38.000;   80.000
415.230;   32.325; -329.000; -330.000
415.356;   52.750; -409.000; -514.000
415.482;  238.575;   13.000;  -35.000
415.608;  282.825; -247.000; -323.000
415.734;  968.875;   67.000;   38.000
415.860;19158.325; -875.000; -767.000
415.986;15100.650; -685.000; -607.000
416.111; 1324.275; -798.000; -652.000
416.237;  264.350; -424.000; -571.000
416.363; 1027.025; -765.000; -733.000
416.489; 4091.925; -324.000; -251.000
416.615;  488.100; -707.000; -742.000
416.741;   -3.525; -677.000; -784.000
416.866;  -91.225; -673.000; -736.000
416.992; -121.850; -801.000; -818.000
417.118;  -16.850;  -41.000;  -80.000
417.244;  -44.075; -798.000; -531.000
417.369;  -68.600; -801.000; -612.000
417.495;    7.275; -325.000; -254.000
417.621;  -61.400;-1015.000; -803.000
417.746;   33.425; -579.000; -572.000
417.872;   52.975; -254.000; -144.000
417.998;   60.625; -515.000; -530.000
418.123;  967.600;-1073.000; -845.000
418.249; 5261.100; -512.000; -601.000
418.374;  813.675; -916.000; -824.000
418.500;  140.625; -383.000; -482.000
418.626;  123.325;   70.000;  -59.000
418.751;  138.925; -549.000; -448.000
418.877;  224.625; -637.000; -643.000
419.002; 1657.175; -688.000; -560.000
419.128;12120.450; -930.000; -721.000
419.253; 3220.800; -967.000; -837.000
419.379;  410.975; -391.000; -338.000
419.504;  395.200;  325.000;  415.000
419.629;  508.425; -393.000; -212.000
419.755; 3165.850; -317.000; -254.000
419.880;19829.750;  -98.000;   67.000
420.006;10977.100; -280.000; -221.000
420.131;29156.675; -662.000; -775.000
420.256; 4531.625; -315.000; -316.000
420.382;  599.500; -665.000; -687.000
420.507;   88.025; -649.000; -778.000
420.632;  173.875; -337.000; -339.000
420.758;  358.825; -251.000; -425.000
420.883;  -64.250; -876.000; -672.000
421.008;  -84.875; -775.000; -619.000
421.133;  -66.525; -509.000; -467.000
421.259;  -46.525; -325.000; -259.000
421.384;  -91.200; -834.000; -693.000
421.509;  -20.750;-1052.000; -862.000
421.634; 1475.125; -936.000; -820.000
421.759;  718.500; -359.000; -327.000
421.885;  -30.600; -717.000; -656.000
422.010;  -70.025; -673.000; -542.000
422.135; -130.225; -695.000; -727.000
422.260;   42.500;  340.000;  280.000
422.385;  -39.400;   12.000;  -98.000
422.510;   10.275;  151.000;  -26.000
422.635;   21.575;  -87.000;  -43.000
422.760;  138.125; -766.000; -791.000
422.885;   61.950;  -57.000;  -80.000
423.010;  -16.825; -112.000; -169.000
423.135;  -88.425; -481.000; -561.000
423.260;  -14.900; -150.000; -245.000
423.385;   85.475;  476.000;  222.000
423.510;   45.975;   71.000;  -22.000
423.635;  102.850;  133.000;   45.000
423.760;   71.450;  383.000;  328.000
423.885;   52.925;  336.000;  391.000
424.010;   28.875;  -68.000;  -13.000
424.135;  -10.900;    5.000;  -33.000
424.259;  -88.025; -654.000; -457.000
424.384;  -44.525; -279.000; -272.000
424.509;  -17.350; -260.000; -186.000
424.634;  -88.475; -761.000; -623.000
424.759;  -13.150; -688.000; -544.000
424.883;   -0.150; -506.000; -527.000
425.008;  162.700; -502.000; -410.000
425.133; 1934.100; -679.000; -653.000
425.258;  987.200; -517.000; -381.000
425.382; 1152.000; -867.000; -774.000
425.507; 3179.975; -487.000; -543.000
425.632;  546.350; -802.000; -663.000
425.756;  442.100; -256.000; -146.000
425.881; 5731.725; -831.000; -857.000
426.006;16604.350; -604.000; -355.000
426.130; 2877.675; -696.000; -508.000
426.255;  394.350; -611.000; -491.000
426.379;  177.475; -189.000; -577.000
426.504;  368.375;  660.000;  544.000
426.629; 3916.325; -519.000; -466.000
426.753; 2917.175;   64.000;  -46.000
426.878;  344.275; -252.000; -288.000
427.002;  153.950; -651.000; -668.000
427.127; 1476.725;  -35.000; -158.000
427.251;10957.350;  372.000;  401.000
427.375; 3447.275; -191.000; -173.000
427.500; 2642.425; -616.000; -610.000
427.624;  998.175; -234.000; -400.000
427.749;  136.275; -216.000; -225.000
427.873;  -18.525; -499.000; -412.000
427.997;  -36.700; -222.000; -230.000
428.122;   79.925;  795.000;  703.000
428.246;   89.725;  433.000;  434.000
428.371; -100.225; -869.000; -773.000
428.495;  -93.100; -624.000; -646.000
428.619;  -14.525; -186.000; -117.000
428.743;   28.900;   65.000;  132.000
428.868;   39.100; -732.000; -643.000
428.992; 1636.575; -219.000; -326.000
429.116;  741.850; -329.000; -357.000
429.240;  350.300;  419.000;  426.000
429.365;    1.900; -454.000; -574.000
429.489;  -20.900; -638.000; -647.000
429.613;   35.975; -236.000; -177.000
429.737;   46.975; -563.000; -432.000
429.861;  259.525; -247.000; -133.000
429.985; 5195.025; -425.000; -305.000
430.109; 6172.350; -770.000; -908.000
430.234;  761.600;   76.000;  -50.000
430.358;   81.100; -250.000; -160.000
430.482;  -59.500; -672.000; -564.000
430.606;  -60.225; -655.000; -375.000
430.730;   37.925; -437.000; -388.000
430.854;  221.925; -909.000; -835.000
430.978;  -43.450; -795.000; -764.000
431.102;  -70.500; -499.000; -422.000
431.226; -109.875; -874.000; -815.000
431.350;   33.575;  345.000;  422.000
431.474;  -54.725; -661.000; -373.000
431.597; -138.925;-1060.000; -848.000
431.721;  -71.950; -276.000; -267.000
431.845; -125.425; -704.000; -472.000
431.969;  -78.250; -304.000; -349.000
432.093;  -88.800; -395.000; -317.000
432.217;   -9.150;   32.000;   82.000
432.341;  -82.900; -523.000; -518.000
432.464;   28.275;   96.000;   40.000
432.588;  291.950; -401.000; -329.000
432.712;  156.600;  -52.000;  -52.000
432.836;   43.100;  213.000;  263.000
432.959;   -5.425; -372.000; -311.000
433.083;   73.950;   11.000;    2.000
433.207;  369.750;  285.000;  930.000
433.330; 4681.550; -391.000; -200.000
433.454; 6194.725; -654.000; -638.000
433.578; 3527.050;  583.000;  278.000
433.701;  726.875; -623.000; -675.000
433.825;  200.800; -292.000; -299.000
433.949;  252.350;   28.000;  -72.000
434.072;  106.100; -410.000; -323.000
434.196;    5.175; -309.000; -117.000
434.319; 3576.275;25482.000;25124.000
434.443;  725.375; -656.000; -603.000
434.566; 2610.475;  281.000;   62.000
434.690;  479.925; -637.000; -383.000
434.813;   64.825; -251.000; -173.000
434.937;  -67.975; -569.000; -696.000
435.060;  -15.875; -423.000; -332.000
435.184;  432.225; -492.000; -217.000
435.307;  270.725;  159.000;  102.000
435.431;   11.750;  -40.000;   24.000
435.554;  -81.300; -399.000; -240.000
435.677;  -84.825; -350.000; -258.000
435.801;  -18.875;  -25.000;   49.000
435.924;    3.450;    1.000;  -67.000
436.048;  -92.000;-1019.000; -732.000
436.171;  -58.125; -240.000;  -66.000
436.294;  -31.975; -248.000; -229.000
436.417;   84.275; -963.000; -849.000
436.541;  -67.900; -814.000; -840.000
436.664;  -42.450; -242.000; -316.000
436.787;   -7.450;   13.000;  113.000
436.910; -103.525; -792.000; -422.000
437.034;   21.800;  142.000;  143.000
437.157;   68.925;  -11.000;    0.000
437.280;  -36.375; -392.000; -292.000
437.403;  -57.450; -982.000; -869.000
437.526;  781.425; -903.000; -865.000
437.649; 2979.900; -505.000; -332.000
437.772;  548.925; -692.000; -540.000
437.896;  163.450;  700.000;  544.000
438.019;  -76.425; -758.000; -503.000
438.142;  -83.025; -596.000; -506.000
438.265;   10.450; -639.000; -670.000
438.388;  733.450; -520.000; -410.000
438.511;  183.400; -597.000; -394.000
438.634;  -17.000; -247.000; -125.000
438.757; -124.950; -693.000; -619.000
438.880;  -16.100;  -34.000;  -57.000
439.003;  -59.550; -417.000; -437.000
439.126;  -66.025; -287.000; -167.000
439.248;  -47.300;  -98.000; -139.000
439.371;  -35.425;    9.000;  -53.000
439.494;   30.850;  510.000;  439.000
439.617;  -55.825;   65.000;  -88.000
439.740; -175.775; -968.000; -816.000
439.863; -147.375; -755.000; -595.000
439.986; -118.025; -476.000; -431.000
440.108;  -31.500; -161.000; -112.000
440.231; -146.125; -950.000; -836.000
440.354;  -41.275;  -64.000; -150.000
440.477;   57.400; -566.000; -542.000
440.599;   41.175; -200.000; -225.000
440.722; -110.400; -709.000; -586.000
440.845;   71.200;  751.000;  928.000
440.968; -105.775; -415.000; -311.000
441.090;  -61.075; -199.000;  -33.000
441.213; -165.700;-1021.000; -825.000
441.336;  -54.600; -159.000;   -5.000
441.458;  -79.775; -549.000; -396.000
441.581;  -59.000; -628.000; -629.000
441.703;  -76.425; -152.000;   13.000
441.826; -105.875; -557.000; -400.000
441.948;  -48.825;   56.000;   51.000
442.071;   35.575;  555.000;  424.000
442.193; -111.800; -531.000; -485.000
442.316;   41.325;  152.000;   97.000
442.438;   47.675; -233.000;  -10.000
442.561;   86.875;  272.000;  262.000
442.683;  675.675; -809.000; -522.000
442.806; 1544.225;   -8.000;   74.000
442.928;   95.925; -859.000; -604.000
443.051;  -42.900; -577.000; -373.000
443.173; -101.625; -341.000; -339.000
443.295;  -80.250; -263.000; -371.000
443.418;  -67.100; -321.000;  -29.000
443.540;    0.600; -106.000;   -4.000
443.662; -118.325; -563.000; -465.000
443.785;  -16.025;  335.000;  199.000
443.907; -102.275; -362.000; -208.000
444.029; -115.575; -767.000; -494.000
444.152; -130.075; -644.000; -554.000
444.274;  -41.900;  -18.000;  -24.000
444.396; -101.250; -461.000; -221.000
444.518; -122.250; -691.000; -454.000
444.640; -103.850; -268.000; -111.000
444.763;  -13.900;  388.000;  249.000
444.885;  -99.450; -432.000; -392.000
445.007;  -33.200;   35.000;   86.000
445.129;  -99.925; -610.000; -515.000
445.251;  -86.175; -372.000; -439.000
445.373; -135.325; -537.000; -386.000
445.495;    9.800;  242.000;  350.000
445.617;   46.925;  853.000;  753.000
445.739;  -68.325; -215.000;  -97.000
445.861;  -23.125; -245.000; -112.000
445.984;  -17.675; -267.000; -101.000
446.105;  257.175; -418.000; -251.000
446.227;  787.525; -176.000;  -19.000
446.349;   58.000; -358.000; -249.000
446.471;  -82.525; -615.000; -448.000
446.593;  -58.500; -316.000;   19.000
446.715;    9.650;  -67.000;   41.000
446.837;   56.225;  697.000;  832.000
446.959;  -90.475; -457.000; -478.000
447.081; -123.550; -628.000; -518.000
447.203;   55.725;  862.000;  834.000
447.325;  -85.125; -270.000;   42.000
447.446;   -1.750;  286.000;  530.000
447.568; -135.975; -921.000; -803.000
447.690;  -66.850; -236.000; -245.000
447.812; -140.650; -798.000; -519.000
447.933;  -34.575;  155.000;  127.000
448.055;  -60.000; -306.000; -261.000
448.177;  158.425;   31.000;   79.000
448.299;  169.875; -935.000; -727.000
448.420;   51.900;  -25.000;  159.000
448.542;  -44.150;   -3.000;   33.000
448.664;  -29.950;  109.000;  322.000
448.785;  -39.875;  265.000;   83.000
448.907;  -73.200; -614.000; -353.000
449.028;   -8.000; -771.000; -471.000
449.150;   60.350;  492.000;  589.000
449.272; -162.200;-1044.000; -913.000
449.393;   30.150;  612.000;  694.000
449.515; -141.125; -634.000; -581.000
449.636;  -40.425; -264.000; -155.000
449.758;   78.475;  763.000;  622.000
449.879;  -93.300; -498.000; -396.000
450.001;  -79.325; -149.000;  -49.000
450.122;  -20.400;  -95.000;  162.000
450.244;  -30.475;   37.000;  364.000
450.365;  -83.175; -495.000; -301.000
450.486;  -20.625;   80.000;  268.000
450.608;   19.450;  393.000;  326.000
450.729;   77.825;  578.000;  645.000
450.850;    1.675; -574.000; -466.000
450.972;  660.625; -552.000; -389.000
451.093; 4548.000;  190.000;  588.000
451.214; 2157.600; -516.000; -337.000
451.336;  405.525;  773.000;  579.000
451.457;   56.350;  264.000;  393.000
451.578;  -27.350; -118.000;  -74.000
451.699; -115.375; -546.000; -540.000
451.821;  -52.775; -284.000;  -50.000
451.942;   -0.825;  278.000;  285.000
452.063;   37.400;  228.000;  419.000
452.184;  514.550;  -54.000;  -49.000
452.305; 1092.475;  103.000;  170.000
452.427;  152.450; -549.000; -301.000
452.548;    6.875;   23.000;   79.000
452.669;  -43.325; -257.000;  -89.000
452.790;  -33.875;    3.000;  -18.000
452.911;    1.300;  195.000;  259.000
453.032;  -58.800; -289.000;  -60.000
453.153;  -26.950;  -29.000;   81.000
453.274;   65.025;  737.000;  868.000
453.395;  -51.375;  -51.000;  175.000
453.516;  124.450; 1317.000; 1388.000
453.637;  -45.000; -205.000; -150.000
453.758;  -42.075;   15.000;   69.000
453.879; -111.050; -462.000; -250.000
454.000;   72.650; 1086.000;  948.000
454.121;  -98.325; -554.000; -326.000
454.242; -112.800; -599.000; -383.000
454.362;  -62.675;  -99.000;  114.000
454.483;  -37.375; -309.000; -229.000
454.604;   60.850;  512.000;  580.000
454.725; -104.625; -627.000; -555.000
454.846; -125.600; -474.000; -406.000
454.967;  -19.450;  230.000;  539.000
455.087;  -47.125;  179.000;  153.000
455.208;   10.975;  554.000;  856.000
455.329;  -62.375;  -22.000;   82.000
455.450;   46.675;  473.000;  633.000
455.570;  -72.250; -234.000; -211.000
455.691;  -36.525;  201.000;  407.000
455.812; -100.500; -270.000;  -92.000
455.932;  -63.325;  107.000;  -97.000
456.053;  -76.350;   36.000;   24.000
456.173; -102.800; -433.000; -355.000
456.294; -137.600; -476.000; -303.000
456.415;  -63.650;  -73.000;   70.000
456.535;  -32.475;  297.000;  273.000
456.656;  -41.800;  132.000;  240.000
456.776;  -60.475;    3.000;  298.000
456.897;  -11.250;  308.000;  513.000
457.017;  -90.400; -153.000;   -3.000
457.138;  -89.550; -402.000; -249.000
457.258;  -21.425;  263.000;  224.000
457.379;  -18.950;  509.000;  521.000
457.499;  -26.050;  443.000;  432.000
457.620; -126.550; -407.000; -231.000
457.740;  -94.625; -132.000;  -11.000
457.860;  -44.975;   87.000;   44.000
457.981;  -48.650;  132.000;  124.000
458.101;  -63.850;  -89.000;   40.000
458.221;   -4.550;  336.000;  402.000
458.342;  -46.700;   -4.000;  -37.000
458.462;   16.450;  617.000;  352.000
458.582;  -39.025; -302.000; -294.000
458.703;    0.650;  303.000;  154.000
458.823;  -24.800;   22.000;  163.000
458.943;   14.850;  341.000;  467.000
459.063;  -13.150; 1124.000;  192.000
459.183;  -13.100;  328.000;  313.000
459.304;   16.000;  315.000;  517.000
459.424;  -56.600; -246.000;  -89.000
459.544;  309.225;  388.000;  764.000
459.664;  783.075;  499.000;  506.000
459.784;  333.075; 1004.000; 1175.000
459.904;   73.000;  867.000;  744.000
460.024;   72.400;  867.000;  684.000
460.144;   22.775;  449.000;  554.000
460.264;    0.625;  515.000;  327.000
460.385;  -82.550; -145.000; -119.000
460.505;   39.875;  905.000;  858.000
460.625;  -94.625;  -17.000;  -68.000
460.745;   -9.575;  396.000;  541.000
460.864;  -43.450;  153.000;  469.000
460.984;   28.150;  499.000;  573.000
461.104;  131.075; 1656.000; 1775.000
461.224;   21.425;  657.000;  650.000
461.344;  -27.225;  431.000;  360.000
461.464;  -22.500;  258.000;  513.000
461.584;   -1.850;  283.000;  466.000
461.704;  -33.300;   58.000;  108.000
461.824;  -57.325;  238.000;  259.000
461.943;  -37.300;  191.000;  130.000
462.063;  -70.475;    2.000;  324.000
462.183;   19.475;  639.000;  717.000
462.303;  113.350; 1678.000; 1230.000
462.422;   41.125;  781.000;  840.000
462.542;  -29.750;  271.000;  391.000
462.662;   54.575;  353.000;  380.000
462.782;  230.125;  833.000;  572.000
462.901;  478.875;  545.000;  717.000
463.021;  285.225; 1702.000; 1638.000
463.141;   -0.150;  337.000;  770.000
463.260;  -21.625;  614.000;  474.000
463.380;   19.675;  902.000;  884.000
463.499;  -49.900;  342.000;  332.000
463.619;  -28.975;  581.000;  559.000
463.738;  110.925; 1644.000;  903.000
463.858;   17.375;  657.000;  811.000
463.978;  -26.050;  542.000;  396.000
464.097;   65.325;  921.000; 1114.000
464.217;  109.150; 1196.000; 1143.000
464.336;  114.275; 1068.000; 1130.000
464.455;  -18.900;  328.000;  659.000
464.575;   43.500;  597.000;  602.000
464.694;  180.500; 1204.000; 1179.000
464.814;  152.050; 1190.000; 1138.000
464.933;   67.325; 1095.000; 1027.000
465.052;  104.200; 1412.000; 1054.000
465.172;   91.850;  922.000;  799.000
465.291;  152.275; 1376.000; 1320.000
465.410;   23.725;  462.000;  735.000
465.530;  100.275; 1355.000; 1310.000
465.649;   63.925; 1209.000; 1273.000
465.768;  142.425; 1673.000; 1508.000
465.888;   66.875;  941.000; 1174.000
466.007;   99.500; 1335.000; 1440.000
466.126;   -3.125;  721.000;  641.000
466.245;   56.500; 1176.000; 1187.000
466.364;   24.475;  950.000; 1060.000
466.484;   61.125; 1024.000; 1213.000
466.603;   42.200; 1101.000; 1222.000
466.722;  137.500; 1490.000; 1769.000
466.841;   82.850; 1151.000; 1401.000
466.960;   54.675; 1069.000;  972.000
467.079;  120.200; 1971.000; 1786.000
467.198;   42.950; 1238.000; 1181.000
467.317;   76.450; 1768.000; 1162.000
467.436;   82.850; 1709.000; 1261.000
467.555;  119.100; 1796.000; 1746.000
467.674;   77.150; 1227.000; 1329.000
467.793;   57.175; 1376.000; 1374.000
467.912;  100.500; 1658.000; 1539.000
468.031;  136.400; 2038.000; 1930.000
468.150;  145.325; 1842.000; 1837.000
468.269;  189.575; 2313.000; 2090.000
468.388;  212.300; 2168.000; 2339.000
468.507;  249.675; 2884.000; 2903.000
468.626;  258.125; 2555.000; 2541.000
468.744;  146.575; 2018.000; 2174.000
468.863;  203.475; 2312.000; 2523.000
468.982;   94.000; 1503.000; 1555.000
469.101;  218.350; 2788.000; 2692.000
469.220;  149.925; 2333.000; 2176.000
469.338;  252.725; 2935.000; 3051.000
469.457;  202.650; 2719.000; 2545.000
469.576;  344.575; 3953.000; 3784.000
469.695;  240.075; 2877.000; 3066.000
469.813;  418.200; 4148.000; 4192.000
469.932;  418.950; 4255.000; 4485.000
470.051;  428.600; 4075.000; 4161.000
470.169;  813.275; 4470.000; 4338.000
470.288; 1420.050; 4700.000; 4809.000
470.406;  894.450; 5059.000; 5194.000
470.525;  637.700; 6101.000; 5787.000
470.644;  647.575; 6847.000; 6794.000
470.762;  822.250; 8397.000; 7873.000
470.881;  899.850; 8651.000; 8464.000
470.999; 1029.300; 9685.000; 9151.000
471.118; 1112.975;11174.000;10711.000

