
Integration time [ms]: 200.000
Averaging Nr. [scans]: 10
Smoothing Nr. [pixels]: 0
Data measured with spectrometer [name]: 2101012U2
Wave   ;Sample   ;Dark     ;Reference
[nm]   ;[counts] ;[counts] ;[counts] 

197.733;  139.700;  516.000;  404.000
197.879; -192.800; -610.000; -634.000
198.025;  -99.100; -475.000; -420.000
198.171; -186.900; -602.000; -612.000
198.317;  -49.900; -401.000; -316.000
198.463; -140.800; -655.000; -404.000
198.609;   40.000;  181.000; -137.000
198.755; -182.400; -644.000; -410.000
198.901; -136.700; -505.000; -424.000
199.047; -169.600; -615.000; -488.000
199.193;  -87.600; -230.000; -468.000
199.339; -126.000; -222.000; -369.000
199.485;   65.800;  330.000;  271.000
199.631;   38.400;  227.000;  310.000
199.777; -126.800; -466.000; -398.000
199.923; -122.900; -610.000; -424.000
200.069;  -12.900; -141.000;  -58.000
200.215;  100.800;  128.000;  453.000
200.361;   79.600;  243.000;  477.000
200.507; -143.700; -600.000; -373.000
200.653;  -51.900; -371.000; -194.000
200.798;  -85.200; -215.000; -125.000
200.944;  -29.400; -146.000;  -41.000
201.090;   76.200;   61.000;  222.000
201.236;   -0.600; -116.000; -158.000
201.382;  302.400;  874.000;  903.000
201.528;   10.600;  -58.000;  -48.000
201.674;  -77.300; -386.000; -293.000
201.819; -156.400; -540.000; -439.000
201.965; -193.900; -699.000; -447.000
202.111;  -77.800; -273.000; -226.000
202.257;  -87.600; -250.000; -238.000
202.402;   31.100;   13.000;  -36.000
202.548;  -73.900; -169.000; -116.000
202.694;  165.300;  410.000; -183.000
202.840; -121.200; -603.000; -531.000
202.985; -141.700; -681.000; -639.000
203.131; -242.700; -832.000; -666.000
203.277;  -54.000; -199.000; -262.000
203.423; -151.200; -434.000; -520.000
203.568;  -81.400; -462.000; -237.000
203.714; -109.400; -535.000; -542.000
203.860; -167.800; -682.000; -641.000
204.005;   56.000;  112.000;  167.000
204.151;  162.800;  561.000;  556.000
204.296; -107.900; -354.000; -221.000
204.442; -158.100; -600.000; -547.000
204.588; -174.600; -592.000; -579.000
204.733;   57.300;  178.000;  168.000
204.879; -280.100;-1018.000; -822.000
205.025;   10.300;  -99.000;  126.000
205.170;   24.100;  -17.000;   94.000
205.316;  169.200;  438.000;  661.000
205.461; -165.200; -698.000; -554.000
205.607;  189.500;  609.000;  665.000
205.752; -169.100; -626.000; -551.000
205.898;  -89.600; -501.000; -391.000
206.043; -159.500; -578.000; -506.000
206.189; -103.100; -243.000; -285.000
206.334;  162.400;  554.000;  606.000
206.480;  132.500;  409.000;  239.000
206.625; -188.900; -529.000; -552.000
206.771;  -88.400; -451.000; -373.000
206.916; -108.400; -210.000; -537.000
207.062; -170.100; -545.000; -591.000
207.207; -131.800; -546.000; -443.000
207.353;  129.700;  185.000;  460.000
207.498;   26.700;  196.000;   85.000
207.643; -110.800; -501.000; -370.000
207.789; -283.800;-1069.000; -910.000
207.934; -210.500; -665.000; -713.000
208.080;  -46.800; -154.000;   66.000
208.225;  -29.200;  -22.000;  -57.000
208.370; -178.000; -727.000; -619.000
208.516; -137.200; -741.000; -487.000
208.661;  -36.500; -127.000;  -69.000
208.806;  -49.900; -165.000; -171.000
208.952; -257.100;-1044.000; -731.000
209.097;  178.700;  378.000;  349.000
209.242;  -99.800; -307.000; -382.000
209.387;  112.500;  392.000;  350.000
209.533;  -88.200; -321.000; -350.000
209.678;  180.100;  472.000;  543.000
209.823; -112.200; -408.000; -310.000
209.969; -207.100; -860.000; -757.000
210.114; -231.500; -907.000; -719.000
210.259; -287.300; -939.000; -889.000
210.404;  -19.000; -171.000;  103.000
210.549;   12.200;  108.000;    3.000
210.695;   -9.800;   -3.000;  -95.000
210.840;   97.100;   94.000;   67.000
210.985; -109.300; -484.000; -303.000
211.130;  142.500;  268.000;  406.000
211.275;   48.400;  207.000;  199.000
211.420;  -88.500; -300.000; -289.000
211.566; -148.500; -536.000; -489.000
211.711;   71.700;  218.000;  157.000
211.856; -146.700; -545.000; -519.000
212.001;   17.800;  151.000;   44.000
212.146;    6.500;  153.000;   49.000
212.291;  -39.100; -210.000; -186.000
212.436;  -14.700; -280.000;   -6.000
212.581; -166.300; -685.000; -653.000
212.726; -165.300; -487.000; -538.000
212.871;  -75.800; -552.000; -217.000
213.016; -343.700;-1172.000;-1029.000
213.161;  137.000;  406.000;  291.000
213.306; -150.800; -435.000; -577.000
213.451; -209.200; -778.000; -689.000
213.596;  -78.500; -455.000; -347.000
213.741; -105.600; -448.000; -538.000
213.886; -184.500; -498.000; -517.000
214.031;  -25.200; -294.000; -124.000
214.176;  -90.100; -408.000; -341.000
214.321;  -66.600; -296.000; -157.000
214.466;  -58.900; -163.000;  -43.000
214.611;   -9.500;  -61.000;  -10.000
214.756; -254.600; -948.000; -858.000
214.901;  -59.600; -388.000; -226.000
215.046; -255.400; -797.000; -825.000
215.191;   55.600;  128.000;   35.000
215.336;  -22.400; -157.000;  -19.000
215.480; -151.900; -684.000; -505.000
215.625;  -36.500; -175.000;  -19.000
215.770; -186.500; -757.000; -662.000
215.915;  -24.600;   -5.000;  -97.000
216.060;   10.000; -113.000;  -21.000
216.205; -216.400; -731.000; -779.000
216.349; -151.800; -470.000; -533.000
216.494; -273.800; -939.000; -867.000
216.639; -254.400; -823.000; -888.000
216.784; -159.900; -577.000; -525.000
216.929;  110.100;  392.000;  281.000
217.073;  -59.900; -244.000;  -31.000
217.218;   28.000;   78.000;  -47.000
217.363; -189.500; -656.000; -618.000
217.507; -145.600; -623.000; -588.000
217.652; -252.900; -845.000; -874.000
217.797; -189.700; -708.000; -659.000
217.942; -251.200; -856.000; -720.000
218.086;  161.400;  608.000;  539.000
218.231;  -38.500; -174.000;  -26.000
218.376;  -65.900; -337.000; -229.000
218.520;    6.800;  -41.000;   96.000
218.665;  -75.200; -338.000; -204.000
218.810;  -71.300; -275.000; -233.000
218.954;    1.200;  201.000;   35.000
219.099; -215.900; -713.000; -963.000
219.243; -143.400; -589.000; -554.000
219.388;  -63.300; -264.000; -136.000
219.532;  -20.500; -116.000; -116.000
219.677; -164.200; -564.000; -521.000
219.822;   14.500;   33.000;   89.000
219.966;   13.100;   17.000;  -99.000
220.111;  -86.400; -328.000;  -40.000
220.255; -207.500; -797.000; -750.000
220.400;  -41.800; -180.000; -146.000
220.544; -132.400; -516.000; -450.000
220.689; -118.000; -422.000; -451.000
220.833;  -64.900; -123.000;  -58.000
220.978;  -92.300; -393.000; -563.000
221.122;   38.000;  319.000;  307.000
221.267; -256.000; -906.000; -837.000
221.411; -121.600; -478.000; -394.000
221.555;  -17.200; -104.000;  -23.000
221.700; -126.000; -329.000; -222.000
221.844;  104.800;  255.000;  272.000
221.989;  -92.400; -328.000; -311.000
222.133;  -81.700; -289.000; -307.000
222.277;  -30.900;    5.000;   78.000
222.422;   55.800;  227.000;  113.000
222.566;  -60.700; -381.000; -214.000
222.711; -130.300; -414.000; -479.000
222.855; -134.600; -643.000; -586.000
222.999; -164.100; -642.000; -717.000
223.144;  -71.200; -195.000; -194.000
223.288;  108.900;  423.000;  251.000
223.432;   20.000;  184.000;  230.000
223.576;   38.600;  152.000;  -21.000
223.721;   82.200;  364.000;  273.000
223.865; -142.600; -472.000; -475.000
224.009;  517.500; 1673.000; 1631.000
224.153; -137.600; -660.000; -671.000
224.298; -147.800; -531.000; -489.000
224.442;  -10.400;  -74.000;  -33.000
224.586;  -27.500; -169.000; -106.000
224.730; -202.500; -858.000; -670.000
224.875; -223.200; -739.000; -688.000
225.019;   14.900;  102.000;  188.000
225.163;  120.200;  208.000;  341.000
225.307;   46.400;   97.000;  -91.000
225.451;   98.100;  360.000;  481.000
225.595;   72.300;  264.000;  176.000
225.739;  -16.200; -170.000;  -94.000
225.884;   12.500;   86.000;    5.000
226.028; -194.400; -760.000; -626.000
226.172;  -36.100; -260.000; -273.000
226.316; -263.300; -941.000; -902.000
226.460; -133.200; -645.000; -493.000
226.604;  -99.900; -406.000; -400.000
226.748; -238.300; -836.000; -733.000
226.892; -102.100; -227.000; -181.000
227.036; -105.700; -537.000; -447.000
227.180; -115.100; -551.000; -375.000
227.324; -172.100; -561.000; -580.000
227.468; -252.800; -819.000; -717.000
227.612;    6.000;  242.000;  -28.000
227.756; -190.500; -845.000; -698.000
227.900;  103.600;  342.000;  441.000
228.044; -134.200; -509.000; -290.000
228.188;  118.900;  448.000;  568.000
228.332; -207.300; -546.000; -472.000
228.476;  -38.900; -223.000; -149.000
228.620;  -48.600; -210.000; -150.000
228.764;  155.200;  431.000;  349.000
228.908;  -11.600; -155.000;   30.000
229.052; -113.900; -615.000; -528.000
229.195;   -6.700; -172.000;   13.000
229.339;  -34.800; -235.000; -305.000
229.483;  -49.400;    5.000; -162.000
229.627;   -4.700; -156.000;  139.000
229.771; -102.400; -218.000; -294.000
229.915;   36.900;  230.000;   79.000
230.059; -176.700; -648.000; -663.000
230.202;  -72.900; -370.000; -317.000
230.346;  -13.800; -107.000;  107.000
230.490; -137.500; -489.000; -521.000
230.634; -223.700; -736.000; -553.000
230.777;  185.800;  478.000;  509.000
230.921; -113.800; -450.000; -359.000
231.065;  -43.500; -246.000; -286.000
231.209;   69.800;  261.000;  265.000
231.352;   69.300;   54.000;   40.000
231.496;   63.700;  568.000;  188.000
231.640; -147.400; -693.000; -621.000
231.783;  113.100;  546.000;  525.000
231.927;  -77.800; -294.000; -365.000
232.071; -229.500; -962.000; -736.000
232.214; -247.000; -980.000; -764.000
232.358; -200.900; -683.000; -599.000
232.502;    7.300;  -19.000;    7.000
232.645; -282.500;-1090.000; -927.000
232.789;  -32.100; -257.000; -218.000
232.933;  -66.800; -407.000; -224.000
233.076; -237.800;-1038.000; -897.000
233.220; -220.200; -752.000; -777.000
233.363; -147.200; -669.000; -477.000
233.507;  123.100;  371.000;  129.000
233.650; -179.100; -764.000; -834.000
233.794;   85.200;  438.000;  461.000
233.938;  -99.900; -530.000; -362.000
234.081;  -43.900;  -93.000;   31.000
234.225; -163.900; -631.000; -539.000
234.368; -263.600; -773.000; -723.000
234.512;  -48.600; -385.000; -299.000
234.655; -189.800; -582.000; -555.000
234.798; -119.300; -493.000; -466.000
234.942; -250.200; -884.000;-1002.000
235.085; -143.800; -651.000; -443.000
235.229; -130.700; -405.000; -410.000
235.372;  -91.800; -247.000; -191.000
235.516; -120.300; -397.000; -321.000
235.659;   51.100;   92.000;  121.000
235.802;  -25.300;  -38.000;  -22.000
235.946;   75.500;  335.000;  215.000
236.089;   55.300;  126.000;  250.000
236.233;  142.600;  275.000;  298.000
236.376;  -97.900; -235.000; -378.000
236.519;  -93.500; -297.000; -319.000
236.663;  -34.500; -215.000; -117.000
236.806; -291.000;-1029.000; -999.000
236.949;  142.600;  543.000;  431.000
237.092;  152.300;  412.000;  391.000
237.236; -167.800; -589.000; -502.000
237.379;  143.600;  352.000;  428.000
237.522; -261.700; -879.000; -768.000
237.666;   -8.400; -271.000;   18.000
237.809; -247.500; -851.000; -823.000
237.952;   68.400;  469.000;  271.000
238.095; -127.200; -447.000; -442.000
238.238;  192.700;  688.000;  700.000
238.382;   -5.800;  166.000;  103.000
238.525; -119.500; -598.000; -511.000
238.668; -299.500;-1060.000; -985.000
238.811; -160.300; -638.000; -643.000
238.954; -130.100; -483.000; -334.000
239.097;  212.100;  617.000;  664.000
239.241;   99.000;  394.000;  326.000
239.384;  -47.600; -254.000; -214.000
239.527; -110.000; -424.000; -224.000
239.670; -286.500; -994.000;-1091.000
239.813; -265.500; -696.000; -658.000
239.956;  180.200;  579.000;  473.000
240.099; -224.500; -778.000; -725.000
240.242;  135.300;  428.000;  432.000
240.385;  123.200;  466.000;  450.000
240.528; -128.100; -706.000; -473.000
240.671;   51.000;  189.000;  134.000
240.814;  -83.700; -441.000; -158.000
240.957; -228.300; -767.000; -578.000
241.100; -179.600; -779.000; -755.000
241.243; -283.200;-1234.000; -893.000
241.386; -120.900; -508.000; -379.000
241.529; -161.600; -735.000; -547.000
241.672; -130.000; -566.000; -495.000
241.815; -252.200; -832.000; -808.000
241.958;  -35.200; -125.000; -182.000
242.101; -152.400; -545.000; -390.000
242.244;  -67.300; -270.000; -325.000
242.387;  -99.900; -304.000; -246.000
242.530;  140.200;  470.000;  134.000
242.673;  -93.300; -381.000; -309.000
242.815; -238.800; -925.000; -899.000
242.958; -114.300; -482.000; -381.000
243.101;    7.500;  132.000;  187.000
243.244; -172.600; -564.000; -521.000
243.387; -111.700; -313.000; -316.000
243.530; -189.600; -657.000; -674.000
243.672;   10.500;   43.000;  -92.000
243.815;  -82.100; -355.000; -283.000
243.958;   -3.200;   98.000;  -26.000
244.101;   11.200;   59.000;  -16.000
244.243;   -7.300;  -47.000;  101.000
244.386; -236.100; -761.000; -630.000
244.529;  -37.700; -132.000; -139.000
244.672; -334.800;-1154.000; -951.000
244.814; -192.300; -621.000; -794.000
244.957;  -65.700; -380.000; -304.000
245.100; -142.500; -489.000; -489.000
245.242; -107.400; -387.000; -374.000
245.385;   27.200;  -59.000;  -39.000
245.528; -259.500; -871.000; -705.000
245.670;  231.900;  612.000;  634.000
245.813; -173.200; -599.000; -547.000
245.956;  -74.600; -324.000; -275.000
246.098; -143.300; -508.000; -650.000
246.241;   29.700;  194.000;   48.000
246.383;  -23.400; -119.000;  -73.000
246.526; -151.100; -454.000; -525.000
246.669; -242.700; -889.000; -780.000
246.811;   59.400;  172.000;   -1.000
246.954;  -99.000; -512.000; -426.000
247.096;  -51.700;  -84.000;   -6.000
247.239; -137.300; -482.000; -445.000
247.381; -133.300; -647.000; -488.000
247.524;  194.500;  645.000;  679.000
247.666;  -13.200;   58.000;   11.000
247.809; -245.300; -887.000; -691.000
247.951;  -15.100;  -75.000;  138.000
248.094;   68.600;  432.000;  308.000
248.236; -353.400;-1262.000;-1238.000
248.378;    6.900; -356.000;  -81.000
248.521;  -33.800; -334.000; -337.000
248.663;  -79.600; -236.000; -267.000
248.806;  -25.200; -300.000; -266.000
248.948; -214.600; -886.000; -763.000
249.090;  -75.400; -428.000; -398.000
249.233;  -89.400; -344.000; -381.000
249.375; -124.000; -474.000; -451.000
249.518;  -47.600;  -83.000; -133.000
249.660;  -23.100; -103.000;    3.000
249.802; -354.000;-1303.000;-1189.000
249.945; -125.300; -612.000; -540.000
250.087; -248.300; -834.000; -768.000
250.229;  -67.100; -362.000; -480.000
250.371; -179.100; -494.000; -439.000
250.514; -102.800; -310.000; -244.000
250.656; -125.600;   69.000;  102.000
250.798; -247.000; -849.000; -800.000
250.940; -139.400; -322.000; -322.000
251.083;  -52.700; -335.000; -111.000
251.225;  123.000;  338.000;  310.000
251.367;  -56.200; -274.000; -373.000
251.509;  -47.200; -265.000; -210.000
251.651; -191.300; -731.000; -671.000
251.794;  142.200;  538.000;  632.000
251.936; -230.600; -821.000; -747.000
252.078; -152.200; -540.000; -461.000
252.220; -153.500; -645.000; -477.000
252.362;  167.600;  344.000;  462.000
252.504; -144.100; -677.000; -584.000
252.646; -218.600; -875.000; -722.000
252.788;   32.200;   14.000; -128.000
252.931; -101.600; -257.000; -253.000
253.073;  -88.800; -376.000; -317.000
253.215;   26.800;  141.000;  122.000
253.357;   -6.200;   82.000; -153.000
253.499; -109.800; -374.000; -234.000
253.641; -141.200; -749.000; -594.000
253.783; -203.900; -609.000; -527.000
253.925; -166.200; -586.000; -591.000
254.067; -208.400; -744.000; -667.000
254.209;  -57.400; -391.000; -259.000
254.351; -269.200; -865.000; -883.000
254.493; -122.500; -441.000; -417.000
254.635; -233.900; -936.000; -818.000
254.777; -200.400; -752.000; -687.000
254.918; -119.600; -512.000; -430.000
255.060; -124.900; -551.000; -395.000
255.202; -122.100; -473.000; -261.000
255.344; -145.000; -658.000; -455.000
255.486; -150.800; -471.000; -406.000
255.628; -219.000; -780.000; -781.000
255.770; -187.700; -676.000; -536.000
255.912; -117.500; -559.000; -468.000
256.053; -199.700; -730.000; -508.000
256.195;  320.500; 1008.000;  903.000
256.337; -208.000; -861.000; -595.000
256.479;  140.900;  532.000;  416.000
256.621;  -82.200; -394.000; -212.000
256.762; -190.700; -789.000; -742.000
256.904;  109.700;  485.000;  487.000
257.046;  -68.300; -381.000; -271.000
257.188;  -61.200; -351.000; -264.000
257.329; -154.200; -525.000; -464.000
257.471; -237.400; -939.000; -807.000
257.613; -100.600; -584.000; -498.000
257.755; -302.100;-1073.000; -982.000
257.896;   58.700;  286.000;  392.000
258.038; -148.700; -403.000; -352.000
258.180;  -56.900; -354.000; -279.000
258.321; -169.900; -581.000; -457.000
258.463;   10.500;  -71.000;  133.000
258.605; -164.900; -562.000; -570.000
258.746; -203.600; -886.000; -772.000
258.888; -297.900;-1026.000;-1020.000
259.029;   37.000;  121.000;   -8.000
259.171; -177.100; -614.000; -550.000
259.313;    0.300;  -49.000;  -47.000
259.454; -159.700; -536.000; -414.000
259.596;  -83.100; -483.000; -390.000
259.737; -142.500; -590.000; -474.000
259.879;   60.600;  217.000;  311.000
260.020;  218.800;  901.000;  636.000
260.162;  -37.200; -146.000; -253.000
260.303; -252.100; -768.000; -687.000
260.445; -154.000; -609.000; -613.000
260.586;  108.300;  392.000;  157.000
260.728;  -31.900; -360.000; -248.000
260.869; -133.100; -350.000; -343.000
261.011;  205.000;  706.000;  537.000
261.152; -120.500; -479.000; -319.000
261.293; -149.100; -576.000; -595.000
261.435;  -40.400; -219.000; -184.000
261.576;  -73.900; -455.000; -325.000
261.718;  113.000;  420.000;  470.000
261.859; -246.800; -940.000; -949.000
262.000; -276.200; -951.000;-1016.000
262.142;  -31.200;  -52.000;  -60.000
262.283; -225.500; -808.000; -691.000
262.424; -185.900; -666.000; -625.000
262.566; -312.300;-1161.000; -983.000
262.707; -223.100; -840.000; -830.000
262.848; -254.600; -769.000; -726.000
262.990;  -58.600; -362.000; -345.000
263.131;  155.300;  650.000;  681.000
263.272;   14.000;  -61.000;  -41.000
263.413; -189.100; -589.000; -561.000
263.555; -139.900; -669.000; -143.000
263.696; -186.100; -550.000; -641.000
263.837; -109.700; -449.000; -551.000
263.978;  -15.100;   -5.000;  -77.000
264.119;  -53.600; -283.000; -264.000
264.261; -214.400; -847.000; -630.000
264.402;   41.300;   33.000;   40.000
264.543; -174.200; -509.000; -524.000
264.684;  -16.500;   61.000;  -50.000
264.825; -111.100; -816.000; -538.000
264.966;   26.900;  -84.000;  -67.000
265.107; -234.100; -646.000; -670.000
265.248; -207.300; -825.000; -812.000
265.390;    0.500;  152.000;   -9.000
265.531;  -45.000; -238.000; -107.000
265.672; -156.500; -557.000; -630.000
265.813;  158.900;  563.000;  439.000
265.954; -298.900; -959.000; -940.000
266.095;  -12.000; -372.000; -322.000
266.236; -181.600; -686.000; -548.000
266.377;  -66.500; -243.000; -297.000
266.518; -126.700; -619.000; -547.000
266.659;   84.100;  170.000;  268.000
266.800;    5.300;   83.000;   85.000
266.941; -143.700; -487.000; -478.000
267.082;   67.000;  354.000;   99.000
267.223; -116.200; -344.000; -273.000
267.364; -212.900; -892.000; -686.000
267.504;   -3.100;    3.000;  135.000
267.645;   -9.600;  160.000;   67.000
267.786;  -22.000; -147.000;  -86.000
267.927; -127.200; -473.000; -379.000
268.068;  -17.400; -186.000;  -61.000
268.209;  -84.200; -175.000; -413.000
268.350;  -93.300; -388.000; -532.000
268.490; -179.800; -648.000; -521.000
268.631;   82.000;  127.000;  225.000
268.772; -255.400; -874.000; -647.000
268.913;  -98.100; -328.000; -476.000
269.054;  -13.500; -117.000;   12.000
269.194;  -96.200; -418.000; -402.000
269.335; -296.500;-1137.000;-1074.000
269.476;    4.300;   33.000;  -35.000
269.617;  -32.700; -347.000; -392.000
269.757; -164.200; -713.000; -646.000
269.898; -196.200; -856.000; -613.000
270.039; -124.300; -415.000; -405.000
270.180; -280.300; -952.000; -816.000
270.320;  -39.400; -190.000; -250.000
270.461;  -34.200; -277.000; -249.000
270.602;  -22.600; -186.000; -156.000
270.742; -226.600; -868.000; -943.000
270.883;  -97.600; -442.000; -390.000
271.023; -142.500; -358.000; -357.000
271.164; -137.500; -607.000; -528.000
271.305; -183.000; -666.000; -654.000
271.445; -157.600; -722.000; -683.000
271.586; -118.800; -462.000; -283.000
271.726;  -75.900; -397.000; -322.000
271.867; -122.100; -594.000; -534.000
272.008;  356.800; -473.000; -285.000
272.148;  255.700;  462.000;  468.000
272.289;   34.500; -113.000; -181.000
272.429;   25.400;   19.000;  185.000
272.570; -153.900; -633.000; -737.000
272.710; -194.500; -825.000; -775.000
272.851;  -27.600;  113.000; -130.000
272.991; -322.700;-1173.000;-1077.000
273.131; -128.700; -419.000; -459.000
273.272; -182.700; -683.000; -723.000
273.412;   54.300; -143.000;  -31.000
273.553;  -70.300; -488.000; -507.000
273.693;  326.600;  913.000;  858.000
273.834; -177.600; -894.000; -692.000
273.974; -120.100; -664.000; -615.000
274.114; -207.900; -772.000; -560.000
274.255;  187.000;  414.000;  373.000
274.395;   36.800; -180.000; -125.000
274.535;  128.200;  199.000;  350.000
274.676;   58.900;  225.000;   94.000
274.816;   29.400;  110.000;   34.000
274.956; -153.100; -624.000; -690.000
275.097;  -95.100;-1014.000; -922.000
275.237; -236.600; -913.000; -803.000
275.377; -197.700; -778.000; -689.000
275.517; -289.400; -878.000; -937.000
275.658;  -79.900; -590.000; -555.000
275.798; -137.200; -606.000; -413.000
275.938;   55.500;  215.000;  323.000
276.078; -186.200; -626.000; -395.000
276.218;   34.700;   99.000;  104.000
276.359; -266.700;-1026.000;-1024.000
276.499; -120.500; -605.000; -446.000
276.639;  -52.000; -305.000; -151.000
276.779;  -98.000; -475.000; -357.000
276.919; -191.300; -783.000; -624.000
277.059;   -2.500; -261.000; -212.000
277.199;  -76.900; -357.000; -259.000
277.340;  148.300;  287.000;  175.000
277.480; -195.300; -840.000; -693.000
277.620;   94.400;  192.000;   16.000
277.760; -410.900;-1533.000;-1294.000
277.900;   41.500;  113.000;   33.000
278.040;   40.700;  137.000;  159.000
278.180;  125.700;  270.000;  170.000
278.320;   38.000;   21.000;   56.000
278.460; -134.100; -443.000; -469.000
278.600; -170.500; -708.000; -598.000
278.740;  132.000;  448.000;  224.000
278.880;  -70.700; -768.000; -791.000
279.020;   57.400; -194.000; -144.000
279.160; -146.900; -672.000; -595.000
279.300; -228.600; -926.000; -873.000
279.440; -173.600; -709.000; -622.000
279.579;  -42.000;-1014.000; -929.000
279.719;  -88.300; -410.000; -394.000
279.859;  127.400;   -4.000;   41.000
279.999;   48.600; -208.000;  101.000
280.139;    4.800; -435.000; -387.000
280.279; -145.900; -708.000; -745.000
280.419;  -23.300; -229.000; -147.000
280.559;  -21.600; -259.000; -180.000
280.698; -164.000; -790.000; -639.000
280.838; -156.800; -778.000; -800.000
280.978; -168.100; -846.000; -790.000
281.118; -224.900; -811.000; -704.000
281.257;   41.100;   24.000;    6.000
281.397; -207.500;-1094.000; -960.000
281.537; -139.900; -599.000; -712.000
281.677;  -15.600; -150.000; -101.000
281.816; -173.900; -700.000; -630.000
281.956;  -66.200; -193.000; -257.000
282.096; -122.200; -539.000; -396.000
282.235; -179.100; -672.000; -638.000
282.375;  -15.200; -243.000;  -98.000
282.515; -191.200; -715.000; -707.000
282.654;   97.000;   29.000;  106.000
282.794;   78.300;  388.000;  244.000
282.934;  -84.300; -530.000; -491.000
283.073; -277.000;-1030.000; -857.000
283.213;  -59.800; -460.000; -467.000
283.353;  -58.300; -408.000; -349.000
283.492;  -39.200; -264.000; -296.000
283.632;  -58.600; -254.000; -168.000
283.771; -178.800; -859.000; -730.000
283.911; -110.300; -369.000; -260.000
284.050; -206.800; -794.000; -748.000
284.190; -304.500;-1229.000;-1096.000
284.329; -286.600;-1055.000; -964.000
284.469;  -82.000; -516.000; -591.000
284.608;  -73.500; -559.000; -598.000
284.748; -151.300; -614.000; -570.000
284.887;   25.700;  -87.000;  -20.000
285.027; -235.500; -844.000; -892.000
285.166;  -42.700; -192.000; -249.000
285.306;   55.800; -116.000;  -33.000
285.445;  -67.500; -229.000; -343.000
285.584; -188.200; -630.000; -494.000
285.724;  -71.200; -282.000; -322.000
285.863; -199.500; -857.000; -507.000
286.002;  -82.400; -366.000; -276.000
286.142; -177.000; -715.000; -622.000
286.281; -135.800; -525.000; -493.000
286.420; -136.600; -554.000; -417.000
286.560;  250.300;  653.000;  623.000
286.699; -276.000; -958.000; -912.000
286.838; -156.400; -590.000; -591.000
286.978; -156.900; -533.000; -537.000
287.117; -257.500;-1085.000; -950.000
287.256;  -76.100; -228.000; -211.000
287.395;  -66.800; -197.000; -378.000
287.535;  -88.200; -370.000; -298.000
287.674; -135.300; -509.000; -484.000
287.813;  113.300;  661.000;  533.000
287.952; -232.600;-1010.000; -871.000
288.091; -289.600;-1049.000; -915.000
288.231;   47.100;   13.000;   15.000
288.370; -352.100;-1217.000;-1200.000
288.509; -155.100; -728.000; -645.000
288.648; -173.100; -770.000; -548.000
288.787;    4.500; -243.000;  -87.000
288.926; -120.200; -454.000; -475.000
289.065;  256.100;  859.000;  672.000
289.204;  -96.200; -377.000; -217.000
289.344; -181.800; -791.000; -690.000
289.483;   85.200;  416.000;  304.000
289.622;  -36.600; -291.000; -149.000
289.761;   -8.800; -309.000; -166.000
289.900; -212.700; -785.000; -626.000
290.039;   11.000;  -12.000;  -95.000
290.178;  -44.000; -274.000; -180.000
290.317; -119.700; -618.000; -479.000
290.456; -139.600; -463.000; -451.000
290.595; -278.500; -961.000; -833.000
290.734; -246.900; -904.000; -891.000
290.873; -109.900; -456.000; -420.000
291.011; -207.500; -833.000; -843.000
291.150; -184.900; -770.000; -682.000
291.289;  -29.500; -343.000; -110.000
291.428; -187.300; -599.000; -480.000
291.567;  -81.400; -370.000; -442.000
291.706;   32.000;  109.000;  154.000
291.845; -142.300; -597.000; -505.000
291.984; -312.700;-1234.000;-1061.000
292.122;  179.700;  602.000;  582.000
292.261;   98.500;  620.000;  463.000
292.400;   35.100; -144.000;  211.000
292.539; -231.500; -959.000; -813.000
292.678;  -47.900; -325.000; -300.000
292.816; -278.600;-1136.000; -965.000
292.955; -156.000; -844.000; -684.000
293.094;  -12.200; -173.000; -337.000
293.233;  -63.900; -556.000; -400.000
293.371;  -63.600; -225.000;  -84.000
293.510; -209.900; -866.000; -780.000
293.649; -263.700; -959.000; -924.000
293.787; -120.700;-1083.000;-1012.000
293.926;   25.500; -113.000;  -32.000
294.065;  -50.300; -379.000; -290.000
294.203;  127.200;  298.000;  406.000
294.342;   61.300;   74.000;  156.000
294.481;12857.800;51180.000; -836.000
294.619;  -27.000; -425.000; -582.000
294.758; -281.900;-1230.000;-1137.000
294.896;  189.300; -125.000;    5.000
295.035; -234.100;-1040.000;-1006.000
295.174; -236.200;-1082.000; -954.000
295.312;  -32.000; -323.000; -203.000
295.451;   -3.900; -307.000; -428.000
295.589;  -85.200; -389.000; -518.000
295.728;   59.900; -292.000; -165.000
295.866;   48.100;  -36.000;  -51.000
296.005; -101.400; -584.000; -341.000
296.143; -111.500; -558.000; -596.000
296.282; -199.600; -957.000; -881.000
296.420; -166.400; -657.000; -557.000
296.559; -153.800; -892.000; -633.000
296.697;   48.600; -847.000; -665.000
296.835;  178.600;-1141.000;-1002.000
296.974;  157.400;  -23.000;   39.000
297.112;   81.900; -443.000; -504.000
297.251; -123.500; -815.000; -755.000
297.389;  218.100; -576.000; -438.000
297.527;  100.900; -145.000;  -83.000
297.666;  -78.700; -486.000; -438.000
297.804;  -78.400; -404.000; -264.000
297.942;   11.000; -136.000; -161.000
298.081;   30.900; -183.000;   63.000
298.219;  170.400;  -17.000;  -19.000
298.357;   97.100; -144.000;  -71.000
298.495;   89.700; -810.000; -812.000
298.634;  164.400;  245.000;  219.000
298.772;  194.000; -220.000; -338.000
298.910;  -62.400; -309.000; -182.000
299.048;    7.100; -130.000; -153.000
299.187;   -5.200; -350.000; -250.000
299.325;  108.200;   52.000;  122.000
299.463;  133.800; -389.000; -299.000
299.601;  284.400; -327.000; -271.000
299.739; -173.800; -908.000; -883.000
299.877; -153.700; -791.000; -703.000
300.016; -114.400;-1095.000; -935.000
300.154;  351.800;  -19.000; -161.000
300.292;  144.300; -428.000; -348.000
300.430;  111.600; -408.000; -291.000
300.568; -189.400; -940.000; -874.000
300.706;  -59.300; -366.000; -469.000
300.844; -111.900;-1108.000; -979.000
300.982;  276.400;  246.000;  282.000
301.120; -208.400; -965.000; -866.000
301.258; -107.100; -812.000; -705.000
301.396;  114.300;  104.000;  -41.000
301.534;  211.300; -218.000; -293.000
301.672;   19.800; -664.000; -521.000
301.810;   94.200; -613.000; -545.000
301.948;  326.900;   53.000;  149.000
302.086; 1215.200; -250.000;  -32.000
302.224; 1986.800; -610.000; -585.000
302.362;  132.100; -558.000; -622.000
302.500;  -20.900; -923.000; -893.000
302.638;  247.300;  128.000;  245.000
302.776;   27.400; -352.000; -408.000
302.913;  158.200;  447.000;  236.000
303.051;   40.800;  -86.000;  -23.000
303.189;  167.500;   90.000;  118.000
303.327;  -13.800; -341.000; -256.000
303.465; -109.900; -832.000; -588.000
303.603; -144.000; -805.000; -604.000
303.740;  224.100;  417.000;  241.000
303.878;   78.900; -800.000; -759.000
304.016; -141.700; -915.000; -790.000
304.154; -219.900;-1123.000;-1152.000
304.291;  -30.100; -505.000; -554.000
304.429;   53.100;  102.000;   74.000
304.567; -221.400; -908.000; -893.000
304.705;  -78.300; -408.000; -515.000
304.842;  205.600; -616.000; -540.000
304.980;  156.800;  215.000;   35.000
305.118;  137.100; -367.000; -365.000
305.255; -121.600; -945.000; -927.000
305.393;  149.100;  178.000;  239.000
305.531; -147.500;-1173.000; -956.000
305.668; -108.600; -663.000; -582.000
305.806;  236.500; -358.000; -439.000
305.943;  239.000; -629.000; -637.000
306.081;  155.700; -378.000; -267.000
306.219; -185.800; -863.000; -748.000
306.356;   37.600;  158.000;   27.000
306.494;  266.600;  981.000;  761.000
306.631;   40.300;  -11.000;  -55.000
306.769;   37.000; -613.000; -485.000
306.906;   -6.600; -284.000; -258.000
307.044;  -83.000; -473.000; -488.000
307.181;  -91.400; -410.000; -332.000
307.319;  133.300;  112.000;   87.000
307.456; -295.400;-1191.000;-1153.000
307.594; -175.000; -980.000; -727.000
307.731;   16.600; -371.000; -164.000
307.868;   48.400;  -15.000;   20.000
308.006; -212.600; -961.000; -847.000
308.143;  -70.900; -618.000; -330.000
308.281;  500.000;  -37.000; -254.000
308.418;  106.600; -748.000; -640.000
308.555;  -78.800; -400.000; -250.000
308.693;  -84.500; -577.000; -573.000
308.830; -196.600; -712.000; -657.000
308.967;   13.800; -215.000;  -95.000
309.105;  -60.500; -507.000; -396.000
309.242;  194.800; -468.000; -367.000
309.379; 1010.000; -577.000; -655.000
309.517;  -30.600; -936.000; -948.000
309.654; -162.500; -910.000; -734.000
309.791; -125.700; -662.000; -580.000
309.928; -187.400; -977.000; -914.000
310.065;  429.000;  819.000;  697.000
310.203;   14.400; -825.000; -850.000
310.340;   78.600; -465.000; -321.000
310.477; -132.600; -412.000; -516.000
310.614;  -80.900; -383.000; -473.000
310.751; -115.700; -427.000; -518.000
310.889;   10.500;    1.000;   11.000
311.026; -283.200;-1161.000; -939.000
311.163;  -64.800; -386.000; -380.000
311.300; -108.600; -512.000; -479.000
311.437; -111.500; -658.000; -619.000
311.574; -300.100;-1226.000; -985.000
311.711;  -89.000; -595.000; -433.000
311.848;  -44.200; -380.000; -388.000
311.985;   49.500;  270.000;   93.000
312.122; -208.800; -932.000; -762.000
312.259; -204.900; -941.000; -994.000
312.396; -148.600; -508.000; -551.000
312.533; -141.000; -812.000; -790.000
312.670; -213.100;-1070.000; -898.000
312.807;   -5.400; -352.000; -367.000
312.944; -103.400; -513.000; -611.000
313.081;  -37.200; -150.000; -415.000
313.218; -188.900;-1111.000; -867.000
313.355;   70.500; -531.000; -449.000
313.492;   79.200; -455.000; -292.000
313.629;  304.600;  815.000;  735.000
313.766; -278.900;-1176.000;-1008.000
313.902;   33.000; -186.000;   21.000
314.039;  -47.500; -372.000; -289.000
314.176;   92.200;  286.000;  192.000
314.313; -112.500; -569.000; -473.000
314.450; -136.400; -788.000; -684.000
314.587;  -82.700; -468.000; -480.000
314.723;   80.700;  -78.000;  130.000
314.860;  156.700;  318.000;  332.000
314.997;  127.900;  223.000;  142.000
315.134;  -73.800; -385.000; -368.000
315.270;    4.000; -480.000; -496.000
315.407; -219.300;-1094.000; -967.000
315.544;  -52.700; -657.000; -538.000
315.681; -128.200; -681.000; -565.000
315.817;  107.900; -133.000; -176.000
315.954;   59.200; -613.000; -392.000
316.091; -255.400;-1045.000;-1023.000
316.227;    3.900;  -71.000; -179.000
316.364;   51.400;   23.000;    6.000
316.500;  -53.600; -113.000; -300.000
316.637;  -54.400; -181.000; -302.000
316.774; -127.200; -625.000; -358.000
316.910; -163.100; -598.000; -629.000
317.047;  -87.900; -487.000; -351.000
317.183;  -39.600; -435.000; -566.000
317.320;  -11.500; -367.000; -321.000
317.456; -114.600; -733.000; -805.000
317.593; -152.700; -598.000; -641.000
317.729;   52.100;  168.000;  -67.000
317.866; -388.300;-1434.000;-1285.000
318.002; -163.100; -708.000; -948.000
318.139; -159.700; -883.000; -867.000
318.275; -173.800;-1003.000; -738.000
318.412; -126.600; -517.000; -336.000
318.548;  -18.800; -751.000; -720.000
318.685; -176.200; -985.000; -888.000
318.821; -152.500; -762.000; -735.000
318.957;   -4.700;   34.000;  -23.000
319.094;  131.100;  297.000;  154.000
319.230; -124.000; -756.000; -742.000
319.367;  267.700; -471.000; -520.000
319.503;  160.600; -538.000; -436.000
319.639; -176.000; -877.000; -793.000
319.775;  -99.200; -750.000; -685.000
319.912;  -47.200; -424.000; -519.000
320.048; -132.100;-1184.000;-1184.000
320.184;  220.100;   59.000;   70.000
320.321;  -85.000; -497.000; -467.000
320.457;  183.400;  475.000;  662.000
320.593;  -94.500; -375.000; -382.000
320.729; -173.500; -732.000; -734.000
320.866; -114.500; -577.000; -635.000
321.002; -117.500; -759.000; -809.000
321.138;   11.600; -135.000; -211.000
321.274;  177.600; -148.000; -115.000
321.410;    2.700; -585.000; -353.000
321.546;  -13.000;-1011.000; -911.000
321.683;  147.600;  400.000;  185.000
321.819;   43.000;  -48.000; -117.000
321.955; -208.100; -743.000; -722.000
322.091;  -68.000; -585.000; -540.000
322.227;   45.700; -382.000; -202.000
322.363;  -20.700; -320.000; -215.000
322.499;  -61.700; -343.000; -331.000
322.635;  380.100;  636.000;  443.000
322.771;  102.500; -139.000;   12.000
322.907;  248.500;  129.000;  327.000
323.043;   25.300; -115.000; -206.000
323.179;  -38.800; -394.000; -363.000
323.315;   78.800; -401.000; -371.000
323.451;  249.000; -328.000; -236.000
323.587;  171.000;  -60.000;  -77.000
323.723;   50.800; -682.000; -601.000
323.859;   -1.300; -258.000;  -76.000
323.995;  -42.500; -467.000; -409.000
324.131; -234.700; -967.000; -892.000
324.267;  -45.600; -254.000; -276.000
324.402; -237.400; -960.000; -983.000
324.538;    5.500; -279.000; -104.000
324.674;   94.600;  164.000;   77.000
324.810;  312.600;  226.000;  308.000
324.946;   51.700; -810.000; -658.000
325.082;  -71.100; -568.000; -475.000
325.217;    5.700;  -62.000;   16.000
325.353; -163.300; -764.000; -659.000
325.489; -135.100; -540.000; -506.000
325.625; -117.700; -579.000; -525.000
325.760;  164.600;  517.000;  376.000
325.896;  -58.900; -515.000; -702.000
326.032;  -81.800; -403.000; -352.000
326.168;  -95.400; -462.000; -369.000
326.303;  -71.300; -352.000; -461.000
326.439;   -1.200; -336.000; -276.000
326.575;   43.000; -190.000;  -29.000
326.710;   37.300; -156.000;  -30.000
326.846;   12.900;  146.000;  103.000
326.982; -172.600; -530.000; -548.000
327.117; -108.500; -481.000; -442.000
327.253; -138.800; -745.000; -742.000
327.388; -215.100;-1137.000;-1153.000
327.524;  -49.300; -811.000; -578.000
327.659;  -23.000;  -58.000;  -22.000
327.795;   37.700;   69.000;   45.000
327.931; -157.200; -723.000; -499.000
328.066;  -34.600; -417.000; -276.000
328.202;   37.900;   12.000; -129.000
328.337;  269.700;  957.000;  713.000
328.473;   27.600;  -12.000;  -74.000
328.608;   12.100; -256.000; -267.000
328.743; -145.100; -799.000; -664.000
328.879;   99.900;  214.000;  114.000
329.014; -102.500; -102.000; -122.000
329.150; -150.500; -358.000; -483.000
329.285; -113.600; -465.000; -466.000
329.421;  -60.100; -548.000; -246.000
329.556;    0.000;  -36.000;   85.000
329.691; -185.700; -633.000; -615.000
329.827; -132.100; -626.000; -480.000
329.962;  -18.100;  131.000; -301.000
330.097; -131.400; -673.000; -585.000
330.233;  -49.800; -410.000; -223.000
330.368; -219.700; -839.000; -628.000
330.503;   24.500;    3.000;   98.000
330.638;   48.200;  -93.000; -125.000
330.774;  -86.900; -609.000; -530.000
330.909;  -52.100; -434.000; -244.000
331.044; -126.900; -714.000; -708.000
331.179; -302.800;-1217.000;-1109.000
331.315;   77.200;   77.000;   20.000
331.450;   79.200;  157.000;  285.000
331.585; -153.300; -805.000; -706.000
331.720; -146.600; -510.000; -460.000
331.855;   16.400;  -35.000; -102.000
331.990;  486.400;   62.000;  138.000
332.126;  296.300; -110.000;   71.000
332.261;  -21.900; -379.000; -265.000
332.396;   25.700; -135.000; -242.000
332.531; -193.700;-1074.000;-1031.000
332.666;   90.400; -519.000; -363.000
332.801; -161.000; -726.000; -807.000
332.936;    6.800; -192.000; -122.000
333.071; -224.900; -870.000; -817.000
333.206;   75.200;  307.000;  379.000
333.341;  104.200;  344.000;  418.000
333.476; -134.800; -627.000; -623.000
333.611;  -18.800; -251.000; -173.000
333.746;  -85.300; -381.000; -464.000
333.881; -209.400; -973.000; -935.000
334.016; -212.600; -936.000; -917.000
334.151; -234.100; -746.000; -702.000
334.286;   88.000;  152.000;  186.000
334.421;   -3.900; -125.000; -178.000
334.556; -148.600; -611.000; -567.000
334.690; -111.600; -631.000; -577.000
334.825;  149.500;  381.000;   83.000
334.960;  -97.700; -285.000; -413.000
335.095;   66.600;  135.000;  -91.000
335.230; -165.100; -722.000; -738.000
335.365; -244.800;-1084.000; -990.000
335.499; -222.800;-1108.000;-1037.000
335.634;   95.400;    9.000;  534.000
335.769; -159.700; -755.000; -720.000
335.904;  -69.400; -603.000; -561.000
336.038;  -72.900; -735.000; -657.000
336.173; -197.500;-1206.000;-1194.000
336.308;   68.000; -116.000; -189.000
336.443;  134.200; -544.000; -634.000
336.577; -134.400; -936.000; -787.000
336.712;  178.800;   -4.000;  -12.000
336.847;  -66.200; -724.000; -607.000
336.981;  198.300; -272.000; -208.000
337.116;  636.400;  615.000;  501.000
337.250;  354.700; -434.000; -421.000
337.385;  514.300; -297.000; -208.000
337.520;  183.600; -632.000; -603.000
337.654;  -25.000; -215.000; -126.000
337.789; -240.100; -989.000; -933.000
337.923;  -15.100; -104.000; -205.000
338.058; -148.700; -673.000; -738.000
338.192;  -25.600; -611.000; -488.000
338.327;   19.200;  -18.000; -155.000
338.461; -116.800; -299.000; -469.000
338.596; -167.600; -780.000; -638.000
338.730; -146.900; -767.000; -803.000
338.865;  204.700;  -46.000; -140.000
338.999;  -91.300; -846.000; -702.000
339.134;   -6.700; -634.000; -536.000
339.268;   55.600; -741.000; -603.000
339.403;  719.200; -740.000; -775.000
339.537;  255.500; -894.000; -820.000
339.671; -173.100; -829.000; -813.000
339.806;  -89.800; -556.000; -512.000
339.940;   39.600; -261.000; -235.000
340.074; -143.600; -685.000; -510.000
340.209;  -60.800; -351.000; -230.000
340.343; -148.200; -517.000; -573.000
340.477;  361.500;  998.000; 1036.000
340.612; -108.700;-1033.000; -900.000
340.746;  264.500; -199.000; -243.000
340.880; -109.700; -924.000; -785.000
341.014;   13.400;  -45.000; -154.000
341.149; -199.700; -756.000; -718.000
341.283; -186.800; -839.000; -754.000
341.417; -182.900;-1124.000; -938.000
341.551;  312.100; -768.000; -708.000
341.685;  -41.500; -633.000; -611.000
341.820;  -57.600; -562.000; -493.000
341.954;  -42.700; -218.000; -349.000
342.088; -259.700;-1102.000;-1019.000
342.222;  136.700;  565.000;  618.000
342.356;  -74.000; -395.000; -335.000
342.490; -161.400; -880.000; -841.000
342.624;   -8.000; -339.000; -242.000
342.758;   10.600; -364.000; -312.000
342.892;  -67.000; -710.000; -585.000
343.026;  -31.700;  -58.000; -116.000
343.160;  -68.900; -426.000; -376.000
343.294; -118.200; -474.000; -337.000
343.428;  -35.600; -488.000; -448.000
343.562;   24.300; -172.000;  -23.000
343.696;   11.600; -385.000; -314.000
343.830;   22.200; -362.000; -356.000
343.964;   81.600; -231.000; -168.000
344.098; 1872.800;  199.000;   70.000
344.232; 1581.600; -266.000; -127.000
344.366;  202.300; -567.000; -453.000
344.500;  191.900; -665.000; -744.000
344.634;  106.100; -324.000; -164.000
344.768;   45.200; -531.000; -341.000
344.902;  109.400;  278.000;  256.000
345.035; -108.500; -556.000; -496.000
345.169; -260.500; -933.000; -656.000
345.303;   -9.200; -308.000; -482.000
345.437;  -98.900; -826.000; -717.000
345.571; -111.400; -675.000; -594.000
345.704; -106.600; -309.000; -532.000
345.838;   -6.300; -331.000; -284.000
345.972;  -41.700; -543.000; -495.000
346.106;  346.200; -179.000; -190.000
346.239;  855.200; -312.000; -243.000
346.373;   38.200; -343.000; -302.000
346.507; -280.800; -950.000; -962.000
346.640;  350.300;  -30.000;   13.000
346.774;  -32.600; -650.000; -797.000
346.908;   60.200; -138.000;  -11.000
347.041; -161.400; -646.000; -593.000
347.175;   77.300;  259.000;   27.000
347.309; -108.900; -698.000; -628.000
347.442; -180.200; -883.000; -732.000
347.576;  645.700;  670.000;  668.000
347.709;  473.000; -123.000;  -52.000
347.843; -159.300; -933.000; -825.000
347.976;  127.300;  235.000;  294.000
348.110; -326.100;-1268.000;-1186.000
348.243; -169.700; -679.000; -772.000
348.377;   70.000;  -26.000;   60.000
348.510;  166.400;  403.000;  540.000
348.644;  -21.800;  -37.000; -159.000
348.777;   55.100;  180.000;  191.000
348.911;  -58.700; -142.000; -112.000
349.044;  377.900;  471.000;  448.000
349.178;  355.900;-1069.000;-1006.000
349.311;  259.800;  141.000;  255.000
349.444;   10.600; -927.000; -813.000
349.578;   -4.600; -347.000; -200.000
349.711; -159.200; -959.000; -862.000
349.845;   44.700; -661.000; -591.000
349.978; -283.300;-1224.000;-1137.000
350.111; -110.400; -546.000; -612.000
350.244; -133.100; -596.000; -700.000
350.378;   65.900; -392.000; -393.000
350.511;  -97.600; -393.000; -426.000
350.644; -190.800; -808.000; -806.000
350.778;   67.900;  168.000;  104.000
350.911;   49.300;  134.000;  140.000
351.044; -186.900; -685.000; -615.000
351.177;  -15.500; -321.000; -281.000
351.310;    8.500;    3.000; -131.000
351.444; -101.600; -888.000; -788.000
351.577;  292.900;  140.000;   90.000
351.710;  270.200;  593.000;  417.000
351.843;    0.100; -165.000;  -77.000
351.976;   31.800;  149.000;  -79.000
352.109; -143.400; -621.000; -612.000
352.242;   -0.600; -464.000; -419.000
352.376;  -71.100; -580.000; -636.000
352.509;  405.000; -437.000; -356.000
352.642;   85.800; -654.000; -604.000
352.775;  173.000; -141.000;  -98.000
352.908; -194.900; -933.000; -904.000
353.041; -177.900; -814.000; -824.000
353.174;  -76.800; -551.000; -424.000
353.307; -124.500; -753.000; -764.000
353.440;  189.000;  541.000;  453.000
353.573; -180.000; -957.000;-1008.000
353.706;  -77.000; -384.000; -558.000
353.839;   -7.200; -264.000; -220.000
353.971; -119.900; -657.000; -512.000
354.104;  -96.100; -896.000; -835.000
354.237;    2.400; -627.000; -662.000
354.370; -134.000; -846.000; -879.000
354.503; -324.200;-1231.000;-1308.000
354.636;  -21.000; -529.000; -348.000
354.769; -230.900; -937.000; -860.000
354.902;   32.600; -230.000; -139.000
355.034;   20.400; -164.000; -220.000
355.167;    4.200; -262.000; -162.000
355.300; -160.700;-1061.000; -880.000
355.433; 1918.700;  -71.000;  -14.000
355.565; 2878.800; -402.000; -384.000
355.698;  765.600; -356.000; -296.000
355.831;   20.900; -882.000; -801.000
355.964;  218.000; -285.000; -170.000
356.096;  -94.800; -856.000; -843.000
356.229;   53.100; -523.000; -530.000
356.362;  661.900; -373.000; -266.000
356.494; 1225.700; -229.000; -162.000
356.627; 1030.500;  269.000;  377.000
356.760; 1332.500;  120.000;   53.000
356.892; 1895.300; -286.000; -601.000
357.025; 1383.600;  403.000;  389.000
357.157; 1246.800; -167.000; -179.000
357.290; 1269.600; -856.000; -713.000
357.423;  371.100; -667.000; -556.000
357.555;  308.100; -217.000; -228.000
357.688;  296.300; -483.000; -364.000
357.820;  881.700; -870.000; -877.000
357.953; 7240.600; -563.000; -589.000
358.085; 1647.200; -632.000; -612.000
358.218; 2458.300;-1131.000; -932.000
358.350;  502.800;  -58.000;  312.000
358.483; -191.600;-1300.000;-1187.000
358.615;   -8.200;-1182.000;-1078.000
358.747;  -84.600;-1187.000;-1058.000
358.880;  132.700; -810.000; -744.000
359.012;   22.800; -376.000; -202.000
359.145;  -56.300; -480.000; -511.000
359.277;  148.900; -962.000; -913.000
359.409; 6153.200;  536.000;  231.000
359.542; 1529.600; -738.000; -688.000
359.674;  155.300;   46.000;   13.000
359.806;  -81.400; -565.000; -438.000
359.939;  -35.200; -617.000; -516.000
360.071;   -8.100; -583.000; -579.000
360.203;   14.000; -411.000; -364.000
360.335;  143.100;  164.000;  -16.000
360.468;  421.800; -249.000; -307.000
360.600; 4798.300; -547.000; -454.000
360.732; 5382.500; -546.000; -423.000
360.864;  708.300;-1216.000;-1044.000
360.996;  612.600; -516.000; -554.000
361.129;  115.600; -389.000; -598.000
361.261;  107.700;  110.000; -113.000
361.393;   13.000; -252.000; -214.000
361.525;  149.400;   94.000;  244.000
361.657;  -24.800; -821.000; -703.000
361.789;   38.600; -139.000; -155.000
361.921;  517.600; -642.000; -593.000
362.053;  563.400;  524.000;  541.000
362.185;  140.000;  288.000;   72.000
362.318; -139.500; -709.000; -705.000
362.450;  325.900;  294.000;  444.000
362.582;  315.500; -913.000; -870.000
362.714;  -42.400; -353.000; -332.000
362.846; -135.700; -606.000; -490.000
362.978; -250.400; -941.000; -811.000
363.109;  182.500; -161.000; -260.000
363.241;  934.100; -739.000; -749.000
363.373;  870.600; -649.000; -564.000
363.505; 1300.100; -186.000;  -91.000
363.637;  296.500; -787.000; -601.000
363.769; -179.900;-1067.000;-1080.000
363.901;  -99.600; -596.000; -654.000
364.033; -181.900;-1103.000;-1062.000
364.165;   61.700; -283.000; -283.000
364.296;  194.000; -316.000; -177.000
364.428;  137.300;-1344.000;-1220.000
364.560; -107.500; -679.000; -661.000
364.692;  -89.500; -738.000; -835.000
364.824;  646.000; -588.000; -456.000
364.955;  912.100; -402.000; -564.000
365.087; 1756.200;-1097.000; -852.000
365.219;  105.000; -686.000; -816.000
365.351;  -87.100; -526.000; -572.000
365.482;  188.200;  300.000;  240.000
365.614;  -32.700; -402.000; -314.000
365.746; -171.300; -729.000; -752.000
365.877; -181.300; -706.000; -672.000
366.009;  570.000;  -35.000;  -62.000
366.141; -181.400;-1249.000;-1134.000
366.272; -192.700; -803.000; -719.000
366.404; -193.600;-1005.000; -874.000
366.535;   18.700; -139.000;  -12.000
366.667; -179.100; -644.000; -649.000
366.799;  121.200;  353.000;  203.000
366.930; -208.000; -862.000; -996.000
367.062;  267.300; -639.000; -613.000
367.193;  290.200; -872.000; -842.000
367.325;  -93.500; -580.000; -684.000
367.456;  179.400; -246.000;   31.000
367.588;  359.000; -371.000; -318.000
367.719;   95.500;  -44.000;  -45.000
367.851;   41.900; -222.000; -241.000
367.982;  -37.900; -875.000; -732.000
368.113;  254.300; -475.000; -358.000
368.245; -172.000; -960.000; -841.000
368.376;   33.100; -254.000; -302.000
368.508;    4.300; -188.000; -263.000
368.639; -231.700;-1166.000;-1034.000
368.770;   -6.700; -670.000; -589.000
368.902; -110.000; -836.000; -926.000
369.033; -180.700; -906.000; -855.000
369.164;  -90.100; -720.000; -653.000
369.296; -169.600; -452.000; -601.000
369.427;   47.800; -209.000; -144.000
369.558;  -57.200; -593.000; -377.000
369.689; -138.500; -721.000; -569.000
369.821; -233.300; -951.000; -845.000
369.952;    0.500;   42.000; -108.000
370.083;  -42.000; -229.000; -108.000
370.214; -151.400; -735.000; -650.000
370.345;   29.500;   65.000;   81.000
370.477; -123.700; -810.000; -790.000
370.608;  506.200; -328.000; -264.000
370.739;  -78.400;-1233.000;-1292.000
370.870;  -35.700;-1102.000; -923.000
371.001;  232.300; -378.000; -467.000
371.132; -133.900; -754.000; -735.000
371.263;   14.100;  -42.000; -148.000
371.394; -211.400; -841.000; -748.000
371.525;  111.800;  345.000;  225.000
371.657; -133.800; -808.000; -670.000
371.788;  192.200;  103.000;  199.000
371.919;  364.000; -384.000; -304.000
372.050; 7354.300;  -91.000; -156.000
372.181; 2109.400; -188.000; -294.000
372.311;  831.000;   42.000; -127.000
372.442;  138.500; -457.000; -451.000
372.573;   18.200; -444.000; -340.000
372.704; -181.700;-1008.000; -980.000
372.835;  205.400; -228.000; -289.000
372.966;  -77.100; -646.000; -554.000
373.097;  -74.000; -575.000; -711.000
373.228;   -2.000; -717.000; -542.000
373.359;  331.800; -824.000; -536.000
373.490; 1953.800; -881.000; -727.000
373.620; 2388.000;-1001.000; -803.000
373.751; 3657.000; -332.000; -396.000
373.882; 1604.600; -663.000; -733.000
374.013;  178.900; -449.000; -262.000
374.143;  -40.700; -581.000; -659.000
374.274; -171.300; -987.000; -908.000
374.405;  420.000; -388.000; -276.000
374.536;  982.900; -526.000; -387.000
374.666; 2422.900; -759.000; -807.000
374.797;  536.800; -817.000; -868.000
374.928; 1812.800; -710.000; -560.000
375.058; 1868.400; -535.000; -500.000
375.189;  231.300;  -59.000;  -93.000
375.320; -173.800; -928.000;-1034.000
375.450;  -24.100; -625.000; -616.000
375.581;  -74.300; -526.000; -436.000
375.712;    5.200; -574.000; -250.000
375.842;  708.500; -438.000; -415.000
375.973;  511.400; -554.000; -513.000
376.103;  -16.000; -665.000; -648.000
376.234; -109.800; -531.000; -552.000
376.364;    3.000; -944.000; -867.000
376.495;  757.900;  925.000;  529.000
376.625;   92.600; -472.000; -485.000
376.756;  170.900; -709.000; -678.000
376.886; -105.700;-1178.000;-1026.000
377.017;  122.200;-1048.000;-1061.000
377.147;  680.500; -786.000; -782.000
377.278;  211.800;  174.000;  228.000
377.408; -205.000; -801.000; -815.000
377.538; -149.700; -707.000; -693.000
377.669; -107.000; -537.000; -613.000
377.799; -136.000; -645.000; -635.000
377.929;  -49.900; -610.000; -428.000
378.060; -227.800; -781.000; -847.000
378.190;  -98.000; -726.000; -531.000
378.320;  -29.200; -401.000; -406.000
378.451;   72.200; -131.000;  -22.000
378.581;   67.300;  -67.000; -110.000
378.711;  409.200; 1035.000;  866.000
378.841;   20.000; -533.000; -675.000
378.972;  -72.800; -871.000; -751.000
379.102;   36.800; -652.000; -579.000
379.232;   -9.400; -126.000;  -73.000
379.362; -154.800;-1001.000; -885.000
379.492;  108.000; -373.000; -424.000
379.623;  313.600;    0.000;  111.000
379.753; -163.600;-1107.000; -974.000
379.883;  419.100;   59.000;  156.000
380.013;   35.200;-1081.000;-1017.000
380.143; -171.200;-1097.000;-1056.000
380.273; -159.600; -985.000; -861.000
380.403;   58.900; -344.000; -257.000
380.533;   -4.000; -651.000; -664.000
380.663;  231.700;  173.000;  128.000
380.793; -130.000;-1027.000;-1074.000
380.923;   11.100; -103.000;  -34.000
381.053; -122.800; -613.000; -623.000
381.183;  -34.800; -106.000; -248.000
381.313;  138.800; -656.000; -470.000
381.443;  136.000; -692.000; -473.000
381.573;  491.400; -402.000; -409.000
381.703;  618.900;-1249.000;-1095.000
381.833; -191.100;-1454.000;-1336.000
381.963;  263.700; -134.000;  -87.000
382.093; 2854.000; -925.000; -909.000
382.223;  790.900; -713.000; -602.000
382.353;  -11.800; -801.000; -608.000
382.482;  873.900;-1091.000; -964.000
382.612; 1593.400; -872.000; -644.000
382.742;  891.800; -695.000; -622.000
382.872;  605.000; -565.000; -551.000
383.002;  192.900;  347.000; -132.000
383.131;   46.100; -226.000; -160.000
383.261;  -74.200; -706.000; -768.000
383.391;  656.400; -552.000; -377.000
383.521; 6219.400;  451.000;  263.000
383.650; 1388.500; -947.000; -904.000
383.780;    8.400; -783.000; -656.000
383.910;  283.900;  880.000;  802.000
384.039;   88.700; -794.000; -656.000
384.169;  484.700;-1205.000;-1017.000
384.299;   57.100; -650.000; -662.000
384.428; -130.000; -764.000; -680.000
384.558;  -36.400; -308.000; -275.000
384.687;   18.700; -414.000; -334.000
384.817;  132.200;   75.000;   -2.000
384.947;   95.900; -234.000; -141.000
385.076;  724.500;  982.000;  912.000
385.206;  265.300;  369.000;  480.000
385.335;  -25.200; -549.000; -417.000
385.465;  -97.900; -655.000; -663.000
385.594;  360.300;  -53.000;  -44.000
385.724;  955.300; -868.000; -838.000
385.853;  315.800; -296.000; -270.000
385.982; 2951.500; -743.000; -787.000
386.112; 4306.900;-1052.000; -871.000
386.241;  309.900; -307.000; -312.000
386.371;   95.200; -174.000;  -87.000
386.500;   55.500; -825.000; -789.000
386.629;  103.300; -874.000; -817.000
386.759;  204.900;  -43.000;   68.000
386.888;   67.900; -170.000; -250.000
387.017; -112.500; -648.000; -620.000
387.147;  -76.900; -771.000; -798.000
387.276;   65.900; -410.000; -397.000
387.405;   76.800; -398.000; -342.000
387.535;  -47.600; -452.000; -361.000
387.664;  -69.300; -692.000; -620.000
387.793;  167.700; -198.000; -113.000
387.922; 1163.300;  255.000;  200.000
388.052;   95.700; -576.000; -423.000
388.181;   99.400; -342.000; -472.000
388.310;  103.600; -889.000; -710.000
388.439;  -10.300; -749.000; -742.000
388.568;  466.100;  365.000;  244.000
388.697; 2250.200; -756.000; -653.000
388.826;  436.400; -768.000; -666.000
388.956;  181.300; -285.000; -307.000
389.085;    6.100; -347.000; -287.000
389.214; -169.600; -842.000; -872.000
389.343;  -85.600; -645.000; -413.000
389.472;  872.900;  126.000;  149.000
389.601; 1050.700;   91.000;    0.000
389.730;   29.900; -568.000; -687.000
389.859;  181.400;  226.000;   46.000
389.988;  465.100; -423.000; -408.000
390.117;  332.400; -168.000; -146.000
390.246;   57.800; -331.000; -320.000
390.375;  252.900; -673.000; -626.000
390.504;  -78.500; -703.000; -621.000
390.633; -135.900; -672.000; -726.000
390.761;  -78.000; -732.000; -645.000
390.890;  117.600;   -4.000; -130.000
391.019;   40.000; -421.000; -441.000
391.148; -199.500; -826.000; -855.000
391.277;  -75.500; -576.000; -493.000
391.406; -107.500; -821.000; -805.000
391.534;  114.700;  574.000; -301.000
391.663;  -66.300; -583.000; -645.000
391.792; -118.900; -673.000; -701.000
391.921;  315.500;   -3.000;   15.000
392.050;  458.700; -287.000; -228.000
392.178;  -10.100;-1206.000;-1061.000
392.307;  353.700; -758.000; -712.000
392.436;  172.100; -427.000; -641.000
392.564;  115.800;  166.000;   -6.000
392.693; -141.500; -860.000; -682.000
392.822;  485.700; -529.000; -534.000
392.950;  257.900; -880.000; -714.000
393.079;  767.700; -188.000; -328.000
393.208;   77.600; -488.000; -511.000
393.336;   45.000; -170.000; -145.000
393.465;  -30.700; -317.000; -199.000
393.593;   53.000;   62.000;   79.000
393.722; -275.300;-1121.000; -916.000
393.850;  -22.400; -188.000;  -61.000
393.979; -263.700; -926.000; -805.000
394.107;  -91.600; -517.000; -537.000
394.236;   14.500; -570.000; -507.000
394.364;  687.100;  383.000;  206.000
394.493; 1154.800; -911.000; -767.000
394.621;   62.100; -955.000; -916.000
394.750; 1476.400; -873.000; -923.000
394.878; 5941.500; -247.000; -149.000
395.007; 7587.800; -721.000; -807.000
395.135;  570.300; -790.000; -721.000
395.263; -170.000;-1038.000;-1040.000
395.392;   85.800;  -25.000; -107.000
395.520; -201.800; -818.000; -679.000
395.648; -126.100; -865.000; -915.000
395.777;   31.500; -366.000; -405.000
395.905;  -27.300; -449.000; -564.000
396.033;  113.500;  217.000;  172.000
396.162; 1888.400; -399.000; -453.000
396.290; 1504.000;  -17.000;   -2.000
396.418;  306.900; -555.000; -514.000
396.546;  -66.900; -571.000; -466.000
396.674; -150.200; -850.000; -878.000
396.803;  113.900;  -72.000;  -23.000
396.931;  278.600; -179.000; -199.000
397.059;  160.100;-1026.000; -989.000
397.187; -152.900;-1026.000; -975.000
397.315; -221.000; -884.000; -649.000
397.443; -158.100; -592.000; -443.000
397.572; -175.900; -578.000; -424.000
397.700;   32.800; -607.000; -614.000
397.828;  101.700;  120.000;  -90.000
397.956;  -53.400; -508.000; -478.000
398.084;  -95.500; -767.000; -626.000
398.212;  151.300;  137.000;  124.000
398.340;  115.300;  -56.000;  159.000
398.468;  120.000; -390.000; -169.000
398.596; -222.500; -993.000; -953.000
398.724; -206.600; -762.000; -767.000
398.852; -289.000;-1024.000; -976.000
398.980;  -54.800; -560.000; -560.000
399.108;  -42.500; -982.000; -735.000
399.236;  118.700;   13.000;    8.000
399.363;   73.300;  222.000;  196.000
399.491;  -53.100; -404.000; -398.000
399.619; -170.200; -829.000; -800.000
399.747; -153.800; -859.000; -771.000
399.875;  233.700;  220.000;  234.000
400.003;  -42.100; -359.000; -284.000
400.130; -132.400; -421.000; -341.000
400.258;  -19.700;  -83.000;   38.000
400.386;  -65.800; -352.000; -168.000
400.514;  -43.300; -526.000; -587.000
400.641; -125.600; -928.000; -802.000
400.769; -247.800; -979.000; -888.000
400.897; -130.700; -838.000; -793.000
401.025;   44.700; -166.000; -152.000
401.152;   58.900;  220.000;   38.000
401.280; -102.800; -430.000; -429.000
401.408; -188.400; -712.000; -576.000
401.535; -133.000; -735.000; -758.000
401.663; -348.200;-1134.000;-1054.000
401.790; -110.200; -514.000; -525.000
401.918;  152.700;  436.000;  405.000
402.046;    6.600;  134.000;  122.000
402.173;   -6.100;  -18.000;    7.000
402.301;  -92.300; -519.000; -397.000
402.428;  144.300;  528.000;  383.000
402.556; -221.000;-1188.000; -913.000
402.683;    2.200;  -20.000;   -1.000
402.811;   25.000;  -37.000; -206.000
402.938;   41.200;   20.000;   27.000
403.066;  427.100; -574.000; -558.000
403.193;  672.900;  299.000;  239.000
403.321;  573.800; -396.000; -574.000
403.448;  702.900;   83.000;   27.000
403.575;  339.700;  -90.000;  -46.000
403.703; -130.600; -732.000; -557.000
403.830;  -78.000; -531.000; -496.000
403.957; -239.500;-1117.000;-1023.000
404.085;   91.000;  -61.000; -172.000
404.212;  248.500;  -50.000;   63.000
404.339;  577.400; -566.000; -306.000
404.467;11706.600; -612.000; -524.000
404.594; 7392.500; -287.000; -227.000
404.721; 1718.100; -869.000; -764.000
404.848;  201.700; -113.000; -202.000
404.976; -195.100; -856.000; -783.000
405.103;   14.300;  -14.000;  -82.000
405.230;   40.100;  190.000;  226.000
405.357;  155.800;  117.000;   44.000
405.484;  548.100;  -49.000;    5.000
405.612;  143.800; -548.000; -563.000
405.739;  -72.600; -488.000; -243.000
405.866;  247.800;  669.000;  385.000
405.993;  -35.900; -398.000; -102.000
406.120; -210.700; -801.000; -887.000
406.247;  -40.200; -323.000; -342.000
406.374; 1057.900;  540.000;  629.000
406.501;  303.400; -632.000; -702.000
406.628;  -96.600; -621.000; -589.000
406.755; -147.600; -803.000; -620.000
406.882;  -36.500; -228.000; -277.000
407.009; -152.700; -719.000; -628.000
407.136;  185.600; -480.000; -401.000
407.263;  343.800; -939.000; -829.000
407.390; -114.300; -692.000; -614.000
407.517; -307.900;-1139.000;-1187.000
407.644;  -63.000; -332.000; -256.000
407.771;  -76.600; -249.000; -287.000
407.898;   90.300;  168.000;  328.000
408.025;  -85.800; -421.000; -313.000
408.151;   38.000;   82.000;  153.000
408.278; -129.600; -267.000; -216.000
408.405; -174.600; -931.000; -899.000
408.532; -113.400; -549.000; -542.000
408.659; -168.000; -677.000; -648.000
408.785; -334.900;-1298.000;-1170.000
408.912;  -57.400; -412.000; -296.000
409.039; -154.200; -610.000; -686.000
409.166; -143.300; -591.000; -555.000
409.292; -165.100; -571.000; -534.000
409.419; -170.700; -665.000; -649.000
409.546; -101.100; -431.000; -192.000
409.672; -133.800; -713.000; -545.000
409.799;    8.900;  -36.000;   34.000
409.926;  -41.500; -180.000; -179.000
410.052; -294.900;-1127.000;-1091.000
410.179;  -60.500; -368.000; -392.000
410.305; -119.100; -375.000; -493.000
410.432;  -24.700; -220.000; -333.000
410.558; -136.500; -305.000; -380.000
410.685; -163.300; -688.000; -431.000
410.812; -153.800; -409.000; -588.000
410.938; -216.500; -964.000; -808.000
411.065; -157.500; -671.000; -645.000
411.191;    6.100; -189.000; -174.000
411.317; -193.600; -823.000; -742.000
411.444;  -69.700; -317.000; -246.000
411.570;  -62.700; -339.000; -294.000
411.697; -188.900; -758.000; -752.000
411.823; -307.600; -989.000; -999.000
411.949;   16.100;  -56.000;   17.000
412.076; -189.900; -539.000; -519.000
412.202; -178.200; -758.000; -757.000
412.329; -195.600; -798.000; -752.000
412.455; -153.400; -821.000; -657.000
412.581;   17.000;  -15.000;  172.000
412.707; -102.300; -540.000; -457.000
412.834;   66.300;  156.000;  219.000
412.960; -102.500; -785.000; -784.000
413.086; -171.800; -743.000; -701.000
413.212;  401.700;  604.000;  578.000
413.339; -108.000; -685.000; -701.000
413.465;   91.500; -364.000; -310.000
413.591; -133.500; -757.000; -474.000
413.717;  -49.900; -358.000; -366.000
413.843; -237.400; -839.000; -861.000
413.969;  -47.400;  -47.000; -292.000
414.096; -148.300; -679.000; -679.000
414.222;   58.100;  -33.000;   85.000
414.348;   -1.600; -652.000; -385.000
414.474;  216.600;   38.000;  -52.000
414.600;   54.900; -126.000; -144.000
414.726;   49.300;  -96.000;  -55.000
414.852;  -75.200; -365.000; -342.000
414.978;  143.900;  104.000;  -18.000
415.104;  155.700;   38.000;   80.000
415.230;  101.200; -329.000; -330.000
415.356;  149.600; -409.000; -514.000
415.482;  470.800;   13.000;  -35.000
415.608;  563.500; -247.000; -323.000
415.734; 2013.800;   67.000;   38.000
415.860;41331.300; -875.000; -767.000
415.986;26844.300; -685.000; -607.000
416.111; 2246.300; -798.000; -652.000
416.237;  521.600; -424.000; -571.000
416.363; 2412.000; -765.000; -733.000
416.489; 7965.200; -324.000; -251.000
416.615;  810.100; -707.000; -742.000
416.741;    2.400; -677.000; -784.000
416.866; -130.200; -673.000; -736.000
416.992; -158.600; -801.000; -818.000
417.118;   -7.000;  -41.000;  -80.000
417.244;  -77.400; -798.000; -531.000
417.369; -115.400; -801.000; -612.000
417.495;   49.200; -325.000; -254.000
417.621; -141.800;-1015.000; -803.000
417.746;   91.300; -579.000; -572.000
417.872;  188.400; -254.000; -144.000
417.998;  165.700; -515.000; -530.000
418.123; 2369.300;-1073.000; -845.000
418.249;10639.400; -512.000; -601.000
418.374; 1329.100; -916.000; -824.000
418.500;  276.700; -383.000; -482.000
418.626;  285.500;   70.000;  -59.000
418.751;  287.100; -549.000; -448.000
418.877;  455.900; -637.000; -643.000
419.002; 4026.000; -688.000; -560.000
419.128;24920.500; -930.000; -721.000
419.253; 5335.200; -967.000; -837.000
419.379;  770.700; -391.000; -338.000
419.504;  862.900;  325.000;  415.000
419.629; 1078.600; -393.000; -212.000
419.755; 7718.800; -317.000; -254.000
419.880;40811.600;  -98.000;   67.000
420.006;22813.300; -280.000; -221.000
420.131;55229.000; -662.000; -775.000
420.256; 7166.300; -315.000; -316.000
420.382;  999.800; -665.000; -687.000
420.507;  187.000; -649.000; -778.000
420.632;  382.000; -337.000; -339.000
420.758;  595.000; -251.000; -425.000
420.883; -101.800; -876.000; -672.000
421.008; -140.500; -775.000; -619.000
421.133; -100.400; -509.000; -467.000
421.259;  -37.300; -325.000; -259.000
421.384; -158.100; -834.000; -693.000
421.509;  -31.500;-1052.000; -862.000
421.634; 2551.600; -936.000; -820.000
421.759;  971.200; -359.000; -327.000
421.885;  -32.400; -717.000; -656.000
422.010;  -99.200; -673.000; -542.000
422.135; -251.900; -695.000; -727.000
422.260;  145.100;  340.000;  280.000
422.385;  -22.400;   12.000;  -98.000
422.510;   81.400;  151.000;  -26.000
422.635;  130.300;  -87.000;  -43.000
422.760;  238.800; -766.000; -791.000
422.885;  149.800;  -57.000;  -80.000
423.010;   10.800; -112.000; -169.000
423.135; -123.500; -481.000; -561.000
423.260;   37.100; -150.000; -245.000
423.385;  221.900;  476.000;  222.000
423.510;  128.100;   71.000;  -22.000
423.635;  223.000;  133.000;   45.000
423.760;  187.400;  383.000;  328.000
423.885;  154.400;  336.000;  391.000
424.010;   83.200;  -68.000;  -13.000
424.135;   26.200;    5.000;  -33.000
424.259;  -91.400; -654.000; -457.000
424.384;  -38.500; -279.000; -272.000
424.509;   27.600; -260.000; -186.000
424.634; -154.100; -761.000; -623.000
424.759;   11.700; -688.000; -544.000
424.883;   27.100; -506.000; -527.000
425.008;  442.000; -502.000; -410.000
425.133; 4157.400; -679.000; -653.000
425.258; 1680.200; -517.000; -381.000
425.382; 2248.400; -867.000; -774.000
425.507; 5129.100; -487.000; -543.000
425.632;  817.600; -802.000; -663.000
425.756;  970.000; -256.000; -146.000
425.881;14027.500; -831.000; -857.000
426.006;33284.400; -604.000; -355.000
426.130; 4703.900; -696.000; -508.000
426.255;  681.700; -611.000; -491.000
426.379;  323.100; -189.000; -577.000
426.504;  844.000;  660.000;  544.000
426.629; 8436.900; -519.000; -466.000
426.753; 5176.300;   64.000;  -46.000
426.878;  687.200; -252.000; -288.000
427.002;  416.300; -651.000; -668.000
427.127; 3568.700;  -35.000; -158.000
427.251;22695.900;  372.000;  401.000
427.375; 5681.300; -191.000; -173.000
427.500; 4673.300; -616.000; -610.000
427.624; 1419.100; -234.000; -400.000
427.749;  275.000; -216.000; -225.000
427.873;   -5.100; -499.000; -412.000
427.997;    7.600; -222.000; -230.000
428.122;  223.600;  795.000;  703.000
428.246;  222.800;  433.000;  434.000
428.371; -198.400; -869.000; -773.000
428.495; -158.500; -624.000; -646.000
428.619;   -2.200; -186.000; -117.000
428.743;  135.700;   65.000;  132.000
428.868;  102.300; -732.000; -643.000
428.992; 2931.900; -219.000; -326.000
429.116; 1087.500; -329.000; -357.000
429.240;  620.400;  419.000;  426.000
429.365;   22.400; -454.000; -574.000
429.489;   10.300; -638.000; -647.000
429.613;  108.000; -236.000; -177.000
429.737;  156.900; -563.000; -432.000
429.861;  631.200; -247.000; -133.000
429.985;11846.000; -425.000; -305.000
430.109;11446.000; -770.000; -908.000
430.234; 1292.500;   76.000;  -50.000
430.358;  163.600; -250.000; -160.000
430.482;  -50.200; -672.000; -564.000
430.606;  -69.000; -655.000; -375.000
430.730;  126.000; -437.000; -388.000
430.854;  330.200; -909.000; -835.000
430.978;  -78.200; -795.000; -764.000
431.102; -102.000; -499.000; -422.000
431.226; -150.600; -874.000; -815.000
431.350;  114.400;  345.000;  422.000
431.474;  -78.600; -661.000; -373.000
431.597; -265.200;-1060.000; -848.000
431.721;  -97.000; -276.000; -267.000
431.845; -198.600; -704.000; -472.000
431.969;  -92.200; -304.000; -349.000
432.093; -140.500; -395.000; -317.000
432.217;   32.300;   32.000;   82.000
432.341; -121.600; -523.000; -518.000
432.464;   94.600;   96.000;   40.000
432.588;  481.100; -401.000; -329.000
432.712;  240.900;  -52.000;  -52.000
432.836;  169.500;  213.000;  263.000
432.959;   42.800; -372.000; -311.000
433.083;  196.600;   11.000;    2.000
433.207;  851.100;  285.000;  930.000
433.330;10705.700; -391.000; -200.000
433.454;11898.500; -654.000; -638.000
433.578; 7005.800;  583.000;  278.000
433.701; 1167.300; -623.000; -675.000
433.825;  342.200; -292.000; -299.000
433.949;  448.100;   28.000;  -72.000
434.072;  148.800; -410.000; -323.000
434.196;   48.700; -309.000; -117.000
434.319; 8091.000;25482.000;25124.000
434.443; 1682.700; -656.000; -603.000
434.566; 5286.800;  281.000;   62.000
434.690;  809.100; -637.000; -383.000
434.813;  150.900; -251.000; -173.000
434.937;  -88.600; -569.000; -696.000
435.060;   -7.200; -423.000; -332.000
435.184;  741.000; -492.000; -217.000
435.307;  416.400;  159.000;  102.000
435.431;   85.400;  -40.000;   24.000
435.554;  -89.100; -399.000; -240.000
435.677; -142.400; -350.000; -258.000
435.801;  -31.500;  -25.000;   49.000
435.924;   86.700;    1.000;  -67.000
436.048; -177.300;-1019.000; -732.000
436.171;  -88.400; -240.000;  -66.000
436.294;   20.700; -248.000; -229.000
436.417;  238.100; -963.000; -849.000
436.541; -145.900; -814.000; -840.000
436.664;  -34.600; -242.000; -316.000
436.787;   18.700;   13.000;  113.000
436.910; -175.200; -792.000; -422.000
437.034;   85.900;  142.000;  143.000
437.157;  208.000;  -11.000;    0.000
437.280;  -52.500; -392.000; -292.000
437.403; -113.600; -982.000; -869.000
437.526; 1546.000; -903.000; -865.000
437.649; 4831.300; -505.000; -332.000
437.772;  638.300; -692.000; -540.000
437.896;  335.000;  700.000;  544.000
438.019; -121.000; -758.000; -503.000
438.142; -111.700; -596.000; -506.000
438.265;   55.900; -639.000; -670.000
438.388; 1252.300; -520.000; -410.000
438.511;  223.900; -597.000; -394.000
438.634;  -71.900; -247.000; -125.000
438.757; -222.300; -693.000; -619.000
438.880;    2.800;  -34.000;  -57.000
439.003; -111.200; -417.000; -437.000
439.126;  -55.900; -287.000; -167.000
439.248;  -76.700;  -98.000; -139.000
439.371;  -48.400;    9.000;  -53.000
439.494;  125.400;  510.000;  439.000
439.617;  -36.800;   65.000;  -88.000
439.740; -322.100; -968.000; -816.000
439.863; -208.400; -755.000; -595.000
439.986; -184.500; -476.000; -431.000
440.108;  -38.200; -161.000; -112.000
440.231; -267.200; -950.000; -836.000
440.354;  -19.900;  -64.000; -150.000
440.477;  181.900; -566.000; -542.000
440.599;   36.700; -200.000; -225.000
440.722; -199.500; -709.000; -586.000
440.845;  214.900;  751.000;  928.000
440.968; -176.700; -415.000; -311.000
441.090;  -76.600; -199.000;  -33.000
441.213; -324.600;-1021.000; -825.000
441.336;  -31.100; -159.000;   -5.000
441.458;  -59.600; -549.000; -396.000
441.581; -111.800; -628.000; -629.000
441.703;  -83.700; -152.000;   13.000
441.826; -153.900; -557.000; -400.000
441.948;  -23.300;   56.000;   51.000
442.071;  121.900;  555.000;  424.000
442.193; -160.900; -531.000; -485.000
442.316;  146.400;  152.000;   97.000
442.438;  179.300; -233.000;  -10.000
442.561;  191.500;  272.000;  262.000
442.683; 1330.900; -809.000; -522.000
442.806; 2451.800;   -8.000;   74.000
442.928;   76.800; -859.000; -604.000
443.051;  -69.500; -577.000; -373.000
443.173; -138.900; -341.000; -339.000
443.295; -112.800; -263.000; -371.000
443.418; -108.400; -321.000;  -29.000
443.540;   33.700; -106.000;   -4.000
443.662; -173.600; -563.000; -465.000
443.785;   38.400;  335.000;  199.000
443.907; -152.700; -362.000; -208.000
444.029; -214.100; -767.000; -494.000
444.152; -215.600; -644.000; -554.000
444.274;   -1.900;  -18.000;  -24.000
444.396; -185.600; -461.000; -221.000
444.518; -177.800; -691.000; -454.000
444.640; -127.700; -268.000; -111.000
444.763;   41.900;  388.000;  249.000
444.885; -209.800; -432.000; -392.000
445.007;   23.400;   35.000;   86.000
445.129; -183.800; -610.000; -515.000
445.251; -156.100; -372.000; -439.000
445.373; -214.900; -537.000; -386.000
445.495;   91.600;  242.000;  350.000
445.617;  183.500;  853.000;  753.000
445.739;  -50.300; -215.000;  -97.000
445.861;  -17.900; -245.000; -112.000
445.984;   -0.300; -267.000; -101.000
446.105;  488.500; -418.000; -251.000
446.227; 1272.900; -176.000;  -19.000
446.349;    4.400; -358.000; -249.000
446.471; -124.500; -615.000; -448.000
446.593;  -54.800; -316.000;   19.000
446.715;   58.200;  -67.000;   41.000
446.837;  185.000;  697.000;  832.000
446.959; -122.300; -457.000; -478.000
447.081; -223.100; -628.000; -518.000
447.203;  201.300;  862.000;  834.000
447.325; -121.000; -270.000;   42.000
447.446;   87.600;  286.000;  530.000
447.568; -249.600; -921.000; -803.000
447.690;  -58.800; -236.000; -245.000
447.812; -273.100; -798.000; -519.000
447.933;   -6.800;  155.000;  127.000
448.055;  -72.100; -306.000; -261.000
448.177;  446.100;   31.000;   79.000
448.299;  213.600; -935.000; -727.000
448.420;  108.500;  -25.000;  159.000
448.542;  -27.100;   -3.000;   33.000
448.664;   29.300;  109.000;  322.000
448.785;   11.000;  265.000;   83.000
448.907;  -66.500; -614.000; -353.000
449.028;  -14.900; -771.000; -471.000
449.150;  198.900;  492.000;  589.000
449.272; -299.500;-1044.000; -913.000
449.393;  128.300;  612.000;  694.000
449.515; -226.700; -634.000; -581.000
449.636;  -50.000; -264.000; -155.000
449.758;  227.100;  763.000;  622.000
449.879; -130.800; -498.000; -396.000
450.001;  -69.700; -149.000;  -49.000
450.122;   -8.600;  -95.000;  162.000
450.244;   57.100;   37.000;  364.000
450.365; -118.700; -495.000; -301.000
450.486;   -0.500;   80.000;  268.000
450.608;  116.500;  393.000;  326.000
450.729;  222.100;  578.000;  645.000
450.850;   91.700; -574.000; -466.000
450.972; 1710.000; -552.000; -389.000
451.093;10043.500;  190.000;  588.000
451.214; 3680.000; -516.000; -337.000
451.336;  739.800;  773.000;  579.000
451.457;  170.700;  264.000;  393.000
451.578;  -12.900; -118.000;  -74.000
451.699; -210.600; -546.000; -540.000
451.821;  -34.800; -284.000;  -50.000
451.942;   71.800;  278.000;  285.000
452.063;  133.500;  228.000;  419.000
452.184; 1244.400;  -54.000;  -49.000
452.305; 2153.800;  103.000;  170.000
452.427;  237.000; -549.000; -301.000
452.548;   11.200;   23.000;   79.000
452.669;  -65.100; -257.000;  -89.000
452.790;  -19.400;    3.000;  -18.000
452.911;   35.300;  195.000;  259.000
453.032;  -85.900; -289.000;  -60.000
453.153;  -33.700;  -29.000;   81.000
453.274;  204.500;  737.000;  868.000
453.395;  -18.000;  -51.000;  175.000
453.516;  153.300; 1317.000; 1388.000
453.637;  -64.500; -205.000; -150.000
453.758;  -78.900;   15.000;   69.000
453.879; -172.900; -462.000; -250.000
454.000;  219.700; 1086.000;  948.000
454.121; -152.600; -554.000; -326.000
454.242; -173.400; -599.000; -383.000
454.362;  -53.000;  -99.000;  114.000
454.483;   11.400; -309.000; -229.000
454.604;  193.700;  512.000;  580.000
454.725; -205.400; -627.000; -555.000
454.846; -166.600; -474.000; -406.000
454.967;   50.300;  230.000;  539.000
455.087;  -40.300;  179.000;  153.000
455.208;  120.500;  554.000;  856.000
455.329;  -62.700;  -22.000;   82.000
455.450;  145.700;  473.000;  633.000
455.570; -134.700; -234.000; -211.000
455.691;  -42.300;  201.000;  407.000
455.812; -164.300; -270.000;  -92.000
455.932;  -37.700;  107.000;  -97.000
456.053; -105.700;   36.000;   24.000
456.173; -140.900; -433.000; -355.000
456.294; -209.600; -476.000; -303.000
456.415;  -70.000;  -73.000;   70.000
456.535;  -29.800;  297.000;  273.000
456.656;  -23.700;  132.000;  240.000
456.776;  -92.300;    3.000;  298.000
456.897;   77.000;  308.000;  513.000
457.017;  -79.500; -153.000;   -3.000
457.138; -150.100; -402.000; -249.000
457.258;  -30.900;  263.000;  224.000
457.379;   30.700;  509.000;  521.000
457.499;   -5.400;  443.000;  432.000
457.620; -197.300; -407.000; -231.000
457.740; -162.900; -132.000;  -11.000
457.860;  -50.800;   87.000;   44.000
457.981;  -15.400;  132.000;  124.000
458.101;  -81.100;  -89.000;   40.000
458.221;   45.200;  336.000;  402.000
458.342;  -50.100;   -4.000;  -37.000
458.462;  144.600;  617.000;  352.000
458.582;  -27.300; -302.000; -294.000
458.703;   86.200;  303.000;  154.000
458.823;   -3.300;   22.000;  163.000
458.943;  136.900;  341.000;  467.000
459.063;   26.800; 1124.000;  192.000
459.183;   23.300;  328.000;  313.000
459.304;   99.600;  315.000;  517.000
459.424;  -56.100; -246.000;  -89.000
459.544;  769.300;  388.000;  764.000
459.664; 1693.200;  499.000;  506.000
459.784;  632.700; 1004.000; 1175.000
459.904;  177.100;  867.000;  744.000
460.024;  215.500;  867.000;  684.000
460.144;   96.500;  449.000;  554.000
460.264;   44.100;  515.000;  327.000
460.385; -141.400; -145.000; -119.000
460.505;  180.500;  905.000;  858.000
460.625; -112.900;  -17.000;  -68.000
460.745;    9.700;  396.000;  541.000
460.864;  -25.600;  153.000;  469.000
460.984;  128.000;  499.000;  573.000
461.104;  391.100; 1656.000; 1775.000
461.224;  124.400;  657.000;  650.000
461.344;   -0.700;  431.000;  360.000
461.464;  -23.000;  258.000;  513.000
461.584;   32.000;  283.000;  466.000
461.704;  -58.500;   58.000;  108.000
461.824;  -81.800;  238.000;  259.000
461.943;  -28.600;  191.000;  130.000
462.063;  -96.100;    2.000;  324.000
462.183;  148.100;  639.000;  717.000
462.303;  300.400; 1678.000; 1230.000
462.422;  130.700;  781.000;  840.000
462.542;  -14.000;  271.000;  391.000
462.662;  188.000;  353.000;  380.000
462.782;  592.600;  833.000;  572.000
462.901; 1061.100;  545.000;  717.000
463.021;  603.500; 1702.000; 1638.000
463.141;   65.100;  337.000;  770.000
463.260;   38.800;  614.000;  474.000
463.380;  120.600;  902.000;  884.000
463.499;  -11.300;  342.000;  332.000
463.619;    1.600;  581.000;  559.000
463.738;  288.800; 1644.000;  903.000
463.858;   65.700;  657.000;  811.000
463.978;   12.700;  542.000;  396.000
464.097;  183.400;  921.000; 1114.000
464.217;  367.600; 1196.000; 1143.000
464.336;  277.900; 1068.000; 1130.000
464.455;   -2.600;  328.000;  659.000
464.575;  193.100;  597.000;  602.000
464.694;  430.000; 1204.000; 1179.000
464.814;  331.000; 1190.000; 1138.000
464.933;  201.600; 1095.000; 1027.000
465.052;  284.900; 1412.000; 1054.000
465.172;  194.500;  922.000;  799.000
465.291;  372.300; 1376.000; 1320.000
465.410;  129.900;  462.000;  735.000
465.530;  232.200; 1355.000; 1310.000
465.649;  251.100; 1209.000; 1273.000
465.768;  425.400; 1673.000; 1508.000
465.888;  187.300;  941.000; 1174.000
466.007;  259.200; 1335.000; 1440.000
466.126;   59.400;  721.000;  641.000
466.245;  157.900; 1176.000; 1187.000
466.364;  128.400;  950.000; 1060.000
466.484;  166.700; 1024.000; 1213.000
466.603;  159.700; 1101.000; 1222.000
466.722;  341.700; 1490.000; 1769.000
466.841;  201.100; 1151.000; 1401.000
466.960;  144.300; 1069.000;  972.000
467.079;  350.800; 1971.000; 1786.000
467.198;  186.000; 1238.000; 1181.000
467.317;  184.700; 1768.000; 1162.000
467.436;  205.300; 1709.000; 1261.000
467.555;  315.900; 1796.000; 1746.000
467.674;  208.800; 1227.000; 1329.000
467.793;  140.700; 1376.000; 1374.000
467.912;  261.200; 1658.000; 1539.000
468.031;  312.600; 2038.000; 1930.000
468.150;  383.800; 1842.000; 1837.000
468.269;  484.800; 2313.000; 2090.000
468.388;  447.400; 2168.000; 2339.000
468.507;  585.900; 2884.000; 2903.000
468.626;  666.600; 2555.000; 2541.000
468.744;  321.800; 2018.000; 2174.000
468.863;  469.100; 2312.000; 2523.000
468.982;  243.800; 1503.000; 1555.000
469.101;  556.800; 2788.000; 2692.000
469.220;  370.200; 2333.000; 2176.000
469.338;  615.200; 2935.000; 3051.000
469.457;  450.200; 2719.000; 2545.000
469.576;  816.300; 3953.000; 3784.000
469.695;  534.900; 2877.000; 3066.000
469.813;  958.000; 4148.000; 4192.000
469.932;  881.800; 4255.000; 4485.000
470.051;  922.400; 4075.000; 4161.000
470.169; 1845.900; 4470.000; 4338.000
470.288; 3010.800; 4700.000; 4809.000
470.406; 1757.200; 5059.000; 5194.000
470.525; 1338.400; 6101.000; 5787.000
470.644; 1403.000; 6847.000; 6794.000
470.762; 1787.200; 8397.000; 7873.000
470.881; 1928.200; 8651.000; 8464.000
470.999; 2187.500; 9685.000; 9151.000
471.118; 2340.700;11174.000;10711.000

