
Integration time [ms]: 100.000
Averaging Nr. [scans]: 40
Smoothing Nr. [pixels]: 0
Data measured with spectrometer [name]: 2101012U2
Wave   ;Sample   ;Dark     ;Reference
[nm]   ;[counts] ;[counts] ;[counts] 

197.733;   52.550;  516.000;  404.000
197.879;  -80.625; -610.000; -634.000
198.025;  -47.325; -475.000; -420.000
198.171;  -67.625; -602.000; -612.000
198.317;  -31.475; -401.000; -316.000
198.463;  -63.550; -655.000; -404.000
198.609;   28.350;  181.000; -137.000
198.755;  -82.775; -644.000; -410.000
198.901;  -61.750; -505.000; -424.000
199.047;  -66.950; -615.000; -488.000
199.193;  -41.575; -230.000; -468.000
199.339;  -45.200; -222.000; -369.000
199.485;   42.900;  330.000;  271.000
199.631;   11.550;  227.000;  310.000
199.777;  -47.875; -466.000; -398.000
199.923;  -55.825; -610.000; -424.000
200.069;    0.450; -141.000;  -58.000
200.215;   53.850;  128.000;  453.000
200.361;   47.400;  243.000;  477.000
200.507;  -57.325; -600.000; -373.000
200.653;  -23.750; -371.000; -194.000
200.798;  -41.625; -215.000; -125.000
200.944;   -9.825; -146.000;  -41.000
201.090;   33.850;   61.000;  222.000
201.236;  -11.500; -116.000; -158.000
201.382;  122.000;  874.000;  903.000
201.528;   -6.075;  -58.000;  -48.000
201.674;  -41.100; -386.000; -293.000
201.819;  -67.400; -540.000; -439.000
201.965;  -76.825; -699.000; -447.000
202.111;  -27.325; -273.000; -226.000
202.257;  -30.975; -250.000; -238.000
202.402;   -3.575;   13.000;  -36.000
202.548;  -32.225; -169.000; -116.000
202.694;   80.325;  410.000; -183.000
202.840;  -84.850; -603.000; -531.000
202.985;  -77.800; -681.000; -639.000
203.131; -104.600; -832.000; -666.000
203.277;  -13.625; -199.000; -262.000
203.423;  -60.250; -434.000; -520.000
203.568;  -44.850; -462.000; -237.000
203.714;  -56.400; -535.000; -542.000
203.860;  -86.225; -682.000; -641.000
204.005;   22.650;  112.000;  167.000
204.151;   76.725;  561.000;  556.000
204.296;  -32.525; -354.000; -221.000
204.442;  -73.000; -600.000; -547.000
204.588;  -77.150; -592.000; -579.000
204.733;   22.000;  178.000;  168.000
204.879; -140.725;-1018.000; -822.000
205.025;   18.775;  -99.000;  126.000
205.170;   -9.425;  -17.000;   94.000
205.316;   88.500;  438.000;  661.000
205.461;  -80.200; -698.000; -554.000
205.607;   85.625;  609.000;  665.000
205.752;  -86.875; -626.000; -551.000
205.898;  -63.975; -501.000; -391.000
206.043;  -62.850; -578.000; -506.000
206.189;  -47.150; -243.000; -285.000
206.334;   70.300;  554.000;  606.000
206.480;   68.700;  409.000;  239.000
206.625;  -82.225; -529.000; -552.000
206.771;  -53.825; -451.000; -373.000
206.916;  -44.700; -210.000; -537.000
207.062;  -72.800; -545.000; -591.000
207.207;  -67.125; -546.000; -443.000
207.353;   48.000;  185.000;  460.000
207.498;   12.825;  196.000;   85.000
207.643;  -58.225; -501.000; -370.000
207.789; -127.450;-1069.000; -910.000
207.934;  -91.900; -665.000; -713.000
208.080;  -26.650; -154.000;   66.000
208.225;   -4.800;  -22.000;  -57.000
208.370;  -83.400; -727.000; -619.000
208.516;  -67.150; -741.000; -487.000
208.661;  -31.450; -127.000;  -69.000
208.806;  -31.625; -165.000; -171.000
208.952; -130.900;-1044.000; -731.000
209.097;   59.650;  378.000;  349.000
209.242;  -52.100; -307.000; -382.000
209.387;   70.850;  392.000;  350.000
209.533;  -51.200; -321.000; -350.000
209.678;   75.925;  472.000;  543.000
209.823;  -62.050; -408.000; -310.000
209.969; -102.100; -860.000; -757.000
210.114; -116.275; -907.000; -719.000
210.259; -114.850; -939.000; -889.000
210.404;   -3.625; -171.000;  103.000
210.549;   17.825;  108.000;    3.000
210.695;  -13.350;   -3.000;  -95.000
210.840;   40.675;   94.000;   67.000
210.985;  -65.525; -484.000; -303.000
211.130;   62.400;  268.000;  406.000
211.275;   13.300;  207.000;  199.000
211.420;  -46.375; -300.000; -289.000
211.566;  -70.725; -536.000; -489.000
211.711;   13.325;  218.000;  157.000
211.856;  -69.675; -545.000; -519.000
212.001;   17.750;  151.000;   44.000
212.146;   29.075;  153.000;   49.000
212.291;  -18.425; -210.000; -186.000
212.436;  -28.900; -280.000;   -6.000
212.581;  -85.275; -685.000; -653.000
212.726;  -82.025; -487.000; -538.000
212.871;  -54.750; -552.000; -217.000
213.016; -141.025;-1172.000;-1029.000
213.161;   68.925;  406.000;  291.000
213.306;  -77.925; -435.000; -577.000
213.451;  -92.425; -778.000; -689.000
213.596;  -56.200; -455.000; -347.000
213.741;  -54.575; -448.000; -538.000
213.886;  -74.575; -498.000; -517.000
214.031;  -29.375; -294.000; -124.000
214.176;  -48.025; -408.000; -341.000
214.321;  -22.525; -296.000; -157.000
214.466;  -13.450; -163.000;  -43.000
214.611;   -0.575;  -61.000;  -10.000
214.756; -133.250; -948.000; -858.000
214.901;  -29.050; -388.000; -226.000
215.046; -132.675; -797.000; -825.000
215.191;   11.100;  128.000;   35.000
215.336;  -12.375; -157.000;  -19.000
215.480;  -74.625; -684.000; -505.000
215.625;  -25.875; -175.000;  -19.000
215.770;  -80.775; -757.000; -662.000
215.915;  -15.125;   -5.000;  -97.000
216.060;    3.125; -113.000;  -21.000
216.205; -116.625; -731.000; -779.000
216.349;  -62.875; -470.000; -533.000
216.494; -128.300; -939.000; -867.000
216.639; -123.525; -823.000; -888.000
216.784;  -90.050; -577.000; -525.000
216.929;   45.875;  392.000;  281.000
217.073;  -22.175; -244.000;  -31.000
217.218;    2.400;   78.000;  -47.000
217.363;  -96.775; -656.000; -618.000
217.507;  -72.475; -623.000; -588.000
217.652; -137.550; -845.000; -874.000
217.797; -103.425; -708.000; -659.000
217.942; -108.050; -856.000; -720.000
218.086;   76.175;  608.000;  539.000
218.231;  -18.625; -174.000;  -26.000
218.376;  -36.025; -337.000; -229.000
218.520;   -1.900;  -41.000;   96.000
218.665;  -36.775; -338.000; -204.000
218.810;  -39.550; -275.000; -233.000
218.954;   11.825;  201.000;   35.000
219.099; -124.625; -713.000; -963.000
219.243;  -69.375; -589.000; -554.000
219.388;  -25.575; -264.000; -136.000
219.532;    0.275; -116.000; -116.000
219.677;  -82.250; -564.000; -521.000
219.822;   -2.575;   33.000;   89.000
219.966;    1.850;   17.000;  -99.000
220.111;  -34.450; -328.000;  -40.000
220.255; -106.375; -797.000; -750.000
220.400;  -21.125; -180.000; -146.000
220.544;  -72.325; -516.000; -450.000
220.689;  -53.575; -422.000; -451.000
220.833;  -33.325; -123.000;  -58.000
220.978;  -60.525; -393.000; -563.000
221.122;   15.300;  319.000;  307.000
221.267; -123.350; -906.000; -837.000
221.411;  -73.525; -478.000; -394.000
221.555;   -5.250; -104.000;  -23.000
221.700;  -54.600; -329.000; -222.000
221.844;   44.625;  255.000;  272.000
221.989;  -41.800; -328.000; -311.000
222.133;  -37.850; -289.000; -307.000
222.277;   -0.325;    5.000;   78.000
222.422;   28.300;  227.000;  113.000
222.566;  -39.225; -381.000; -214.000
222.711;  -48.075; -414.000; -479.000
222.855;  -82.800; -643.000; -586.000
222.999;  -94.525; -642.000; -717.000
223.144;  -48.000; -195.000; -194.000
223.288;   51.975;  423.000;  251.000
223.432;   27.075;  184.000;  230.000
223.576;    3.300;  152.000;  -21.000
223.721;   31.350;  364.000;  273.000
223.865;  -64.725; -472.000; -475.000
224.009;  210.125; 1673.000; 1631.000
224.153;  -89.225; -660.000; -671.000
224.298;  -76.350; -531.000; -489.000
224.442;  -16.150;  -74.000;  -33.000
224.586;  -14.625; -169.000; -106.000
224.730; -104.975; -858.000; -670.000
224.875; -111.675; -739.000; -688.000
225.019;   15.925;  102.000;  188.000
225.163;   54.025;  208.000;  341.000
225.307;   16.775;   97.000;  -91.000
225.451;   39.775;  360.000;  481.000
225.595;   31.375;  264.000;  176.000
225.739;  -27.250; -170.000;  -94.000
225.884;    3.025;   86.000;    5.000
226.028; -100.475; -760.000; -626.000
226.172;  -39.525; -260.000; -273.000
226.316; -118.950; -941.000; -902.000
226.460;  -69.950; -645.000; -493.000
226.604;  -42.925; -406.000; -400.000
226.748; -105.475; -836.000; -733.000
226.892;  -29.700; -227.000; -181.000
227.036;  -45.675; -537.000; -447.000
227.180;  -73.800; -551.000; -375.000
227.324;  -73.250; -561.000; -580.000
227.468; -123.400; -819.000; -717.000
227.612;    5.850;  242.000;  -28.000
227.756;  -96.025; -845.000; -698.000
227.900;   54.700;  342.000;  441.000
228.044;  -53.650; -509.000; -290.000
228.188;   56.775;  448.000;  568.000
228.332;  -94.475; -546.000; -472.000
228.476;  -38.625; -223.000; -149.000
228.620;  -40.875; -210.000; -150.000
228.764;   56.125;  431.000;  349.000
228.908;  -14.300; -155.000;   30.000
229.052;  -66.825; -615.000; -528.000
229.195;  -28.725; -172.000;   13.000
229.339;  -33.050; -235.000; -305.000
229.483;  -23.000;    5.000; -162.000
229.627;   -1.700; -156.000;  139.000
229.771;  -42.725; -218.000; -294.000
229.915;    8.100;  230.000;   79.000
230.059;  -93.825; -648.000; -663.000
230.202;  -51.675; -370.000; -317.000
230.346;  -32.600; -107.000;  107.000
230.490;  -74.875; -489.000; -521.000
230.634; -119.200; -736.000; -553.000
230.777;   75.175;  478.000;  509.000
230.921;  -54.650; -450.000; -359.000
231.065;  -45.875; -246.000; -286.000
231.209;   16.225;  261.000;  265.000
231.352;   17.725;   54.000;   40.000
231.496;    9.200;  568.000;  188.000
231.640;  -77.700; -693.000; -621.000
231.783;   52.925;  546.000;  525.000
231.927;  -55.775; -294.000; -365.000
232.071; -123.300; -962.000; -736.000
232.214; -113.225; -980.000; -764.000
232.358; -110.025; -683.000; -599.000
232.502;    4.125;  -19.000;    7.000
232.645; -135.050;-1090.000; -927.000
232.789;  -34.250; -257.000; -218.000
232.933;  -54.300; -407.000; -224.000
233.076; -120.825;-1038.000; -897.000
233.220; -123.050; -752.000; -777.000
233.363;  -83.275; -669.000; -477.000
233.507;   49.325;  371.000;  129.000
233.650; -110.575; -764.000; -834.000
233.794;   49.000;  438.000;  461.000
233.938;  -61.600; -530.000; -362.000
234.081;  -23.450;  -93.000;   31.000
234.225;  -69.700; -631.000; -539.000
234.368; -119.575; -773.000; -723.000
234.512;  -50.900; -385.000; -299.000
234.655;  -86.400; -582.000; -555.000
234.798;  -68.150; -493.000; -466.000
234.942; -131.275; -884.000;-1002.000
235.085;  -77.500; -651.000; -443.000
235.229;  -69.725; -405.000; -410.000
235.372;  -46.125; -247.000; -191.000
235.516;  -48.925; -397.000; -321.000
235.659;   22.600;   92.000;  121.000
235.802;  -13.250;  -38.000;  -22.000
235.946;   32.000;  335.000;  215.000
236.089;   17.600;  126.000;  250.000
236.233;   49.450;  275.000;  298.000
236.376;  -43.575; -235.000; -378.000
236.519;  -48.100; -297.000; -319.000
236.663;  -18.725; -215.000; -117.000
236.806; -136.200;-1029.000; -999.000
236.949;   73.350;  543.000;  431.000
237.092;   50.300;  412.000;  391.000
237.236;  -89.200; -589.000; -502.000
237.379;   68.675;  352.000;  428.000
237.522; -116.300; -879.000; -768.000
237.666;  -21.325; -271.000;   18.000
237.809; -118.075; -851.000; -823.000
237.952;   34.150;  469.000;  271.000
238.095;  -65.650; -447.000; -442.000
238.238;   72.175;  688.000;  700.000
238.382;    1.000;  166.000;  103.000
238.525;  -70.875; -598.000; -511.000
238.668; -145.100;-1060.000; -985.000
238.811;  -77.350; -638.000; -643.000
238.954;  -60.750; -483.000; -334.000
239.097;  100.550;  617.000;  664.000
239.241;   11.775;  394.000;  326.000
239.384;  -32.925; -254.000; -214.000
239.527;  -68.500; -424.000; -224.000
239.670; -140.175; -994.000;-1091.000
239.813; -112.700; -696.000; -658.000
239.956;   70.750;  579.000;  473.000
240.099; -104.575; -778.000; -725.000
240.242;   56.050;  428.000;  432.000
240.385;   52.875;  466.000;  450.000
240.528;  -75.700; -706.000; -473.000
240.671;    9.825;  189.000;  134.000
240.814;  -55.450; -441.000; -158.000
240.957; -115.775; -767.000; -578.000
241.100;  -86.775; -779.000; -755.000
241.243; -137.800;-1234.000; -893.000
241.386;  -51.575; -508.000; -379.000
241.529; -102.025; -735.000; -547.000
241.672;  -70.000; -566.000; -495.000
241.815; -129.600; -832.000; -808.000
241.958;  -23.575; -125.000; -182.000
242.101;  -79.500; -545.000; -390.000
242.244;  -43.325; -270.000; -325.000
242.387;  -53.700; -304.000; -246.000
242.530;   60.350;  470.000;  134.000
242.673;  -55.575; -381.000; -309.000
242.815; -124.575; -925.000; -899.000
242.958;  -85.150; -482.000; -381.000
243.101;   -0.975;  132.000;  187.000
243.244;  -88.225; -564.000; -521.000
243.387;  -61.425; -313.000; -316.000
243.530; -100.900; -657.000; -674.000
243.672;   -0.550;   43.000;  -92.000
243.815;  -46.100; -355.000; -283.000
243.958;  -14.650;   98.000;  -26.000
244.101;   -6.450;   59.000;  -16.000
244.243;  -15.875;  -47.000;  101.000
244.386; -108.725; -761.000; -630.000
244.529;  -30.075; -132.000; -139.000
244.672; -158.825;-1154.000; -951.000
244.814; -103.375; -621.000; -794.000
244.957;  -50.050; -380.000; -304.000
245.100;  -83.175; -489.000; -489.000
245.242;  -58.275; -387.000; -374.000
245.385;   -5.000;  -59.000;  -39.000
245.528; -123.000; -871.000; -705.000
245.670;   80.775;  612.000;  634.000
245.813;  -79.325; -599.000; -547.000
245.956;  -25.850; -324.000; -275.000
246.098;  -82.075; -508.000; -650.000
246.241;   11.325;  194.000;   48.000
246.383;  -25.625; -119.000;  -73.000
246.526;  -81.050; -454.000; -525.000
246.669; -125.450; -889.000; -780.000
246.811;    6.550;  172.000;   -1.000
246.954;  -64.450; -512.000; -426.000
247.096;  -27.825;  -84.000;   -6.000
247.239;  -72.025; -482.000; -445.000
247.381;  -74.100; -647.000; -488.000
247.524;   66.600;  645.000;  679.000
247.666;   -6.700;   58.000;   11.000
247.809; -120.725; -887.000; -691.000
247.951;  -13.325;  -75.000;  138.000
248.094;   20.500;  432.000;  308.000
248.236; -159.675;-1262.000;-1238.000
248.378;    9.375; -356.000;  -81.000
248.521;  -20.975; -334.000; -337.000
248.663;  -40.400; -236.000; -267.000
248.806;  -19.625; -300.000; -266.000
248.948;  -99.000; -886.000; -763.000
249.090;  -54.825; -428.000; -398.000
249.233;  -53.725; -344.000; -381.000
249.375;  -55.225; -474.000; -451.000
249.518;  -26.400;  -83.000; -133.000
249.660;  -10.150; -103.000;    3.000
249.802; -177.550;-1303.000;-1189.000
249.945;  -71.100; -612.000; -540.000
250.087; -127.875; -834.000; -768.000
250.229;  -47.600; -362.000; -480.000
250.371;  -81.500; -494.000; -439.000
250.514;  -63.425; -310.000; -244.000
250.656;  -69.650;   69.000;  102.000
250.798; -118.500; -849.000; -800.000
250.940;  -73.800; -322.000; -322.000
251.083;  -20.650; -335.000; -111.000
251.225;   53.225;  338.000;  310.000
251.367;  -45.725; -274.000; -373.000
251.509;  -50.725; -265.000; -210.000
251.651; -108.700; -731.000; -671.000
251.794;   81.700;  538.000;  632.000
251.936; -100.725; -821.000; -747.000
252.078;  -86.150; -540.000; -461.000
252.220;  -76.200; -645.000; -477.000
252.362;   75.025;  344.000;  462.000
252.504;  -70.700; -677.000; -584.000
252.646; -130.200; -875.000; -722.000
252.788;    4.300;   14.000; -128.000
252.931;  -41.550; -257.000; -253.000
253.073;  -40.775; -376.000; -317.000
253.215;  -16.050;  141.000;  122.000
253.357;  -25.425;   82.000; -153.000
253.499;  -57.075; -374.000; -234.000
253.641;  -93.175; -749.000; -594.000
253.783; -101.325; -609.000; -527.000
253.925;  -86.975; -586.000; -591.000
254.067; -118.200; -744.000; -667.000
254.209;  -31.675; -391.000; -259.000
254.351; -130.350; -865.000; -883.000
254.493;  -55.800; -441.000; -417.000
254.635; -149.150; -936.000; -818.000
254.777;  -82.900; -752.000; -687.000
254.918;  -67.000; -512.000; -430.000
255.060;  -65.175; -551.000; -395.000
255.202;  -60.275; -473.000; -261.000
255.344;  -75.375; -658.000; -455.000
255.486;  -85.325; -471.000; -406.000
255.628; -105.825; -780.000; -781.000
255.770;  -92.025; -676.000; -536.000
255.912;  -73.450; -559.000; -468.000
256.053; -100.475; -730.000; -508.000
256.195;  152.900; 1008.000;  903.000
256.337; -103.625; -861.000; -595.000
256.479;   52.450;  532.000;  416.000
256.621;  -56.225; -394.000; -212.000
256.762; -101.200; -789.000; -742.000
256.904;   56.225;  485.000;  487.000
257.046;  -55.975; -381.000; -271.000
257.188;  -57.850; -351.000; -264.000
257.329;  -74.375; -525.000; -464.000
257.471; -125.150; -939.000; -807.000
257.613;  -57.775; -584.000; -498.000
257.755; -143.200;-1073.000; -982.000
257.896;   28.825;  286.000;  392.000
258.038;  -82.375; -403.000; -352.000
258.180;  -45.000; -354.000; -279.000
258.321;  -90.900; -581.000; -457.000
258.463;    3.600;  -71.000;  133.000
258.605; -101.425; -562.000; -570.000
258.746; -108.275; -886.000; -772.000
258.888; -160.225;-1026.000;-1020.000
259.029;   20.250;  121.000;   -8.000
259.171;  -84.775; -614.000; -550.000
259.313;  -22.400;  -49.000;  -47.000
259.454;  -65.350; -536.000; -414.000
259.596;  -58.500; -483.000; -390.000
259.737;  -82.100; -590.000; -474.000
259.879;   42.000;  217.000;  311.000
260.020;   85.150;  901.000;  636.000
260.162;  -31.625; -146.000; -253.000
260.303; -118.575; -768.000; -687.000
260.445;  -94.025; -609.000; -613.000
260.586;   25.050;  392.000;  157.000
260.728;  -49.050; -360.000; -248.000
260.869;  -81.200; -350.000; -343.000
261.011;   81.750;  706.000;  537.000
261.152;  -64.975; -479.000; -319.000
261.293;  -86.925; -576.000; -595.000
261.435;  -40.150; -219.000; -184.000
261.576;  -63.700; -455.000; -325.000
261.718;   39.900;  420.000;  470.000
261.859; -122.800; -940.000; -949.000
262.000; -131.600; -951.000;-1016.000
262.142;  -37.700;  -52.000;  -60.000
262.283; -122.975; -808.000; -691.000
262.424;  -87.350; -666.000; -625.000
262.566; -149.525;-1161.000; -983.000
262.707; -122.800; -840.000; -830.000
262.848; -126.825; -769.000; -726.000
262.990;  -55.025; -362.000; -345.000
263.131;   79.175;  650.000;  681.000
263.272;   -6.600;  -61.000;  -41.000
263.413; -105.850; -589.000; -561.000
263.555;  -74.950; -669.000; -143.000
263.696;  -87.050; -550.000; -641.000
263.837;  -65.300; -449.000; -551.000
263.978;   -8.450;   -5.000;  -77.000
264.119;  -45.375; -283.000; -264.000
264.261; -122.250; -847.000; -630.000
264.402;   -9.000;   33.000;   40.000
264.543;  -97.025; -509.000; -524.000
264.684;  -13.100;   61.000;  -50.000
264.825;  -78.650; -816.000; -538.000
264.966;   -9.825;  -84.000;  -67.000
265.107; -127.625; -646.000; -670.000
265.248; -122.575; -825.000; -812.000
265.390;  -16.700;  152.000;   -9.000
265.531;  -23.575; -238.000; -107.000
265.672; -100.400; -557.000; -630.000
265.813;   61.600;  563.000;  439.000
265.954; -155.950; -959.000; -940.000
266.095;  -21.825; -372.000; -322.000
266.236;  -94.400; -686.000; -548.000
266.377;  -42.950; -243.000; -297.000
266.518;  -72.000; -619.000; -547.000
266.659;    9.850;  170.000;  268.000
266.800;   -6.625;   83.000;   85.000
266.941;  -88.575; -487.000; -478.000
267.082;   27.225;  354.000;   99.000
267.223;  -66.500; -344.000; -273.000
267.364; -114.675; -892.000; -686.000
267.504;  -21.025;    3.000;  135.000
267.645;   -5.875;  160.000;   67.000
267.786;  -33.525; -147.000;  -86.000
267.927;  -73.375; -473.000; -379.000
268.068;  -14.825; -186.000;  -61.000
268.209;  -38.750; -175.000; -413.000
268.350;  -54.000; -388.000; -532.000
268.490;  -85.200; -648.000; -521.000
268.631;   29.825;  127.000;  225.000
268.772; -123.300; -874.000; -647.000
268.913;  -55.725; -328.000; -476.000
269.054;  -18.750; -117.000;   12.000
269.194;  -50.450; -418.000; -402.000
269.335; -165.025;-1137.000;-1074.000
269.476;  -19.075;   33.000;  -35.000
269.617;  -48.100; -347.000; -392.000
269.757;  -90.625; -713.000; -646.000
269.898; -121.250; -856.000; -613.000
270.039;  -64.050; -415.000; -405.000
270.180; -131.350; -952.000; -816.000
270.320;  -20.750; -190.000; -250.000
270.461;  -43.475; -277.000; -249.000
270.602;  -20.425; -186.000; -156.000
270.742; -137.800; -868.000; -943.000
270.883;  -47.775; -442.000; -390.000
271.023;  -63.825; -358.000; -357.000
271.164;  -72.225; -607.000; -528.000
271.305; -108.500; -666.000; -654.000
271.445;  -84.950; -722.000; -683.000
271.586;  -68.200; -462.000; -283.000
271.726;  -44.100; -397.000; -322.000
271.867;  -70.525; -594.000; -534.000
272.008;  211.250; -473.000; -285.000
272.148;  152.550;  462.000;  468.000
272.289;   23.575; -113.000; -181.000
272.429;   18.475;   19.000;  185.000
272.570;  -96.600; -633.000; -737.000
272.710;  -91.375; -825.000; -775.000
272.851;  -28.575;  113.000; -130.000
272.991; -152.900;-1173.000;-1077.000
273.131;  -76.475; -419.000; -459.000
273.272; -110.050; -683.000; -723.000
273.412;   12.425; -143.000;  -31.000
273.553;  -56.150; -488.000; -507.000
273.693;  127.700;  913.000;  858.000
273.834;  -83.925; -894.000; -692.000
273.974;  -73.775; -664.000; -615.000
274.114;  -91.275; -772.000; -560.000
274.255;   99.550;  414.000;  373.000
274.395;   21.450; -180.000; -125.000
274.535;   59.250;  199.000;  350.000
274.676;   24.550;  225.000;   94.000
274.816;   15.225;  110.000;   34.000
274.956;  -90.200; -624.000; -690.000
275.097;  -69.175;-1014.000; -922.000
275.237; -107.125; -913.000; -803.000
275.377; -108.225; -778.000; -689.000
275.517; -146.600; -878.000; -937.000
275.658;  -63.375; -590.000; -555.000
275.798;  -58.325; -606.000; -413.000
275.938;   21.875;  215.000;  323.000
276.078; -103.375; -626.000; -395.000
276.218;    2.425;   99.000;  104.000
276.359; -144.550;-1026.000;-1024.000
276.499;  -63.200; -605.000; -446.000
276.639;  -37.450; -305.000; -151.000
276.779;  -52.125; -475.000; -357.000
276.919; -102.725; -783.000; -624.000
277.059;  -31.100; -261.000; -212.000
277.199;  -37.950; -357.000; -259.000
277.340;   42.050;  287.000;  175.000
277.480; -116.600; -840.000; -693.000
277.620;   24.800;  192.000;   16.000
277.760; -201.725;-1533.000;-1294.000
277.900;   27.900;  113.000;   33.000
278.040;   27.525;  137.000;  159.000
278.180;   36.350;  270.000;  170.000
278.320;   -8.325;   21.000;   56.000
278.460;  -69.400; -443.000; -469.000
278.600;  -95.600; -708.000; -598.000
278.740;   52.675;  448.000;  224.000
278.880;  -26.775; -768.000; -791.000
279.020;    7.250; -194.000; -144.000
279.160;  -89.675; -672.000; -595.000
279.300; -122.275; -926.000; -873.000
279.440;  -89.200; -709.000; -622.000
279.579;   -1.650;-1014.000; -929.000
279.719;  -47.850; -410.000; -394.000
279.859;   74.850;   -4.000;   41.000
279.999;   42.100; -208.000;  101.000
280.139;  -20.625; -435.000; -387.000
280.279;  -80.650; -708.000; -745.000
280.419;  -18.500; -229.000; -147.000
280.559;  -31.125; -259.000; -180.000
280.698;  -73.725; -790.000; -639.000
280.838;  -92.900; -778.000; -800.000
280.978;  -96.375; -846.000; -790.000
281.118; -115.250; -811.000; -704.000
281.257;   -3.700;   24.000;    6.000
281.397;  -92.250;-1094.000; -960.000
281.537;  -86.900; -599.000; -712.000
281.677;  -22.025; -150.000; -101.000
281.816;  -87.675; -700.000; -630.000
281.956;  -23.250; -193.000; -257.000
282.096;  -72.075; -539.000; -396.000
282.235; -110.925; -672.000; -638.000
282.375;  -15.975; -243.000;  -98.000
282.515; -115.925; -715.000; -707.000
282.654;   29.600;   29.000;  106.000
282.794;   31.550;  388.000;  244.000
282.934;  -55.875; -530.000; -491.000
283.073; -134.125;-1030.000; -857.000
283.213;  -59.500; -460.000; -467.000
283.353;  -19.275; -408.000; -349.000
283.492;  -25.525; -264.000; -296.000
283.632;  -38.575; -254.000; -168.000
283.771; -118.850; -859.000; -730.000
283.911;  -48.425; -369.000; -260.000
284.050; -112.775; -794.000; -748.000
284.190; -158.000;-1229.000;-1096.000
284.329; -145.775;-1055.000; -964.000
284.469;  -55.200; -516.000; -591.000
284.608;  -44.425; -559.000; -598.000
284.748;  -91.400; -614.000; -570.000
284.887;  -12.550;  -87.000;  -20.000
285.027; -126.125; -844.000; -892.000
285.166;  -26.975; -192.000; -249.000
285.306;    7.025; -116.000;  -33.000
285.445;  -38.300; -229.000; -343.000
285.584;  -95.975; -630.000; -494.000
285.724;  -50.300; -282.000; -322.000
285.863; -119.000; -857.000; -507.000
286.002;  -47.175; -366.000; -276.000
286.142; -104.600; -715.000; -622.000
286.281;  -69.925; -525.000; -493.000
286.420;  -82.575; -554.000; -417.000
286.560;   89.325;  653.000;  623.000
286.699; -132.100; -958.000; -912.000
286.838;  -85.200; -590.000; -591.000
286.978;  -89.975; -533.000; -537.000
287.117; -121.775;-1085.000; -950.000
287.256;  -33.925; -228.000; -211.000
287.395;  -42.825; -197.000; -378.000
287.535;  -56.600; -370.000; -298.000
287.674;  -95.900; -509.000; -484.000
287.813;   50.200;  661.000;  533.000
287.952; -131.925;-1010.000; -871.000
288.091; -142.575;-1049.000; -915.000
288.231;   19.750;   13.000;   15.000
288.370; -173.300;-1217.000;-1200.000
288.509;  -93.700; -728.000; -645.000
288.648;  -92.825; -770.000; -548.000
288.787;  -21.800; -243.000;  -87.000
288.926;  -74.325; -454.000; -475.000
289.065;  127.525;  859.000;  672.000
289.204;  -60.825; -377.000; -217.000
289.344;  -93.800; -791.000; -690.000
289.483;   22.925;  416.000;  304.000
289.622;  -18.900; -291.000; -149.000
289.761;  -18.600; -309.000; -166.000
289.900; -111.200; -785.000; -626.000
290.039;   -9.625;  -12.000;  -95.000
290.178;  -38.850; -274.000; -180.000
290.317;  -89.000; -618.000; -479.000
290.456;  -66.725; -463.000; -451.000
290.595; -147.400; -961.000; -833.000
290.734; -128.850; -904.000; -891.000
290.873;  -66.750; -456.000; -420.000
291.011;  -98.450; -833.000; -843.000
291.150; -102.750; -770.000; -682.000
291.289;  -21.125; -343.000; -110.000
291.428; -101.200; -599.000; -480.000
291.567;  -61.100; -370.000; -442.000
291.706;  -21.000;  109.000;  154.000
291.845;  -86.025; -597.000; -505.000
291.984; -165.650;-1234.000;-1061.000
292.122;   81.125;  602.000;  582.000
292.261;   38.500;  620.000;  463.000
292.400;    9.100; -144.000;  211.000
292.539; -132.775; -959.000; -813.000
292.678;  -38.950; -325.000; -300.000
292.816; -156.625;-1136.000; -965.000
292.955;  -84.950; -844.000; -684.000
293.094;  -21.000; -173.000; -337.000
293.233;  -55.025; -556.000; -400.000
293.371;  -43.425; -225.000;  -84.000
293.510; -103.875; -866.000; -780.000
293.649; -127.025; -959.000; -924.000
293.787;  -39.175;-1083.000;-1012.000
293.926;   -2.900; -113.000;  -32.000
294.065;  -57.125; -379.000; -290.000
294.203;   61.075;  298.000;  406.000
294.342;   35.750;   74.000;  156.000
294.481; 5658.325;51180.000; -836.000
294.619;  -41.225; -425.000; -582.000
294.758; -133.800;-1230.000;-1137.000
294.896;   89.050; -125.000;    5.000
295.035; -120.475;-1040.000;-1006.000
295.174; -113.750;-1082.000; -954.000
295.312;  -51.700; -323.000; -203.000
295.451;   -6.825; -307.000; -428.000
295.589;  -44.175; -389.000; -518.000
295.728;   25.375; -292.000; -165.000
295.866;   13.550;  -36.000;  -51.000
296.005;  -63.150; -584.000; -341.000
296.143;  -63.525; -558.000; -596.000
296.282; -112.375; -957.000; -881.000
296.420;  -92.050; -657.000; -557.000
296.559;  -79.400; -892.000; -633.000
296.697;   74.575; -847.000; -665.000
296.835;  119.225;-1141.000;-1002.000
296.974;   64.150;  -23.000;   39.000
297.112;   37.125; -443.000; -504.000
297.251;  -66.775; -815.000; -755.000
297.389;  138.275; -576.000; -438.000
297.527;   41.825; -145.000;  -83.000
297.666;  -41.075; -486.000; -438.000
297.804;  -55.625; -404.000; -264.000
297.942;   -6.500; -136.000; -161.000
298.081;  -16.025; -183.000;   63.000
298.219;   98.575;  -17.000;  -19.000
298.357;   67.675; -144.000;  -71.000
298.495;   61.625; -810.000; -812.000
298.634;  107.500;  245.000;  219.000
298.772;  104.850; -220.000; -338.000
298.910;  -24.450; -309.000; -182.000
299.048;   -2.400; -130.000; -153.000
299.187;  -32.375; -350.000; -250.000
299.325;   29.450;   52.000;  122.000
299.463;   88.025; -389.000; -299.000
299.601;  180.000; -327.000; -271.000
299.739; -103.125; -908.000; -883.000
299.877;  -83.050; -791.000; -703.000
300.016;  -43.425;-1095.000; -935.000
300.154;  215.225;  -19.000; -161.000
300.292;   88.125; -428.000; -348.000
300.430;   64.100; -408.000; -291.000
300.568;  -98.875; -940.000; -874.000
300.706;  -39.875; -366.000; -469.000
300.844;  -42.825;-1108.000; -979.000
300.982;  142.500;  246.000;  282.000
301.120;  -96.975; -965.000; -866.000
301.258;  -60.975; -812.000; -705.000
301.396;   46.800;  104.000;  -41.000
301.534;  144.975; -218.000; -293.000
301.672;   23.100; -664.000; -521.000
301.810;   59.700; -613.000; -545.000
301.948;  154.100;   53.000;  149.000
302.086;  764.925; -250.000;  -32.000
302.224; 1183.850; -610.000; -585.000
302.362;   72.325; -558.000; -622.000
302.500;   20.150; -923.000; -893.000
302.638;  127.450;  128.000;  245.000
302.776;    7.900; -352.000; -408.000
302.913;   51.350;  447.000;  236.000
303.051;    9.100;  -86.000;  -23.000
303.189;   54.825;   90.000;  118.000
303.327;  -28.900; -341.000; -256.000
303.465;  -81.700; -832.000; -588.000
303.603; -102.775; -805.000; -604.000
303.740;  107.425;  417.000;  241.000
303.878;   48.950; -800.000; -759.000
304.016;  -79.250; -915.000; -790.000
304.154; -118.175;-1123.000;-1152.000
304.291;  -30.475; -505.000; -554.000
304.429;   19.675;  102.000;   74.000
304.567; -121.725; -908.000; -893.000
304.705;  -47.500; -408.000; -515.000
304.842;  148.525; -616.000; -540.000
304.980;   79.600;  215.000;   35.000
305.118;   85.150; -367.000; -365.000
305.255;  -51.325; -945.000; -927.000
305.393;   60.600;  178.000;  239.000
305.531;  -90.250;-1173.000; -956.000
305.668;  -71.225; -663.000; -582.000
305.806;  122.750; -358.000; -439.000
305.943;  127.025; -629.000; -637.000
306.081;   67.925; -378.000; -267.000
306.219;  -94.300; -863.000; -748.000
306.356;    1.725;  158.000;   27.000
306.494;  119.075;  981.000;  761.000
306.631;  -14.875;  -11.000;  -55.000
306.769;   13.800; -613.000; -485.000
306.906;  -25.725; -284.000; -258.000
307.044;  -52.600; -473.000; -488.000
307.181;  -57.625; -410.000; -332.000
307.319;   15.850;  112.000;   87.000
307.456; -166.450;-1191.000;-1153.000
307.594;  -96.475; -980.000; -727.000
307.731;   -4.950; -371.000; -164.000
307.868;  -11.675;  -15.000;   20.000
308.006; -141.950; -961.000; -847.000
308.143;  -63.825; -618.000; -330.000
308.281;  186.825;  -37.000; -254.000
308.418;   -9.675; -748.000; -640.000
308.555;  -72.575; -400.000; -250.000
308.693;  -78.075; -577.000; -573.000
308.830; -100.525; -712.000; -657.000
308.967;  -13.900; -215.000;  -95.000
309.105;  -50.425; -507.000; -396.000
309.242;   31.875; -468.000; -367.000
309.379;  358.575; -577.000; -655.000
309.517;  -57.875; -936.000; -948.000
309.654; -100.500; -910.000; -734.000
309.791;  -79.100; -662.000; -580.000
309.928; -108.025; -977.000; -914.000
310.065;  199.600;  819.000;  697.000
310.203;   12.850; -825.000; -850.000
310.340;   15.800; -465.000; -321.000
310.477;  -67.675; -412.000; -516.000
310.614;  -55.825; -383.000; -473.000
310.751;  -85.325; -427.000; -518.000
310.889;  -12.000;    1.000;   11.000
311.026; -152.450;-1161.000; -939.000
311.163;  -50.550; -386.000; -380.000
311.300;  -81.875; -512.000; -479.000
311.437;  -63.900; -658.000; -619.000
311.574; -156.675;-1226.000; -985.000
311.711;  -67.175; -595.000; -433.000
311.848;  -32.725; -380.000; -388.000
311.985;   18.800;  270.000;   93.000
312.122; -113.025; -932.000; -762.000
312.259; -112.175; -941.000; -994.000
312.396;  -86.350; -508.000; -551.000
312.533;  -87.325; -812.000; -790.000
312.670; -120.250;-1070.000; -898.000
312.807;  -35.700; -352.000; -367.000
312.944;  -76.275; -513.000; -611.000
313.081;  -43.275; -150.000; -415.000
313.218; -107.575;-1111.000; -867.000
313.355;   21.850; -531.000; -449.000
313.492;    6.900; -455.000; -292.000
313.629;  136.000;  815.000;  735.000
313.766; -149.250;-1176.000;-1008.000
313.902;   -4.150; -186.000;   21.000
314.039;  -54.100; -372.000; -289.000
314.176;   37.150;  286.000;  192.000
314.313;  -68.200; -569.000; -473.000
314.450;  -77.125; -788.000; -684.000
314.587;  -49.450; -468.000; -480.000
314.723;   -6.175;  -78.000;  130.000
314.860;   37.900;  318.000;  332.000
314.997;   36.000;  223.000;  142.000
315.134;  -32.175; -385.000; -368.000
315.270;  -29.475; -480.000; -496.000
315.407; -117.175;-1094.000; -967.000
315.544;  -43.525; -657.000; -538.000
315.681;  -57.450; -681.000; -565.000
315.817;   36.525; -133.000; -176.000
315.954;   45.625; -613.000; -392.000
316.091; -116.750;-1045.000;-1023.000
316.227;  -26.350;  -71.000; -179.000
316.364;   11.600;   23.000;    6.000
316.500;  -40.300; -113.000; -300.000
316.637;  -45.100; -181.000; -302.000
316.774;  -77.375; -625.000; -358.000
316.910;  -90.175; -598.000; -629.000
317.047;  -54.975; -487.000; -351.000
317.183;  -38.225; -435.000; -566.000
317.320;  -18.425; -367.000; -321.000
317.456;  -78.650; -733.000; -805.000
317.593;  -96.325; -598.000; -641.000
317.729;    2.600;  168.000;  -67.000
317.866; -190.600;-1434.000;-1285.000
318.002;  -92.875; -708.000; -948.000
318.139;  -86.475; -883.000; -867.000
318.275;  -96.400;-1003.000; -738.000
318.412;  -54.050; -517.000; -336.000
318.548;  -16.225; -751.000; -720.000
318.685;  -92.150; -985.000; -888.000
318.821;  -86.075; -762.000; -735.000
318.957;  -24.125;   34.000;  -23.000
319.094;   30.325;  297.000;  154.000
319.230;  -42.300; -756.000; -742.000
319.367;  162.100; -471.000; -520.000
319.503;   83.475; -538.000; -436.000
319.639;  -97.575; -877.000; -793.000
319.775;  -51.250; -750.000; -685.000
319.912;  -48.850; -424.000; -519.000
320.048;  -86.150;-1184.000;-1184.000
320.184;   62.075;   59.000;   70.000
320.321;  -67.125; -497.000; -467.000
320.457;   59.600;  475.000;  662.000
320.593;  -65.225; -375.000; -382.000
320.729; -109.850; -732.000; -734.000
320.866;  -77.125; -577.000; -635.000
321.002;  -68.925; -759.000; -809.000
321.138;   -7.700; -135.000; -211.000
321.274;   72.875; -148.000; -115.000
321.410;  -25.900; -585.000; -353.000
321.546;   -7.175;-1011.000; -911.000
321.683;   64.875;  400.000;  185.000
321.819;   12.350;  -48.000; -117.000
321.955; -107.525; -743.000; -722.000
322.091;  -25.600; -585.000; -540.000
322.227;   -1.950; -382.000; -202.000
322.363;   -4.000; -320.000; -215.000
322.499;  -39.625; -343.000; -331.000
322.635;  182.150;  636.000;  443.000
322.771;   32.525; -139.000;   12.000
322.907;  108.350;  129.000;  327.000
323.043;  -20.300; -115.000; -206.000
323.179;  -33.800; -394.000; -363.000
323.315;   71.300; -401.000; -371.000
323.451;  136.475; -328.000; -236.000
323.587;   70.425;  -60.000;  -77.000
323.723;   35.550; -682.000; -601.000
323.859;  -18.700; -258.000;  -76.000
323.995;  -22.825; -467.000; -409.000
324.131; -128.575; -967.000; -892.000
324.267;  -49.275; -254.000; -276.000
324.402; -105.800; -960.000; -983.000
324.538;   -0.550; -279.000; -104.000
324.674;   33.475;  164.000;   77.000
324.810;  161.825;  226.000;  308.000
324.946;   27.075; -810.000; -658.000
325.082;  -59.950; -568.000; -475.000
325.217;  -13.875;  -62.000;   16.000
325.353;  -94.450; -764.000; -659.000
325.489;  -80.300; -540.000; -506.000
325.625;  -76.325; -579.000; -525.000
325.760;   51.000;  517.000;  376.000
325.896;  -26.700; -515.000; -702.000
326.032;  -56.625; -403.000; -352.000
326.168;  -70.300; -462.000; -369.000
326.303;  -62.175; -352.000; -461.000
326.439;  -30.900; -336.000; -276.000
326.575;    1.250; -190.000;  -29.000
326.710;   -0.125; -156.000;  -30.000
326.846;   -3.900;  146.000;  103.000
326.982;  -91.025; -530.000; -548.000
327.117;  -76.200; -481.000; -442.000
327.253;  -93.700; -745.000; -742.000
327.388; -131.600;-1137.000;-1153.000
327.524;  -23.850; -811.000; -578.000
327.659;  -24.825;  -58.000;  -22.000
327.795;   -6.100;   69.000;   45.000
327.931;  -78.900; -723.000; -499.000
328.066;  -37.000; -417.000; -276.000
328.202;  -18.025;   12.000; -129.000
328.337;  108.900;  957.000;  713.000
328.473;   43.025;  -12.000;  -74.000
328.608;  -37.225; -256.000; -267.000
328.743;  -74.575; -799.000; -664.000
328.879;   26.925;  214.000;  114.000
329.014;  -41.775; -102.000; -122.000
329.150;  -88.225; -358.000; -483.000
329.285;  -71.050; -465.000; -466.000
329.421;  -53.700; -548.000; -246.000
329.556;  -21.725;  -36.000;   85.000
329.691;  -97.325; -633.000; -615.000
329.827;  -84.525; -626.000; -480.000
329.962;  -39.200;  131.000; -301.000
330.097; -100.800; -673.000; -585.000
330.233;  -49.225; -410.000; -223.000
330.368; -119.850; -839.000; -628.000
330.503;  -14.875;    3.000;   98.000
330.638;   10.950;  -93.000; -125.000
330.774;  -45.875; -609.000; -530.000
330.909;  -48.075; -434.000; -244.000
331.044;  -97.700; -714.000; -708.000
331.179; -175.150;-1217.000;-1109.000
331.315;    2.775;   77.000;   20.000
331.450;   15.250;  157.000;  285.000
331.585;  -85.775; -805.000; -706.000
331.720;  -76.850; -510.000; -460.000
331.855;   -5.225;  -35.000; -102.000
331.990;  214.175;   62.000;  138.000
332.126;  100.625; -110.000;   71.000
332.261;  -19.750; -379.000; -265.000
332.396;  -12.150; -135.000; -242.000
332.531;  -98.875;-1074.000;-1031.000
332.666;   10.350; -519.000; -363.000
332.801;  -92.750; -726.000; -807.000
332.936;   -9.050; -192.000; -122.000
333.071; -124.650; -870.000; -817.000
333.206;   25.925;  307.000;  379.000
333.341;   23.075;  344.000;  418.000
333.476;  -82.000; -627.000; -623.000
333.611;  -29.700; -251.000; -173.000
333.746;  -30.900; -381.000; -464.000
333.881; -116.375; -973.000; -935.000
334.016; -118.225; -936.000; -917.000
334.151;  -99.200; -746.000; -702.000
334.286;   45.875;  152.000;  186.000
334.421;  -16.075; -125.000; -178.000
334.556;  -51.900; -611.000; -567.000
334.690;  -69.950; -631.000; -577.000
334.825;   74.900;  381.000;   83.000
334.960;  -52.025; -285.000; -413.000
335.095;   13.200;  135.000;  -91.000
335.230;  -87.250; -722.000; -738.000
335.365; -119.700;-1084.000; -990.000
335.499; -128.475;-1108.000;-1037.000
335.634;   42.925;    9.000;  534.000
335.769;  -82.375; -755.000; -720.000
335.904;  -43.000; -603.000; -561.000
336.038;  -45.025; -735.000; -657.000
336.173;  -90.300;-1206.000;-1194.000
336.308;   24.900; -116.000; -189.000
336.443;   32.575; -544.000; -634.000
336.577;  -56.350; -936.000; -787.000
336.712;   96.850;   -4.000;  -12.000
336.847;  -22.200; -724.000; -607.000
336.981;  111.250; -272.000; -208.000
337.116;  340.825;  615.000;  501.000
337.250;  222.325; -434.000; -421.000
337.385;  207.075; -297.000; -208.000
337.520;   61.525; -632.000; -603.000
337.654;  -46.950; -215.000; -126.000
337.789; -137.900; -989.000; -933.000
337.923;  -34.050; -104.000; -205.000
338.058;  -71.025; -673.000; -738.000
338.192;  -14.475; -611.000; -488.000
338.327;  -15.350;  -18.000; -155.000
338.461;  -42.550; -299.000; -469.000
338.596;  -81.850; -780.000; -638.000
338.730; -113.650; -767.000; -803.000
338.865;   66.800;  -46.000; -140.000
338.999;  -77.975; -846.000; -702.000
339.134;  -22.600; -634.000; -536.000
339.268;   20.275; -741.000; -603.000
339.403;  328.275; -740.000; -775.000
339.537;   83.675; -894.000; -820.000
339.671; -117.825; -829.000; -813.000
339.806;  -71.250; -556.000; -512.000
339.940;   -3.975; -261.000; -235.000
340.074;  -92.500; -685.000; -510.000
340.209;  -34.800; -351.000; -230.000
340.343; -101.450; -517.000; -573.000
340.477;  147.125;  998.000; 1036.000
340.612;  -59.750;-1033.000; -900.000
340.746;  112.400; -199.000; -243.000
340.880;  -46.700; -924.000; -785.000
341.014;  -12.950;  -45.000; -154.000
341.149; -117.350; -756.000; -718.000
341.283; -108.775; -839.000; -754.000
341.417;  -63.300;-1124.000; -938.000
341.551;  216.150; -768.000; -708.000
341.685;  -22.875; -633.000; -611.000
341.820;  -51.875; -562.000; -493.000
341.954;  -44.600; -218.000; -349.000
342.088; -144.575;-1102.000;-1019.000
342.222;   47.650;  565.000;  618.000
342.356;  -38.375; -395.000; -335.000
342.490;  -89.000; -880.000; -841.000
342.624;  -40.125; -339.000; -242.000
342.758;   27.650; -364.000; -312.000
342.892;  -57.975; -710.000; -585.000
343.026;  -48.550;  -58.000; -116.000
343.160;  -54.325; -426.000; -376.000
343.294;  -71.550; -474.000; -337.000
343.428;   -7.750; -488.000; -448.000
343.562;   -1.125; -172.000;  -23.000
343.696;   -2.125; -385.000; -314.000
343.830;  -16.050; -362.000; -356.000
343.964;   29.475; -231.000; -168.000
344.098; 1177.875;  199.000;   70.000
344.232; 1001.700; -266.000; -127.000
344.366;  100.125; -567.000; -453.000
344.500;  102.475; -665.000; -744.000
344.634;   50.575; -324.000; -164.000
344.768;    4.100; -531.000; -341.000
344.902;   32.225;  278.000;  256.000
345.035;  -73.075; -556.000; -496.000
345.169; -138.700; -933.000; -656.000
345.303;   -3.400; -308.000; -482.000
345.437;  -62.600; -826.000; -717.000
345.571;  -71.800; -675.000; -594.000
345.704;  -58.000; -309.000; -532.000
345.838;  -17.750; -331.000; -284.000
345.972;  -34.350; -543.000; -495.000
346.106;  143.300; -179.000; -190.000
346.239;  456.100; -312.000; -243.000
346.373;   17.775; -343.000; -302.000
346.507; -146.725; -950.000; -962.000
346.640;  202.400;  -30.000;   13.000
346.774;  -12.775; -650.000; -797.000
346.908;   -4.025; -138.000;  -11.000
347.041;  -91.375; -646.000; -593.000
347.175;    5.275;  259.000;   27.000
347.309;  -58.025; -698.000; -628.000
347.442;  -89.325; -883.000; -732.000
347.576;  338.400;  670.000;  668.000
347.709;  268.100; -123.000;  -52.000
347.843;  -78.675; -933.000; -825.000
347.976;   36.775;  235.000;  294.000
348.110; -174.975;-1268.000;-1186.000
348.243;  -95.200; -679.000; -772.000
348.377;   -4.250;  -26.000;   60.000
348.510;   61.475;  403.000;  540.000
348.644;  -35.275;  -37.000; -159.000
348.777;    0.925;  180.000;  191.000
348.911;  -53.025; -142.000; -112.000
349.044;  197.225;  471.000;  448.000
349.178;  233.825;-1069.000;-1006.000
349.311;  112.900;  141.000;  255.000
349.444;   -6.300; -927.000; -813.000
349.578;   -6.125; -347.000; -200.000
349.711;  -76.325; -959.000; -862.000
349.845;   20.425; -661.000; -591.000
349.978; -136.750;-1224.000;-1137.000
350.111;  -62.375; -546.000; -612.000
350.244;  -63.025; -596.000; -700.000
350.378;   23.925; -392.000; -393.000
350.511;  -74.300; -393.000; -426.000
350.644; -116.650; -808.000; -806.000
350.778;    2.075;  168.000;  104.000
350.911;   14.900;  134.000;  140.000
351.044;  -88.350; -685.000; -615.000
351.177;  -19.650; -321.000; -281.000
351.310;  -15.650;    3.000; -131.000
351.444;  -53.025; -888.000; -788.000
351.577;  141.900;  140.000;   90.000
351.710;  106.000;  593.000;  417.000
351.843;  -29.375; -165.000;  -77.000
351.976;   12.775;  149.000;  -79.000
352.109;  -81.325; -621.000; -612.000
352.242;   -9.750; -464.000; -419.000
352.376;  -41.200; -580.000; -636.000
352.509;  259.175; -437.000; -356.000
352.642;   67.450; -654.000; -604.000
352.775;   82.000; -141.000;  -98.000
352.908; -103.150; -933.000; -904.000
353.041;  -89.275; -814.000; -824.000
353.174;  -63.375; -551.000; -424.000
353.307;  -90.000; -753.000; -764.000
353.440;   82.150;  541.000;  453.000
353.573; -101.250; -957.000;-1008.000
353.706;  -13.675; -384.000; -558.000
353.839;  -14.875; -264.000; -220.000
353.971;  -97.625; -657.000; -512.000
354.104;  -60.600; -896.000; -835.000
354.237;  -10.725; -627.000; -662.000
354.370;  -61.500; -846.000; -879.000
354.503; -185.725;-1231.000;-1308.000
354.636;  -17.875; -529.000; -348.000
354.769; -127.325; -937.000; -860.000
354.902;   -6.400; -230.000; -139.000
355.034;  -10.050; -164.000; -220.000
355.167;  -11.850; -262.000; -162.000
355.300;  -82.050;-1061.000; -880.000
355.433;  840.375;  -71.000;  -14.000
355.565; 1308.525; -402.000; -384.000
355.698;  343.325; -356.000; -296.000
355.831;   17.250; -882.000; -801.000
355.964;  141.950; -285.000; -170.000
356.096;  -67.400; -856.000; -843.000
356.229;   20.175; -523.000; -530.000
356.362;  282.200; -373.000; -266.000
356.494;  534.850; -229.000; -162.000
356.627;  592.300;  269.000;  377.000
356.760;  620.400;  120.000;   53.000
356.892;  813.100; -286.000; -601.000
357.025;  826.150;  403.000;  389.000
357.157;  769.175; -167.000; -179.000
357.290;  546.600; -856.000; -713.000
357.423;  187.750; -667.000; -556.000
357.555;  152.775; -217.000; -228.000
357.688;  167.700; -483.000; -364.000
357.820;  566.100; -870.000; -877.000
357.953; 4298.350; -563.000; -589.000
358.085; 1029.200; -632.000; -612.000
358.218; 1642.375;-1131.000; -932.000
358.350;  288.800;  -58.000;  312.000
358.483;  -96.900;-1300.000;-1187.000
358.615;   41.800;-1182.000;-1078.000
358.747;   -5.750;-1187.000;-1058.000
358.880;   82.100; -810.000; -744.000
359.012;   14.900; -376.000; -202.000
359.145;  -38.600; -480.000; -511.000
359.277;  110.775; -962.000; -913.000
359.409; 3658.375;  536.000;  231.000
359.542;  987.100; -738.000; -688.000
359.674;   89.675;   46.000;   13.000
359.806;  -51.725; -565.000; -438.000
359.939;  -45.525; -617.000; -516.000
360.071;  -22.950; -583.000; -579.000
360.203;   -4.375; -411.000; -364.000
360.335;   58.075;  164.000;  -16.000
360.468;  227.975; -249.000; -307.000
360.600; 2840.075; -547.000; -454.000
360.732; 2398.625; -546.000; -423.000
360.864;  345.400;-1216.000;-1044.000
360.996;  403.475; -516.000; -554.000
361.129;   81.700; -389.000; -598.000
361.261;   28.325;  110.000; -113.000
361.393;  -28.075; -252.000; -214.000
361.525;   28.500;   94.000;  244.000
361.657;  -23.175; -821.000; -703.000
361.789;   25.825; -139.000; -155.000
361.921;  345.625; -642.000; -593.000
362.053;  331.425;  524.000;  541.000
362.185;   81.000;  288.000;   72.000
362.318;  -66.700; -709.000; -705.000
362.450;  168.775;  294.000;  444.000
362.582;  247.525; -913.000; -870.000
362.714;  -12.525; -353.000; -332.000
362.846;  -79.150; -606.000; -490.000
362.978; -143.450; -941.000; -811.000
363.109;   74.825; -161.000; -260.000
363.241;  571.875; -739.000; -749.000
363.373;  399.600; -649.000; -564.000
363.505;  535.525; -186.000;  -91.000
363.637;  141.175; -787.000; -601.000
363.769; -103.150;-1067.000;-1080.000
363.901;  -65.425; -596.000; -654.000
364.033;  -98.300;-1103.000;-1062.000
364.165;   12.900; -283.000; -283.000
364.296;   58.175; -316.000; -177.000
364.428;   31.875;-1344.000;-1220.000
364.560;  -69.375; -679.000; -661.000
364.692;  -55.625; -738.000; -835.000
364.824;  402.950; -588.000; -456.000
364.955;  441.675; -402.000; -564.000
365.087;  684.800;-1097.000; -852.000
365.219;   12.100; -686.000; -816.000
365.351;  -63.925; -526.000; -572.000
365.482;   60.650;  300.000;  240.000
365.614;  -38.800; -402.000; -314.000
365.746;  -87.650; -729.000; -752.000
365.877;  -98.000; -706.000; -672.000
366.009;  211.475;  -35.000;  -62.000
366.141;  -96.550;-1249.000;-1134.000
366.272; -110.025; -803.000; -719.000
366.404; -108.175;-1005.000; -874.000
366.535;   -9.025; -139.000;  -12.000
366.667; -101.225; -644.000; -649.000
366.799;   15.375;  353.000;  203.000
366.930; -109.550; -862.000; -996.000
367.062;  132.125; -639.000; -613.000
367.193;  103.425; -872.000; -842.000
367.325;  -55.300; -580.000; -684.000
367.456;  108.800; -246.000;   31.000
367.588;  142.425; -371.000; -318.000
367.719;   25.450;  -44.000;  -45.000
367.851;  -17.775; -222.000; -241.000
367.982;  -33.700; -875.000; -732.000
368.113;  162.125; -475.000; -358.000
368.245; -102.575; -960.000; -841.000
368.376;   -9.175; -254.000; -302.000
368.508;  -23.625; -188.000; -263.000
368.639; -140.250;-1166.000;-1034.000
368.770;   18.525; -670.000; -589.000
368.902;  -26.800; -836.000; -926.000
369.033; -104.225; -906.000; -855.000
369.164;  -47.950; -720.000; -653.000
369.296; -108.125; -452.000; -601.000
369.427;   23.500; -209.000; -144.000
369.558;  -35.025; -593.000; -377.000
369.689;  -76.225; -721.000; -569.000
369.821; -135.900; -951.000; -845.000
369.952;  -17.575;   42.000; -108.000
370.083;  -47.275; -229.000; -108.000
370.214;  -61.825; -735.000; -650.000
370.345;    7.200;   65.000;   81.000
370.477;  -75.875; -810.000; -790.000
370.608;  326.425; -328.000; -264.000
370.739;   -3.250;-1233.000;-1292.000
370.870;    9.600;-1102.000; -923.000
371.001;  148.300; -378.000; -467.000
371.132;  -67.075; -754.000; -735.000
371.263;  -18.750;  -42.000; -148.000
371.394; -131.975; -841.000; -748.000
371.525;   32.000;  345.000;  225.000
371.657;  -62.925; -808.000; -670.000
371.788;   81.750;  103.000;  199.000
371.919;  254.250; -384.000; -304.000
372.050; 4578.150;  -91.000; -156.000
372.181; 1362.150; -188.000; -294.000
372.311;  502.850;   42.000; -127.000
372.442;   67.100; -457.000; -451.000
372.573;  -19.925; -444.000; -340.000
372.704; -103.775;-1008.000; -980.000
372.835;  130.625; -228.000; -289.000
372.966;  -48.875; -646.000; -554.000
373.097;  -48.350; -575.000; -711.000
373.228;  -29.050; -717.000; -542.000
373.359;  214.225; -824.000; -536.000
373.490; 1245.625; -881.000; -727.000
373.620; 1569.275;-1001.000; -803.000
373.751; 2358.550; -332.000; -396.000
373.882; 1068.750; -663.000; -733.000
374.013;  123.800; -449.000; -262.000
374.143;  -16.175; -581.000; -659.000
374.274;  -92.800; -987.000; -908.000
374.405;  230.900; -388.000; -276.000
374.536;  597.000; -526.000; -387.000
374.666; 1519.800; -759.000; -807.000
374.797;  309.725; -817.000; -868.000
374.928; 1188.700; -710.000; -560.000
375.058; 1165.775; -535.000; -500.000
375.189;  103.125;  -59.000;  -93.000
375.320;  -84.225; -928.000;-1034.000
375.450;  -26.700; -625.000; -616.000
375.581;  -43.000; -526.000; -436.000
375.712;  -17.500; -574.000; -250.000
375.842;  415.475; -438.000; -415.000
375.973;  310.400; -554.000; -513.000
376.103;   14.400; -665.000; -648.000
376.234;  -73.725; -531.000; -552.000
376.364;   -9.600; -944.000; -867.000
376.495;  396.250;  925.000;  529.000
376.625;   18.600; -472.000; -485.000
376.756;  119.250; -709.000; -678.000
376.886;  -46.250;-1178.000;-1026.000
377.017;    7.400;-1048.000;-1061.000
377.147;  269.325; -786.000; -782.000
377.278;   58.425;  174.000;  228.000
377.408; -120.950; -801.000; -815.000
377.538; -103.175; -707.000; -693.000
377.669;  -63.750; -537.000; -613.000
377.799;  -86.275; -645.000; -635.000
377.929;  -31.500; -610.000; -428.000
378.060; -121.575; -781.000; -847.000
378.190;  -66.500; -726.000; -531.000
378.320;  -57.150; -401.000; -406.000
378.451;   -9.700; -131.000;  -22.000
378.581;    2.850;  -67.000; -110.000
378.711;  183.050; 1035.000;  866.000
378.841;   14.675; -533.000; -675.000
378.972;  -48.775; -871.000; -751.000
379.102;   34.875; -652.000; -579.000
379.232;  -15.975; -126.000;  -73.000
379.362;  -86.325;-1001.000; -885.000
379.492;   60.050; -373.000; -424.000
379.623;  135.275;    0.000;  111.000
379.753;  -81.175;-1107.000; -974.000
379.883;  258.375;   59.000;  156.000
380.013;   49.700;-1081.000;-1017.000
380.143;  -79.500;-1097.000;-1056.000
380.273;  -90.125; -985.000; -861.000
380.403;    8.075; -344.000; -257.000
380.533;    8.050; -651.000; -664.000
380.663;  103.600;  173.000;  128.000
380.793;  -66.700;-1027.000;-1074.000
380.923;   10.550; -103.000;  -34.000
381.053;  -77.600; -613.000; -623.000
381.183;  -18.125; -106.000; -248.000
381.313;   60.850; -656.000; -470.000
381.443;   84.175; -692.000; -473.000
381.573;  306.125; -402.000; -409.000
381.703;  444.100;-1249.000;-1095.000
381.833; -109.500;-1454.000;-1336.000
381.963;  150.250; -134.000;  -87.000
382.093; 1728.775; -925.000; -909.000
382.223;  544.825; -713.000; -602.000
382.353;    4.100; -801.000; -608.000
382.482;  551.175;-1091.000; -964.000
382.612;  991.075; -872.000; -644.000
382.742;  548.300; -695.000; -622.000
382.872;  404.500; -565.000; -551.000
383.002;   75.650;  347.000; -132.000
383.131;    3.025; -226.000; -160.000
383.261;  -20.300; -706.000; -768.000
383.391;  296.825; -552.000; -377.000
383.521; 2661.250;  451.000;  263.000
383.650;  583.400; -947.000; -904.000
383.780;  -30.875; -783.000; -656.000
383.910;  121.125;  880.000;  802.000
384.039;   52.950; -794.000; -656.000
384.169;  322.725;-1205.000;-1017.000
384.299;    6.900; -650.000; -662.000
384.428;  -72.275; -764.000; -680.000
384.558;  -43.325; -308.000; -275.000
384.687;  -33.400; -414.000; -334.000
384.817;   28.500;   75.000;   -2.000
384.947;   50.100; -234.000; -141.000
385.076;  356.400;  982.000;  912.000
385.206;  130.875;  369.000;  480.000
385.335;  -11.225; -549.000; -417.000
385.465;  -54.825; -655.000; -663.000
385.594;  187.325;  -53.000;  -44.000
385.724;  592.950; -868.000; -838.000
385.853;  189.750; -296.000; -270.000
385.982; 1814.150; -743.000; -787.000
386.112; 2818.575;-1052.000; -871.000
386.241;  209.100; -307.000; -312.000
386.371;   34.400; -174.000;  -87.000
386.500;   23.475; -825.000; -789.000
386.629;   39.375; -874.000; -817.000
386.759;   67.550;  -43.000;   68.000
386.888;   20.325; -170.000; -250.000
387.017;  -68.975; -648.000; -620.000
387.147;  -72.500; -771.000; -798.000
387.276;   23.300; -410.000; -397.000
387.405;   59.525; -398.000; -342.000
387.535;  -27.425; -452.000; -361.000
387.664;  -53.900; -692.000; -620.000
387.793;   97.250; -198.000; -113.000
387.922;  688.425;  255.000;  200.000
388.052;   64.250; -576.000; -423.000
388.181;   65.250; -342.000; -472.000
388.310;   56.500; -889.000; -710.000
388.439;   -0.025; -749.000; -742.000
388.568;  246.000;  365.000;  244.000
388.697; 1424.050; -756.000; -653.000
388.826;  331.400; -768.000; -666.000
388.956;   96.900; -285.000; -307.000
389.085;  -17.625; -347.000; -287.000
389.214; -108.875; -842.000; -872.000
389.343;  -58.875; -645.000; -413.000
389.472;  355.000;  126.000;  149.000
389.601;  518.225;   91.000;    0.000
389.730;   28.175; -568.000; -687.000
389.859;   84.825;  226.000;   46.000
389.988;  256.175; -423.000; -408.000
390.117;  197.050; -168.000; -146.000
390.246;    9.425; -331.000; -320.000
390.375;  165.750; -673.000; -626.000
390.504;  -49.125; -703.000; -621.000
390.633;  -89.450; -672.000; -726.000
390.761;  -45.125; -732.000; -645.000
390.890;   48.175;   -4.000; -130.000
391.019;  -15.125; -421.000; -441.000
391.148; -116.150; -826.000; -855.000
391.277;  -58.450; -576.000; -493.000
391.406;  -39.275; -821.000; -805.000
391.534;   25.875;  574.000; -301.000
391.663;  -48.650; -583.000; -645.000
391.792;  -52.225; -673.000; -701.000
391.921;  146.750;   -3.000;   15.000
392.050;  287.800; -287.000; -228.000
392.178;    5.550;-1206.000;-1061.000
392.307;  224.450; -758.000; -712.000
392.436;  112.925; -427.000; -641.000
392.564;   35.975;  166.000;   -6.000
392.693;  -82.200; -860.000; -682.000
392.822;  298.475; -529.000; -534.000
392.950;  176.200; -880.000; -714.000
393.079;  430.525; -188.000; -328.000
393.208;   61.750; -488.000; -511.000
393.336;  -16.700; -170.000; -145.000
393.465;  -58.000; -317.000; -199.000
393.593;    4.200;   62.000;   79.000
393.722; -160.175;-1121.000; -916.000
393.850;  -36.350; -188.000;  -61.000
393.979; -167.100; -926.000; -805.000
394.107;  -45.550; -517.000; -537.000
394.236;  -19.225; -570.000; -507.000
394.364;  237.400;  383.000;  206.000
394.493;  390.425; -911.000; -767.000
394.621;  -14.675; -955.000; -916.000
394.750;  605.250; -873.000; -923.000
394.878; 2598.475; -247.000; -149.000
395.007; 3449.450; -721.000; -807.000
395.135;  244.775; -790.000; -721.000
395.263;  -95.450;-1038.000;-1040.000
395.392;    7.500;  -25.000; -107.000
395.520; -130.025; -818.000; -679.000
395.648;  -71.125; -865.000; -915.000
395.777;   -5.150; -366.000; -405.000
395.905;  -43.500; -449.000; -564.000
396.033;   27.900;  217.000;  172.000
396.162;  634.675; -399.000; -453.000
396.290;  533.200;  -17.000;   -2.000
396.418;  137.225; -555.000; -514.000
396.546;  -66.100; -571.000; -466.000
396.674;  -89.625; -850.000; -878.000
396.803;   27.225;  -72.000;  -23.000
396.931;  139.300; -179.000; -199.000
397.059;  125.150;-1026.000; -989.000
397.187;  -94.975;-1026.000; -975.000
397.315; -123.000; -884.000; -649.000
397.443; -102.475; -592.000; -443.000
397.572;  -88.675; -578.000; -424.000
397.700;   41.025; -607.000; -614.000
397.828;   21.650;  120.000;  -90.000
397.956;  -48.450; -508.000; -478.000
398.084;  -69.450; -767.000; -626.000
398.212;   44.225;  137.000;  124.000
398.340;   29.775;  -56.000;  159.000
398.468;   63.700; -390.000; -169.000
398.596; -128.925; -993.000; -953.000
398.724; -120.000; -762.000; -767.000
398.852; -170.550;-1024.000; -976.000
398.980;  -44.300; -560.000; -560.000
399.108;  -23.725; -982.000; -735.000
399.236;   58.900;   13.000;    8.000
399.363;   13.300;  222.000;  196.000
399.491;  -59.900; -404.000; -398.000
399.619; -136.125; -829.000; -800.000
399.747;  -89.175; -859.000; -771.000
399.875;   93.550;  220.000;  234.000
400.003;  -48.025; -359.000; -284.000
400.130;  -90.375; -421.000; -341.000
400.258;  -31.550;  -83.000;   38.000
400.386;  -67.625; -352.000; -168.000
400.514;  -33.600; -526.000; -587.000
400.641;  -77.900; -928.000; -802.000
400.769; -131.350; -979.000; -888.000
400.897;  -96.500; -838.000; -793.000
401.025;  -11.100; -166.000; -152.000
401.152;   -4.600;  220.000;   38.000
401.280;  -88.775; -430.000; -429.000
401.408; -104.575; -712.000; -576.000
401.535;  -99.150; -735.000; -758.000
401.663; -200.925;-1134.000;-1054.000
401.790;  -77.800; -514.000; -525.000
401.918;   32.200;  436.000;  405.000
402.046;  -12.425;  134.000;  122.000
402.173;  -43.175;  -18.000;    7.000
402.301;  -70.500; -519.000; -397.000
402.428;   40.250;  528.000;  383.000
402.556; -142.800;-1188.000; -913.000
402.683;  -27.925;  -20.000;   -1.000
402.811;  -21.175;  -37.000; -206.000
402.938;   -1.875;   20.000;   27.000
403.066;  277.625; -574.000; -558.000
403.193;  434.225;  299.000;  239.000
403.321;  362.400; -396.000; -574.000
403.448;  420.325;   83.000;   27.000
403.575;  193.950;  -90.000;  -46.000
403.703;  -90.475; -732.000; -557.000
403.830;  -77.925; -531.000; -496.000
403.957; -136.575;-1117.000;-1023.000
404.085;    3.300;  -61.000; -172.000
404.212;  120.650;  -50.000;   63.000
404.339;  220.325; -566.000; -306.000
404.467; 4953.925; -612.000; -524.000
404.594; 3653.400; -287.000; -227.000
404.721;  984.675; -869.000; -764.000
404.848;   99.875; -113.000; -202.000
404.976;  -95.150; -856.000; -783.000
405.103;  -12.125;  -14.000;  -82.000
405.230;  -14.800;  190.000;  226.000
405.357;   35.550;  117.000;   44.000
405.484;  230.900;  -49.000;    5.000
405.612;   34.350; -548.000; -563.000
405.739;  -67.200; -488.000; -243.000
405.866;   97.425;  669.000;  385.000
405.993;  -45.025; -398.000; -102.000
406.120; -146.400; -801.000; -887.000
406.247;  -55.075; -323.000; -342.000
406.374;  575.800;  540.000;  629.000
406.501;  203.300; -632.000; -702.000
406.628;  -63.575; -621.000; -589.000
406.755;  -88.450; -803.000; -620.000
406.882;  -29.650; -228.000; -277.000
407.009; -100.200; -719.000; -628.000
407.136;   86.075; -480.000; -401.000
407.263;  238.900; -939.000; -829.000
407.390;  -75.275; -692.000; -614.000
407.517; -154.775;-1139.000;-1187.000
407.644;  -47.575; -332.000; -256.000
407.771;  -63.225; -249.000; -287.000
407.898;    5.475;  168.000;  328.000
408.025;  -62.000; -421.000; -313.000
408.151;   -9.425;   82.000;  153.000
408.278;  -55.000; -267.000; -216.000
408.405; -109.125; -931.000; -899.000
408.532;  -64.025; -549.000; -542.000
408.659; -116.050; -677.000; -648.000
408.785; -202.500;-1298.000;-1170.000
408.912;  -67.775; -412.000; -296.000
409.039; -125.675; -610.000; -686.000
409.166; -110.550; -591.000; -555.000
409.292; -119.375; -571.000; -534.000
409.419; -120.975; -665.000; -649.000
409.546;  -68.775; -431.000; -192.000
409.672; -109.475; -713.000; -545.000
409.799;  -20.650;  -36.000;   34.000
409.926;  -36.200; -180.000; -179.000
410.052; -180.575;-1127.000;-1091.000
410.179;  -46.650; -368.000; -392.000
410.305;  -92.375; -375.000; -493.000
410.432;  -44.950; -220.000; -333.000
410.558;  -92.025; -305.000; -380.000
410.685; -115.525; -688.000; -431.000
410.812; -105.450; -409.000; -588.000
410.938; -135.225; -964.000; -808.000
411.065;  -88.400; -671.000; -645.000
411.191;   -9.050; -189.000; -174.000
411.317; -125.225; -823.000; -742.000
411.444;  -70.825; -317.000; -246.000
411.570;  -78.450; -339.000; -294.000
411.697; -133.775; -758.000; -752.000
411.823; -173.800; -989.000; -999.000
411.949;  -33.325;  -56.000;   17.000
412.076; -116.225; -539.000; -519.000
412.202; -107.175; -758.000; -757.000
412.329; -129.150; -798.000; -752.000
412.455; -117.425; -821.000; -657.000
412.581;  -14.300;  -15.000;  172.000
412.707;  -46.650; -540.000; -457.000
412.834;   20.425;  156.000;  219.000
412.960;  -74.875; -785.000; -784.000
413.086; -102.050; -743.000; -701.000
413.212;  172.850;  604.000;  578.000
413.339;  -68.550; -685.000; -701.000
413.465;   43.175; -364.000; -310.000
413.591;  -89.825; -757.000; -474.000
413.717;  -53.525; -358.000; -366.000
413.843; -142.050; -839.000; -861.000
413.969;  -53.175;  -47.000; -292.000
414.096; -109.625; -679.000; -679.000
414.222;   -3.000;  -33.000;   85.000
414.348;   -7.925; -652.000; -385.000
414.474;  133.275;   38.000;  -52.000
414.600;  -29.950; -126.000; -144.000
414.726;  -24.600;  -96.000;  -55.000
414.852;  -69.325; -365.000; -342.000
414.978;   32.700;  104.000;  -18.000
415.104;   36.450;   38.000;   80.000
415.230;   32.825; -329.000; -330.000
415.356;   39.700; -409.000; -514.000
415.482;  201.925;   13.000;  -35.000
415.608;  239.025; -247.000; -323.000
415.734;  859.550;   67.000;   38.000
415.860;18276.025; -875.000; -767.000
415.986;13258.300; -685.000; -607.000
416.111; 1139.700; -798.000; -652.000
416.237;  208.600; -424.000; -571.000
416.363;  969.800; -765.000; -733.000
416.489; 3613.950; -324.000; -251.000
416.615;  377.550; -707.000; -742.000
416.741;  -30.725; -677.000; -784.000
416.866; -102.025; -673.000; -736.000
416.992; -121.725; -801.000; -818.000
417.118;  -29.325;  -41.000;  -80.000
417.244;  -65.325; -798.000; -531.000
417.369;  -86.175; -801.000; -612.000
417.495;    2.700; -325.000; -254.000
417.621;  -73.375;-1015.000; -803.000
417.746;    2.275; -579.000; -572.000
417.872;   52.325; -254.000; -144.000
417.998;   28.625; -515.000; -530.000
418.123;  904.875;-1073.000; -845.000
418.249; 4731.650; -512.000; -601.000
418.374;  647.375; -916.000; -824.000
418.500;   91.675; -383.000; -482.000
418.626;   88.475;   70.000;  -59.000
418.751;  117.550; -549.000; -448.000
418.877;  156.075; -637.000; -643.000
419.002; 1549.600; -688.000; -560.000
419.128;10954.525; -930.000; -721.000
419.253; 2655.875; -967.000; -837.000
419.379;  344.975; -391.000; -338.000
419.504;  359.450;  325.000;  415.000
419.629;  459.650; -393.000; -212.000
419.755; 2938.800; -317.000; -254.000
419.880;17665.675;  -98.000;   67.000
420.006; 9952.625; -280.000; -221.000
420.131;26240.125; -662.000; -775.000
420.256; 3847.800; -315.000; -316.000
420.382;  494.375; -665.000; -687.000
420.507;   62.525; -649.000; -778.000
420.632;  169.200; -337.000; -339.000
420.758;  378.725; -251.000; -425.000
420.883;  -74.675; -876.000; -672.000
421.008;  -88.300; -775.000; -619.000
421.133;  -85.425; -509.000; -467.000
421.259;  -51.625; -325.000; -259.000
421.384; -127.000; -834.000; -693.000
421.509;  -13.500;-1052.000; -862.000
421.634; 1729.875; -936.000; -820.000
421.759;  759.450; -359.000; -327.000
421.885;  -33.500; -717.000; -656.000
422.010;  -67.575; -673.000; -542.000
422.135; -132.800; -695.000; -727.000
422.260;   39.200;  340.000;  280.000
422.385;  -56.900;   12.000;  -98.000
422.510;    0.950;  151.000;  -26.000
422.635;   14.750;  -87.000;  -43.000
422.760;  119.400; -766.000; -791.000
422.885;   53.650;  -57.000;  -80.000
423.010;  -45.850; -112.000; -169.000
423.135; -105.275; -481.000; -561.000
423.260;    1.275; -150.000; -245.000
423.385;   95.725;  476.000;  222.000
423.510;   31.925;   71.000;  -22.000
423.635;  112.825;  133.000;   45.000
423.760;   58.875;  383.000;  328.000
423.885;   55.825;  336.000;  391.000
424.010;   19.275;  -68.000;  -13.000
424.135;  -26.975;    5.000;  -33.000
424.259;  -91.200; -654.000; -457.000
424.384;  -66.375; -279.000; -272.000
424.509;  -24.225; -260.000; -186.000
424.634; -100.775; -761.000; -623.000
424.759;  -29.875; -688.000; -544.000
424.883;  -11.125; -506.000; -527.000
425.008;  174.075; -502.000; -410.000
425.133; 1773.300; -679.000; -653.000
425.258;  853.725; -517.000; -381.000
425.382; 1230.025; -867.000; -774.000
425.507; 3248.225; -487.000; -543.000
425.632;  484.625; -802.000; -663.000
425.756;  395.575; -256.000; -146.000
425.881; 5333.950; -831.000; -857.000
426.006;14296.800; -604.000; -355.000
426.130; 2323.500; -696.000; -508.000
426.255;  286.525; -611.000; -491.000
426.379;  144.125; -189.000; -577.000
426.504;  339.425;  660.000;  544.000
426.629; 3721.425; -519.000; -466.000
426.753; 2532.625;   64.000;  -46.000
426.878;  292.125; -252.000; -288.000
427.002;  172.200; -651.000; -668.000
427.127; 1460.425;  -35.000; -158.000
427.251;10053.875;  372.000;  401.000
427.375; 2906.400; -191.000; -173.000
427.500; 2757.825; -616.000; -610.000
427.624;  983.125; -234.000; -400.000
427.749;  121.975; -216.000; -225.000
427.873;  -37.250; -499.000; -412.000
427.997;  -35.925; -222.000; -230.000
428.122;   75.225;  795.000;  703.000
428.246;   76.000;  433.000;  434.000
428.371; -109.325; -869.000; -773.000
428.495;  -99.425; -624.000; -646.000
428.619;  -24.150; -186.000; -117.000
428.743;   23.350;   65.000;  132.000
428.868;   53.600; -732.000; -643.000
428.992; 1771.850; -219.000; -326.000
429.116;  744.950; -329.000; -357.000
429.240;  362.850;  419.000;  426.000
429.365;  -15.825; -454.000; -574.000
429.489;  -37.625; -638.000; -647.000
429.613;   18.425; -236.000; -177.000
429.737;   31.900; -563.000; -432.000
429.861;  237.275; -247.000; -133.000
429.985; 4941.925; -425.000; -305.000
430.109; 5412.275; -770.000; -908.000
430.234;  628.825;   76.000;  -50.000
430.358;   55.575; -250.000; -160.000
430.482;  -68.500; -672.000; -564.000
430.606;  -67.700; -655.000; -375.000
430.730;   44.275; -437.000; -388.000
430.854;  213.875; -909.000; -835.000
430.978;  -56.675; -795.000; -764.000
431.102;  -73.225; -499.000; -422.000
431.226; -103.975; -874.000; -815.000
431.350;   34.375;  345.000;  422.000
431.474;  -49.950; -661.000; -373.000
431.597; -147.250;-1060.000; -848.000
431.721;  -78.925; -276.000; -267.000
431.845; -132.225; -704.000; -472.000
431.969;  -84.675; -304.000; -349.000
432.093; -109.600; -395.000; -317.000
432.217;  -13.350;   32.000;   82.000
432.341;  -86.600; -523.000; -518.000
432.464;    6.700;   96.000;   40.000
432.588;  291.075; -401.000; -329.000
432.712;  139.775;  -52.000;  -52.000
432.836;   49.600;  213.000;  263.000
432.959;  -25.775; -372.000; -311.000
433.083;   70.375;   11.000;    2.000
433.207;  336.600;  285.000;  930.000
433.330; 4392.950; -391.000; -200.000
433.454; 5414.725; -654.000; -638.000
433.578; 3165.950;  583.000;  278.000
433.701;  605.800; -623.000; -675.000
433.825;  203.575; -292.000; -299.000
433.949;  282.125;   28.000;  -72.000
434.072;  114.775; -410.000; -323.000
434.196;   -3.350; -309.000; -117.000
434.319; 3689.850;25482.000;25124.000
434.443;  731.375; -656.000; -603.000
434.566; 2365.250;  281.000;   62.000
434.690;  376.550; -637.000; -383.000
434.813;   53.850; -251.000; -173.000
434.937;  -77.850; -569.000; -696.000
435.060;  -36.300; -423.000; -332.000
435.184;  512.475; -492.000; -217.000
435.307;  276.850;  159.000;  102.000
435.431;    7.750;  -40.000;   24.000
435.554;  -83.375; -399.000; -240.000
435.677;  -75.625; -350.000; -258.000
435.801;  -37.925;  -25.000;   49.000
435.924;    7.675;    1.000;  -67.000
436.048;  -93.000;-1019.000; -732.000
436.171;  -70.675; -240.000;  -66.000
436.294;  -31.725; -248.000; -229.000
436.417;   55.275; -963.000; -849.000
436.541; -107.175; -814.000; -840.000
436.664;  -63.400; -242.000; -316.000
436.787;  -30.350;   13.000;  113.000
436.910; -110.450; -792.000; -422.000
437.034;   10.500;  142.000;  143.000
437.157;   99.875;  -11.000;    0.000
437.280;  -27.925; -392.000; -292.000
437.403;  -59.625; -982.000; -869.000
437.526;  970.250; -903.000; -865.000
437.649; 3384.375; -505.000; -332.000
437.772;  547.725; -692.000; -540.000
437.896;  158.200;  700.000;  544.000
438.019;  -98.725; -758.000; -503.000
438.142;  -76.725; -596.000; -506.000
438.265;   16.225; -639.000; -670.000
438.388;  828.900; -520.000; -410.000
438.511;  185.950; -597.000; -394.000
438.634;  -32.125; -247.000; -125.000
438.757; -136.800; -693.000; -619.000
438.880;  -42.425;  -34.000;  -57.000
439.003;  -71.425; -417.000; -437.000
439.126;  -53.300; -287.000; -167.000
439.248;  -67.825;  -98.000; -139.000
439.371;  -54.800;    9.000;  -53.000
439.494;    7.400;  510.000;  439.000
439.617;  -71.550;   65.000;  -88.000
439.740; -172.425; -968.000; -816.000
439.863; -151.500; -755.000; -595.000
439.986; -130.050; -476.000; -431.000
440.108;  -45.750; -161.000; -112.000
440.231; -165.600; -950.000; -836.000
440.354;  -41.575;  -64.000; -150.000
440.477;   79.725; -566.000; -542.000
440.599;   25.325; -200.000; -225.000
440.722; -122.275; -709.000; -586.000
440.845;   62.675;  751.000;  928.000
440.968; -107.300; -415.000; -311.000
441.090;  -72.700; -199.000;  -33.000
441.213; -175.900;-1021.000; -825.000
441.336;  -55.575; -159.000;   -5.000
441.458;  -79.575; -549.000; -396.000
441.581;  -86.500; -628.000; -629.000
441.703;  -69.275; -152.000;   13.000
441.826; -114.875; -557.000; -400.000
441.948;  -49.825;   56.000;   51.000
442.071;   18.300;  555.000;  424.000
442.193; -121.975; -531.000; -485.000
442.316;   13.600;  152.000;   97.000
442.438;   40.300; -233.000;  -10.000
442.561;   78.175;  272.000;  262.000
442.683;  803.325; -809.000; -522.000
442.806; 1681.650;   -8.000;   74.000
442.928;  104.525; -859.000; -604.000
443.051;  -57.350; -577.000; -373.000
443.173;  -95.400; -341.000; -339.000
443.295;  -83.450; -263.000; -371.000
443.418;  -73.175; -321.000;  -29.000
443.540;    2.575; -106.000;   -4.000
443.662; -111.750; -563.000; -465.000
443.785;   -8.050;  335.000;  199.000
443.907; -106.050; -362.000; -208.000
444.029; -119.950; -767.000; -494.000
444.152; -152.550; -644.000; -554.000
444.274;  -42.775;  -18.000;  -24.000
444.396; -109.475; -461.000; -221.000
444.518; -144.325; -691.000; -454.000
444.640; -115.800; -268.000; -111.000
444.763;  -34.200;  388.000;  249.000
444.885; -118.775; -432.000; -392.000
445.007;  -31.550;   35.000;   86.000
445.129; -119.925; -610.000; -515.000
445.251;  -90.275; -372.000; -439.000
445.373; -140.000; -537.000; -386.000
445.495;    0.625;  242.000;  350.000
445.617;   52.575;  853.000;  753.000
445.739;  -62.300; -215.000;  -97.000
445.861;  -31.575; -245.000; -112.000
445.984;  -10.250; -267.000; -101.000
446.105;  297.400; -418.000; -251.000
446.227;  849.050; -176.000;  -19.000
446.349;   40.675; -358.000; -249.000
446.471;  -94.900; -615.000; -448.000
446.593;  -55.300; -316.000;   19.000
446.715;    5.175;  -67.000;   41.000
446.837;   63.775;  697.000;  832.000
446.959; -109.000; -457.000; -478.000
447.081; -145.100; -628.000; -518.000
447.203;   30.600;  862.000;  834.000
447.325;  -83.150; -270.000;   42.000
447.446;  -12.950;  286.000;  530.000
447.568; -147.725; -921.000; -803.000
447.690;  -88.875; -236.000; -245.000
447.812; -164.800; -798.000; -519.000
447.933;  -33.475;  155.000;  127.000
448.055;  -68.825; -306.000; -261.000
448.177;  182.975;   31.000;   79.000
448.299;  160.775; -935.000; -727.000
448.420;   32.625;  -25.000;  159.000
448.542;  -44.025;   -3.000;   33.000
448.664;  -18.550;  109.000;  322.000
448.785;  -35.875;  265.000;   83.000
448.907;  -58.000; -614.000; -353.000
449.028;  -16.450; -771.000; -471.000
449.150;   70.375;  492.000;  589.000
449.272; -186.025;-1044.000; -913.000
449.393;   25.025;  612.000;  694.000
449.515; -142.300; -634.000; -581.000
449.636;  -51.775; -264.000; -155.000
449.758;   85.800;  763.000;  622.000
449.879;  -83.600; -498.000; -396.000
450.001;  -73.075; -149.000;  -49.000
450.122;  -34.275;  -95.000;  162.000
450.244;  -21.850;   37.000;  364.000
450.365; -111.800; -495.000; -301.000
450.486;  -36.825;   80.000;  268.000
450.608;   13.025;  393.000;  326.000
450.729;   52.425;  578.000;  645.000
450.850;  -19.450; -574.000; -466.000
450.972;  594.325; -552.000; -389.000
451.093; 4088.275;  190.000;  588.000
451.214; 1772.575; -516.000; -337.000
451.336;  355.800;  773.000;  579.000
451.457;   48.575;  264.000;  393.000
451.578;  -47.400; -118.000;  -74.000
451.699; -129.475; -546.000; -540.000
451.821;  -75.525; -284.000;  -50.000
451.942;  -16.150;  278.000;  285.000
452.063;   14.100;  228.000;  419.000
452.184;  469.100;  -54.000;  -49.000
452.305;  931.425;  103.000;  170.000
452.427;   86.100; -549.000; -301.000
452.548;  -32.425;   23.000;   79.000
452.669;  -43.675; -257.000;  -89.000
452.790;  -37.250;    3.000;  -18.000
452.911;    6.175;  195.000;  259.000
453.032;  -55.950; -289.000;  -60.000
453.153;  -45.125;  -29.000;   81.000
453.274;   63.450;  737.000;  868.000
453.395;  -55.250;  -51.000;  175.000
453.516;  125.400; 1317.000; 1388.000
453.637;  -62.625; -205.000; -150.000
453.758;  -58.925;   15.000;   69.000
453.879; -127.500; -462.000; -250.000
454.000;   80.600; 1086.000;  948.000
454.121; -106.625; -554.000; -326.000
454.242; -130.000; -599.000; -383.000
454.362;  -60.300;  -99.000;  114.000
454.483;  -31.175; -309.000; -229.000
454.604;   62.275;  512.000;  580.000
454.725; -132.400; -627.000; -555.000
454.846; -127.800; -474.000; -406.000
454.967;  -21.700;  230.000;  539.000
455.087;  -51.425;  179.000;  153.000
455.208;   23.650;  554.000;  856.000
455.329;  -77.675;  -22.000;   82.000
455.450;   15.575;  473.000;  633.000
455.570;  -94.475; -234.000; -211.000
455.691;  -50.500;  201.000;  407.000
455.812; -129.400; -270.000;  -92.000
455.932;  -53.950;  107.000;  -97.000
456.053;  -77.025;   36.000;   24.000
456.173; -108.450; -433.000; -355.000
456.294; -138.800; -476.000; -303.000
456.415;  -61.650;  -73.000;   70.000
456.535;  -29.525;  297.000;  273.000
456.656;  -34.900;  132.000;  240.000
456.776;  -79.425;    3.000;  298.000
456.897;   -7.725;  308.000;  513.000
457.017;  -79.425; -153.000;   -3.000
457.138; -100.725; -402.000; -249.000
457.258;  -29.550;  263.000;  224.000
457.379;  -11.675;  509.000;  521.000
457.499;  -40.600;  443.000;  432.000
457.620; -128.900; -407.000; -231.000
457.740; -105.300; -132.000;  -11.000
457.860;  -46.175;   87.000;   44.000
457.981;  -52.250;  132.000;  124.000
458.101;  -71.675;  -89.000;   40.000
458.221;  -27.800;  336.000;  402.000
458.342;  -69.050;   -4.000;  -37.000
458.462;   21.700;  617.000;  352.000
458.582;  -63.200; -302.000; -294.000
458.703;  -15.750;  303.000;  154.000
458.823;  -41.725;   22.000;  163.000
458.943;   15.075;  341.000;  467.000
459.063;  -12.850; 1124.000;  192.000
459.183;  -27.450;  328.000;  313.000
459.304;   15.475;  315.000;  517.000
459.424;  -78.200; -246.000;  -89.000
459.544;  297.225;  388.000;  764.000
459.664;  721.800;  499.000;  506.000
459.784;  258.725; 1004.000; 1175.000
459.904;   61.550;  867.000;  744.000
460.024;   64.725;  867.000;  684.000
460.144;   16.050;  449.000;  554.000
460.264;  -12.375;  515.000;  327.000
460.385;  -92.000; -145.000; -119.000
460.505;   39.700;  905.000;  858.000
460.625; -109.575;  -17.000;  -68.000
460.745;  -12.450;  396.000;  541.000
460.864;  -52.950;  153.000;  469.000
460.984;   12.875;  499.000;  573.000
461.104;  151.300; 1656.000; 1775.000
461.224;   19.225;  657.000;  650.000
461.344;  -30.575;  431.000;  360.000
461.464;  -40.050;  258.000;  513.000
461.584;  -23.250;  283.000;  466.000
461.704;  -47.325;   58.000;  108.000
461.824;  -58.250;  238.000;  259.000
461.943;  -33.175;  191.000;  130.000
462.063;  -67.025;    2.000;  324.000
462.183;   28.500;  639.000;  717.000
462.303;   91.950; 1678.000; 1230.000
462.422;   21.700;  781.000;  840.000
462.542;  -57.000;  271.000;  391.000
462.662;   39.150;  353.000;  380.000
462.782;  221.000;  833.000;  572.000
462.901;  420.250;  545.000;  717.000
463.021;  266.650; 1702.000; 1638.000
463.141;   -9.975;  337.000;  770.000
463.260;  -15.225;  614.000;  474.000
463.380;    9.425;  902.000;  884.000
463.499;  -44.075;  342.000;  332.000
463.619;  -28.575;  581.000;  559.000
463.738;  118.675; 1644.000;  903.000
463.858;   26.750;  657.000;  811.000
463.978;  -35.925;  542.000;  396.000
464.097;   43.575;  921.000; 1114.000
464.217;   90.150; 1196.000; 1143.000
464.336;   93.025; 1068.000; 1130.000
464.455;  -28.175;  328.000;  659.000
464.575;   55.500;  597.000;  602.000
464.694;  195.425; 1204.000; 1179.000
464.814;  122.275; 1190.000; 1138.000
464.933;   78.600; 1095.000; 1027.000
465.052;  110.150; 1412.000; 1054.000
465.172;   88.825;  922.000;  799.000
465.291;  145.625; 1376.000; 1320.000
465.410;    8.575;  462.000;  735.000
465.530;   85.125; 1355.000; 1310.000
465.649;   70.325; 1209.000; 1273.000
465.768;  138.850; 1673.000; 1508.000
465.888;   38.750;  941.000; 1174.000
466.007;   81.500; 1335.000; 1440.000
466.126;  -10.175;  721.000;  641.000
466.245;   39.225; 1176.000; 1187.000
466.364;    5.025;  950.000; 1060.000
466.484;   57.900; 1024.000; 1213.000
466.603;   35.775; 1101.000; 1222.000
466.722;  112.975; 1490.000; 1769.000
466.841;   61.825; 1151.000; 1401.000
466.960;   37.025; 1069.000;  972.000
467.079;  130.925; 1971.000; 1786.000
467.198;   62.975; 1238.000; 1181.000
467.317;   76.075; 1768.000; 1162.000
467.436;   70.875; 1709.000; 1261.000
467.555;  109.475; 1796.000; 1746.000
467.674;   81.150; 1227.000; 1329.000
467.793;   29.575; 1376.000; 1374.000
467.912;   82.750; 1658.000; 1539.000
468.031;  140.500; 2038.000; 1930.000
468.150;  135.825; 1842.000; 1837.000
468.269;  188.775; 2313.000; 2090.000
468.388;  178.750; 2168.000; 2339.000
468.507;  254.950; 2884.000; 2903.000
468.626;  231.250; 2555.000; 2541.000
468.744;  121.100; 2018.000; 2174.000
468.863;  204.950; 2312.000; 2523.000
468.982;  101.600; 1503.000; 1555.000
469.101;  227.350; 2788.000; 2692.000
469.220;  135.575; 2333.000; 2176.000
469.338;  251.325; 2935.000; 3051.000
469.457;  189.600; 2719.000; 2545.000
469.576;  340.675; 3953.000; 3784.000
469.695;  234.325; 2877.000; 3066.000
469.813;  425.225; 4148.000; 4192.000
469.932;  409.775; 4255.000; 4485.000
470.051;  422.175; 4075.000; 4161.000
470.169;  798.375; 4470.000; 4338.000
470.288; 1343.350; 4700.000; 4809.000
470.406;  841.925; 5059.000; 5194.000
470.525;  609.200; 6101.000; 5787.000
470.644;  649.925; 6847.000; 6794.000
470.762;  800.775; 8397.000; 7873.000
470.881;  892.750; 8651.000; 8464.000
470.999; 1005.025; 9685.000; 9151.000
471.118; 1100.400;11174.000;10711.000

