
Integration time [ms]: 200.000
Averaging Nr. [scans]: 10
Smoothing Nr. [pixels]: 0
Data measured with spectrometer [name]: 2101012U2
Wave   ;Sample   ;Dark     ;Reference
[nm]   ;[counts] ;[counts] ;[counts] 

197.733;  119.200;  516.000;  404.000
197.879; -164.500; -610.000; -634.000
198.025; -137.100; -475.000; -420.000
198.171; -152.000; -602.000; -612.000
198.317; -100.800; -401.000; -316.000
198.463; -161.000; -655.000; -404.000
198.609;   45.600;  181.000; -137.000
198.755; -159.700; -644.000; -410.000
198.901; -124.500; -505.000; -424.000
199.047; -157.100; -615.000; -488.000
199.193;  -92.400; -230.000; -468.000
199.339;  -85.500; -222.000; -369.000
199.485;   61.800;  330.000;  271.000
199.631;   29.800;  227.000;  310.000
199.777; -124.900; -466.000; -398.000
199.923; -134.000; -610.000; -424.000
200.069;  -17.600; -141.000;  -58.000
200.215;  150.300;  128.000;  453.000
200.361;   78.600;  243.000;  477.000
200.507; -121.200; -600.000; -373.000
200.653;  -55.100; -371.000; -194.000
200.798;  -94.500; -215.000; -125.000
200.944;  -41.500; -146.000;  -41.000
201.090;   62.300;   61.000;  222.000
201.236;  -16.200; -116.000; -158.000
201.382;  296.300;  874.000;  903.000
201.528;  -12.700;  -58.000;  -48.000
201.674;  -55.600; -386.000; -293.000
201.819; -179.000; -540.000; -439.000
201.965; -173.200; -699.000; -447.000
202.111;  -72.700; -273.000; -226.000
202.257; -104.400; -250.000; -238.000
202.402;   11.300;   13.000;  -36.000
202.548;  -77.100; -169.000; -116.000
202.694;  152.100;  410.000; -183.000
202.840; -166.700; -603.000; -531.000
202.985; -174.000; -681.000; -639.000
203.131; -236.300; -832.000; -666.000
203.277;  -69.600; -199.000; -262.000
203.423; -138.500; -434.000; -520.000
203.568;  -98.600; -462.000; -237.000
203.714; -114.900; -535.000; -542.000
203.860; -186.400; -682.000; -641.000
204.005;  -11.000;  112.000;  167.000
204.151;  127.900;  561.000;  556.000
204.296;  -88.900; -354.000; -221.000
204.442; -167.100; -600.000; -547.000
204.588; -179.100; -592.000; -579.000
204.733;   41.400;  178.000;  168.000
204.879; -311.900;-1018.000; -822.000
205.025;   13.500;  -99.000;  126.000
205.170;  -27.000;  -17.000;   94.000
205.316;  151.300;  438.000;  661.000
205.461; -165.700; -698.000; -554.000
205.607;  176.500;  609.000;  665.000
205.752; -171.700; -626.000; -551.000
205.898; -120.300; -501.000; -391.000
206.043; -117.900; -578.000; -506.000
206.189;  -89.700; -243.000; -285.000
206.334;  184.100;  554.000;  606.000
206.480;  153.900;  409.000;  239.000
206.625; -191.000; -529.000; -552.000
206.771; -117.100; -451.000; -373.000
206.916; -117.200; -210.000; -537.000
207.062; -146.900; -545.000; -591.000
207.207; -103.300; -546.000; -443.000
207.353;   97.000;  185.000;  460.000
207.498;   52.200;  196.000;   85.000
207.643; -124.900; -501.000; -370.000
207.789; -270.700;-1069.000; -910.000
207.934; -204.900; -665.000; -713.000
208.080;  -79.700; -154.000;   66.000
208.225;  -25.200;  -22.000;  -57.000
208.370; -159.700; -727.000; -619.000
208.516; -184.000; -741.000; -487.000
208.661;  -56.900; -127.000;  -69.000
208.806;  -62.700; -165.000; -171.000
208.952; -297.700;-1044.000; -731.000
209.097;  130.400;  378.000;  349.000
209.242; -110.300; -307.000; -382.000
209.387;   83.600;  392.000;  350.000
209.533;  -97.300; -321.000; -350.000
209.678;  150.600;  472.000;  543.000
209.823; -113.400; -408.000; -310.000
209.969; -233.600; -860.000; -757.000
210.114; -215.600; -907.000; -719.000
210.259; -258.700; -939.000; -889.000
210.404;  -19.500; -171.000;  103.000
210.549;   -6.600;  108.000;    3.000
210.695;  -28.600;   -3.000;  -95.000
210.840;   69.200;   94.000;   67.000
210.985; -136.600; -484.000; -303.000
211.130;   99.100;  268.000;  406.000
211.275;   37.300;  207.000;  199.000
211.420; -126.900; -300.000; -289.000
211.566; -125.100; -536.000; -489.000
211.711;   10.100;  218.000;  157.000
211.856; -139.200; -545.000; -519.000
212.001;   -9.400;  151.000;   44.000
212.146;    5.600;  153.000;   49.000
212.291;  -38.700; -210.000; -186.000
212.436;  -23.300; -280.000;   -6.000
212.581; -201.300; -685.000; -653.000
212.726; -188.000; -487.000; -538.000
212.871; -119.300; -552.000; -217.000
213.016; -290.700;-1172.000;-1029.000
213.161;   86.500;  406.000;  291.000
213.306; -128.100; -435.000; -577.000
213.451; -202.700; -778.000; -689.000
213.596; -110.800; -455.000; -347.000
213.741; -118.600; -448.000; -538.000
213.886; -163.200; -498.000; -517.000
214.031;  -63.500; -294.000; -124.000
214.176; -131.900; -408.000; -341.000
214.321;  -55.100; -296.000; -157.000
214.466;  -33.600; -163.000;  -43.000
214.611;  -20.500;  -61.000;  -10.000
214.756; -266.700; -948.000; -858.000
214.901;  -67.000; -388.000; -226.000
215.046; -246.400; -797.000; -825.000
215.191;   35.100;  128.000;   35.000
215.336;  -52.800; -157.000;  -19.000
215.480; -164.700; -684.000; -505.000
215.625;  -36.600; -175.000;  -19.000
215.770; -189.100; -757.000; -662.000
215.915;    8.800;   -5.000;  -97.000
216.060;  -39.800; -113.000;  -21.000
216.205; -227.500; -731.000; -779.000
216.349; -155.100; -470.000; -533.000
216.494; -276.300; -939.000; -867.000
216.639; -294.800; -823.000; -888.000
216.784; -199.000; -577.000; -525.000
216.929;   94.700;  392.000;  281.000
217.073;  -43.000; -244.000;  -31.000
217.218;    9.900;   78.000;  -47.000
217.363; -197.800; -656.000; -618.000
217.507; -164.900; -623.000; -588.000
217.652; -261.400; -845.000; -874.000
217.797; -185.200; -708.000; -659.000
217.942; -247.500; -856.000; -720.000
218.086;  134.000;  608.000;  539.000
218.231;  -50.800; -174.000;  -26.000
218.376;  -87.200; -337.000; -229.000
218.520;   -8.700;  -41.000;   96.000
218.665;  -49.700; -338.000; -204.000
218.810;  -79.400; -275.000; -233.000
218.954;   16.100;  201.000;   35.000
219.099; -237.000; -713.000; -963.000
219.243; -145.600; -589.000; -554.000
219.388;  -59.300; -264.000; -136.000
219.532;  -34.500; -116.000; -116.000
219.677; -163.200; -564.000; -521.000
219.822;   16.100;   33.000;   89.000
219.966;    2.400;   17.000;  -99.000
220.111;  -58.000; -328.000;  -40.000
220.255; -206.100; -797.000; -750.000
220.400;  -59.500; -180.000; -146.000
220.544; -151.200; -516.000; -450.000
220.689; -134.500; -422.000; -451.000
220.833;  -17.600; -123.000;  -58.000
220.978;  -77.800; -393.000; -563.000
221.122;   30.900;  319.000;  307.000
221.267; -236.200; -906.000; -837.000
221.411; -142.700; -478.000; -394.000
221.555;  -31.500; -104.000;  -23.000
221.700; -111.800; -329.000; -222.000
221.844;   76.100;  255.000;  272.000
221.989; -100.900; -328.000; -311.000
222.133;  -89.600; -289.000; -307.000
222.277;  -12.200;    5.000;   78.000
222.422;   32.200;  227.000;  113.000
222.566;  -67.100; -381.000; -214.000
222.711; -116.300; -414.000; -479.000
222.855; -172.900; -643.000; -586.000
222.999; -190.800; -642.000; -717.000
223.144;  -69.000; -195.000; -194.000
223.288;  108.600;  423.000;  251.000
223.432;   13.500;  184.000;  230.000
223.576;   32.300;  152.000;  -21.000
223.721;   98.100;  364.000;  273.000
223.865; -127.200; -472.000; -475.000
224.009;  505.800; 1673.000; 1631.000
224.153; -171.000; -660.000; -671.000
224.298; -131.900; -531.000; -489.000
224.442;  -32.000;  -74.000;  -33.000
224.586;   -4.400; -169.000; -106.000
224.730; -207.400; -858.000; -670.000
224.875; -216.100; -739.000; -688.000
225.019;    1.000;  102.000;  188.000
225.163;  139.300;  208.000;  341.000
225.307;   26.800;   97.000;  -91.000
225.451;  129.000;  360.000;  481.000
225.595;   70.300;  264.000;  176.000
225.739;  -25.400; -170.000;  -94.000
225.884;   26.300;   86.000;    5.000
226.028; -197.600; -760.000; -626.000
226.172;  -92.100; -260.000; -273.000
226.316; -249.600; -941.000; -902.000
226.460; -169.300; -645.000; -493.000
226.604;  -99.200; -406.000; -400.000
226.748; -229.700; -836.000; -733.000
226.892;  -74.800; -227.000; -181.000
227.036; -112.300; -537.000; -447.000
227.180;  -78.400; -551.000; -375.000
227.324; -139.300; -561.000; -580.000
227.468; -248.000; -819.000; -717.000
227.612;   -4.200;  242.000;  -28.000
227.756; -191.700; -845.000; -698.000
227.900;  100.300;  342.000;  441.000
228.044; -124.600; -509.000; -290.000
228.188;  118.600;  448.000;  568.000
228.332; -169.000; -546.000; -472.000
228.476;  -89.300; -223.000; -149.000
228.620;  -63.100; -210.000; -150.000
228.764;  145.000;  431.000;  349.000
228.908;  -38.100; -155.000;   30.000
229.052; -115.300; -615.000; -528.000
229.195;  -51.000; -172.000;   13.000
229.339;  -49.300; -235.000; -305.000
229.483;  -45.200;    5.000; -162.000
229.627;  -16.500; -156.000;  139.000
229.771;  -79.400; -218.000; -294.000
229.915;   -6.100;  230.000;   79.000
230.059; -190.000; -648.000; -663.000
230.202;  -96.700; -370.000; -317.000
230.346;  -48.600; -107.000;  107.000
230.490; -162.700; -489.000; -521.000
230.634; -235.400; -736.000; -553.000
230.777;  138.200;  478.000;  509.000
230.921; -140.100; -450.000; -359.000
231.065; -127.900; -246.000; -286.000
231.209;   75.300;  261.000;  265.000
231.352;   26.500;   54.000;   40.000
231.496;   33.200;  568.000;  188.000
231.640; -166.100; -693.000; -621.000
231.783;  115.800;  546.000;  525.000
231.927;  -83.000; -294.000; -365.000
232.071; -240.500; -962.000; -736.000
232.214; -211.200; -980.000; -764.000
232.358; -225.700; -683.000; -599.000
232.502;    2.200;  -19.000;    7.000
232.645; -303.200;-1090.000; -927.000
232.789;  -84.300; -257.000; -218.000
232.933;  -89.200; -407.000; -224.000
233.076; -262.900;-1038.000; -897.000
233.220; -234.800; -752.000; -777.000
233.363; -162.700; -669.000; -477.000
233.507;  111.200;  371.000;  129.000
233.650; -193.100; -764.000; -834.000
233.794;   90.200;  438.000;  461.000
233.938; -145.000; -530.000; -362.000
234.081;  -28.500;  -93.000;   31.000
234.225; -127.900; -631.000; -539.000
234.368; -245.800; -773.000; -723.000
234.512;  -94.000; -385.000; -299.000
234.655; -221.000; -582.000; -555.000
234.798; -145.600; -493.000; -466.000
234.942; -252.800; -884.000;-1002.000
235.085; -154.200; -651.000; -443.000
235.229; -144.900; -405.000; -410.000
235.372;  -78.800; -247.000; -191.000
235.516; -126.600; -397.000; -321.000
235.659;   21.300;   92.000;  121.000
235.802;  -23.900;  -38.000;  -22.000
235.946;   57.000;  335.000;  215.000
236.089;   85.900;  126.000;  250.000
236.233;  114.900;  275.000;  298.000
236.376; -103.800; -235.000; -378.000
236.519;  -83.300; -297.000; -319.000
236.663;  -17.400; -215.000; -117.000
236.806; -291.500;-1029.000; -999.000
236.949;   91.000;  543.000;  431.000
237.092;  122.800;  412.000;  391.000
237.236; -184.500; -589.000; -502.000
237.379;  130.900;  352.000;  428.000
237.522; -250.900; -879.000; -768.000
237.666;  -31.700; -271.000;   18.000
237.809; -259.400; -851.000; -823.000
237.952;   81.800;  469.000;  271.000
238.095; -110.300; -447.000; -442.000
238.238;  180.000;  688.000;  700.000
238.382;   -2.600;  166.000;  103.000
238.525; -160.600; -598.000; -511.000
238.668; -277.500;-1060.000; -985.000
238.811; -161.800; -638.000; -643.000
238.954; -145.600; -483.000; -334.000
239.097;  189.000;  617.000;  664.000
239.241;   80.100;  394.000;  326.000
239.384;  -82.400; -254.000; -214.000
239.527; -124.300; -424.000; -224.000
239.670; -318.000; -994.000;-1091.000
239.813; -217.400; -696.000; -658.000
239.956;  159.900;  579.000;  473.000
240.099; -220.800; -778.000; -725.000
240.242;  147.400;  428.000;  432.000
240.385;  113.900;  466.000;  450.000
240.528; -141.500; -706.000; -473.000
240.671;   53.800;  189.000;  134.000
240.814;  -95.800; -441.000; -158.000
240.957; -191.800; -767.000; -578.000
241.100; -199.300; -779.000; -755.000
241.243; -307.100;-1234.000; -893.000
241.386; -130.600; -508.000; -379.000
241.529; -162.300; -735.000; -547.000
241.672; -123.100; -566.000; -495.000
241.815; -233.800; -832.000; -808.000
241.958;  -42.000; -125.000; -182.000
242.101; -136.900; -545.000; -390.000
242.244;  -75.700; -270.000; -325.000
242.387;  -57.400; -304.000; -246.000
242.530;  130.600;  470.000;  134.000
242.673;  -87.800; -381.000; -309.000
242.815; -259.900; -925.000; -899.000
242.958; -106.100; -482.000; -381.000
243.101;   16.600;  132.000;  187.000
243.244; -164.500; -564.000; -521.000
243.387;  -62.200; -313.000; -316.000
243.530; -202.900; -657.000; -674.000
243.672;    6.900;   43.000;  -92.000
243.815;  -85.300; -355.000; -283.000
243.958;    8.700;   98.000;  -26.000
244.101;   16.800;   59.000;  -16.000
244.243;  -15.900;  -47.000;  101.000
244.386; -211.800; -761.000; -630.000
244.529;  -41.200; -132.000; -139.000
244.672; -313.900;-1154.000; -951.000
244.814; -243.200; -621.000; -794.000
244.957; -117.100; -380.000; -304.000
245.100; -173.300; -489.000; -489.000
245.242; -111.300; -387.000; -374.000
245.385;  -22.500;  -59.000;  -39.000
245.528; -256.500; -871.000; -705.000
245.670;  183.100;  612.000;  634.000
245.813; -178.600; -599.000; -547.000
245.956;  -55.300; -324.000; -275.000
246.098; -143.000; -508.000; -650.000
246.241;   30.600;  194.000;   48.000
246.383;  -31.500; -119.000;  -73.000
246.526; -162.900; -454.000; -525.000
246.669; -228.000; -889.000; -780.000
246.811;   42.400;  172.000;   -1.000
246.954;  -88.600; -512.000; -426.000
247.096;  -47.800;  -84.000;   -6.000
247.239; -133.800; -482.000; -445.000
247.381; -160.800; -647.000; -488.000
247.524;  190.600;  645.000;  679.000
247.666;   -9.200;   58.000;   11.000
247.809; -215.100; -887.000; -691.000
247.951;   -3.400;  -75.000;  138.000
248.094;   67.800;  432.000;  308.000
248.236; -336.200;-1262.000;-1238.000
248.378;  -25.600; -356.000;  -81.000
248.521;  -50.800; -334.000; -337.000
248.663;  -77.700; -236.000; -267.000
248.806;  -54.600; -300.000; -266.000
248.948; -198.800; -886.000; -763.000
249.090;  -81.200; -428.000; -398.000
249.233;  -96.800; -344.000; -381.000
249.375; -131.000; -474.000; -451.000
249.518;  -24.700;  -83.000; -133.000
249.660;  -20.300; -103.000;    3.000
249.802; -340.700;-1303.000;-1189.000
249.945; -178.100; -612.000; -540.000
250.087; -227.400; -834.000; -768.000
250.229; -102.400; -362.000; -480.000
250.371; -160.100; -494.000; -439.000
250.514; -106.800; -310.000; -244.000
250.656; -131.500;   69.000;  102.000
250.798; -259.400; -849.000; -800.000
250.940;  -85.800; -322.000; -322.000
251.083;  -46.800; -335.000; -111.000
251.225;  119.300;  338.000;  310.000
251.367;  -73.100; -274.000; -373.000
251.509;  -76.700; -265.000; -210.000
251.651; -182.200; -731.000; -671.000
251.794;   89.600;  538.000;  632.000
251.936; -233.600; -821.000; -747.000
252.078; -142.300; -540.000; -461.000
252.220; -168.100; -645.000; -477.000
252.362;  160.900;  344.000;  462.000
252.504; -158.400; -677.000; -584.000
252.646; -208.200; -875.000; -722.000
252.788;    0.900;   14.000; -128.000
252.931;  -73.800; -257.000; -253.000
253.073;  -86.200; -376.000; -317.000
253.215;   -7.200;  141.000;  122.000
253.357;    8.900;   82.000; -153.000
253.499; -140.500; -374.000; -234.000
253.641; -177.800; -749.000; -594.000
253.783; -214.400; -609.000; -527.000
253.925; -170.300; -586.000; -591.000
254.067; -215.900; -744.000; -667.000
254.209;  -52.100; -391.000; -259.000
254.351; -255.200; -865.000; -883.000
254.493; -139.500; -441.000; -417.000
254.635; -241.600; -936.000; -818.000
254.777; -162.100; -752.000; -687.000
254.918; -154.200; -512.000; -430.000
255.060; -122.700; -551.000; -395.000
255.202;  -72.400; -473.000; -261.000
255.344; -146.900; -658.000; -455.000
255.486; -152.800; -471.000; -406.000
255.628; -227.500; -780.000; -781.000
255.770; -192.000; -676.000; -536.000
255.912; -146.600; -559.000; -468.000
256.053; -218.500; -730.000; -508.000
256.195;  368.600; 1008.000;  903.000
256.337; -212.000; -861.000; -595.000
256.479;  147.700;  532.000;  416.000
256.621; -112.400; -394.000; -212.000
256.762; -198.600; -789.000; -742.000
256.904;  122.000;  485.000;  487.000
257.046;  -97.200; -381.000; -271.000
257.188;  -91.200; -351.000; -264.000
257.329; -141.100; -525.000; -464.000
257.471; -239.400; -939.000; -807.000
257.613; -149.600; -584.000; -498.000
257.755; -286.200;-1073.000; -982.000
257.896;   66.900;  286.000;  392.000
258.038; -127.800; -403.000; -352.000
258.180;  -96.700; -354.000; -279.000
258.321; -162.200; -581.000; -457.000
258.463;   -0.700;  -71.000;  133.000
258.605; -192.600; -562.000; -570.000
258.746; -227.900; -886.000; -772.000
258.888; -309.800;-1026.000;-1020.000
259.029;   41.200;  121.000;   -8.000
259.171; -178.100; -614.000; -550.000
259.313;   -3.200;  -49.000;  -47.000
259.454; -169.300; -536.000; -414.000
259.596;  -96.800; -483.000; -390.000
259.737; -160.700; -590.000; -474.000
259.879;   81.000;  217.000;  311.000
260.020;  203.600;  901.000;  636.000
260.162;  -39.800; -146.000; -253.000
260.303; -213.500; -768.000; -687.000
260.445; -156.700; -609.000; -613.000
260.586;   83.700;  392.000;  157.000
260.728;  -85.400; -360.000; -248.000
260.869; -129.600; -350.000; -343.000
261.011;  178.500;  706.000;  537.000
261.152; -101.700; -479.000; -319.000
261.293; -159.100; -576.000; -595.000
261.435;  -63.800; -219.000; -184.000
261.576;  -93.700; -455.000; -325.000
261.718;  126.400;  420.000;  470.000
261.859; -256.100; -940.000; -949.000
262.000; -251.200; -951.000;-1016.000
262.142;  -42.600;  -52.000;  -60.000
262.283; -234.500; -808.000; -691.000
262.424; -183.000; -666.000; -625.000
262.566; -313.600;-1161.000; -983.000
262.707; -247.100; -840.000; -830.000
262.848; -264.600; -769.000; -726.000
262.990;  -92.900; -362.000; -345.000
263.131;  219.500;  650.000;  681.000
263.272;    9.300;  -61.000;  -41.000
263.413; -189.800; -589.000; -561.000
263.555; -146.900; -669.000; -143.000
263.696; -143.200; -550.000; -641.000
263.837; -122.700; -449.000; -551.000
263.978;    7.400;   -5.000;  -77.000
264.119; -127.000; -283.000; -264.000
264.261; -219.400; -847.000; -630.000
264.402;    5.300;   33.000;   40.000
264.543; -177.200; -509.000; -524.000
264.684;  -18.400;   61.000;  -50.000
264.825; -139.400; -816.000; -538.000
264.966;   -4.700;  -84.000;  -67.000
265.107; -193.200; -646.000; -670.000
265.248; -236.800; -825.000; -812.000
265.390;  -33.100;  152.000;   -9.000
265.531;  -61.000; -238.000; -107.000
265.672; -150.900; -557.000; -630.000
265.813;  133.400;  563.000;  439.000
265.954; -291.700; -959.000; -940.000
266.095;  -24.900; -372.000; -322.000
266.236; -194.700; -686.000; -548.000
266.377;  -68.700; -243.000; -297.000
266.518; -133.000; -619.000; -547.000
266.659;   57.800;  170.000;  268.000
266.800;   40.200;   83.000;   85.000
266.941; -149.500; -487.000; -478.000
267.082;   42.600;  354.000;   99.000
267.223; -104.200; -344.000; -273.000
267.364; -233.000; -892.000; -686.000
267.504;  -20.500;    3.000;  135.000
267.645;  -11.700;  160.000;   67.000
267.786;  -71.800; -147.000;  -86.000
267.927;  -97.800; -473.000; -379.000
268.068;  -47.100; -186.000;  -61.000
268.209;  -93.900; -175.000; -413.000
268.350; -116.800; -388.000; -532.000
268.490; -159.100; -648.000; -521.000
268.631;  100.000;  127.000;  225.000
268.772; -211.000; -874.000; -647.000
268.913; -102.900; -328.000; -476.000
269.054;  -24.800; -117.000;   12.000
269.194;  -58.600; -418.000; -402.000
269.335; -325.400;-1137.000;-1074.000
269.476;  -43.400;   33.000;  -35.000
269.617;  -82.600; -347.000; -392.000
269.757; -176.700; -713.000; -646.000
269.898; -227.600; -856.000; -613.000
270.039; -129.700; -415.000; -405.000
270.180; -269.900; -952.000; -816.000
270.320;  -38.200; -190.000; -250.000
270.461;  -71.600; -277.000; -249.000
270.602;  -26.300; -186.000; -156.000
270.742; -219.400; -868.000; -943.000
270.883; -116.600; -442.000; -390.000
271.023; -114.200; -358.000; -357.000
271.164; -175.400; -607.000; -528.000
271.305; -164.800; -666.000; -654.000
271.445; -202.400; -722.000; -683.000
271.586; -130.300; -462.000; -283.000
271.726; -108.700; -397.000; -322.000
271.867; -126.300; -594.000; -534.000
272.008;  268.200; -473.000; -285.000
272.148;  253.900;  462.000;  468.000
272.289;    9.400; -113.000; -181.000
272.429;   23.800;   19.000;  185.000
272.570; -164.200; -633.000; -737.000
272.710; -193.100; -825.000; -775.000
272.851;  -21.500;  113.000; -130.000
272.991; -309.100;-1173.000;-1077.000
273.131; -131.300; -419.000; -459.000
273.272; -210.500; -683.000; -723.000
273.412;   34.400; -143.000;  -31.000
273.553; -117.000; -488.000; -507.000
273.693;  288.200;  913.000;  858.000
273.834; -190.700; -894.000; -692.000
273.974; -110.200; -664.000; -615.000
274.114; -207.400; -772.000; -560.000
274.255;  148.600;  414.000;  373.000
274.395;   30.500; -180.000; -125.000
274.535;  106.000;  199.000;  350.000
274.676;   46.400;  225.000;   94.000
274.816;    3.900;  110.000;   34.000
274.956; -146.800; -624.000; -690.000
275.097; -174.300;-1014.000; -922.000
275.237; -233.300; -913.000; -803.000
275.377; -179.500; -778.000; -689.000
275.517; -290.900; -878.000; -937.000
275.658; -126.300; -590.000; -555.000
275.798; -123.000; -606.000; -413.000
275.938;   33.900;  215.000;  323.000
276.078; -159.000; -626.000; -395.000
276.218;   19.600;   99.000;  104.000
276.359; -235.300;-1026.000;-1024.000
276.499; -105.100; -605.000; -446.000
276.639;  -56.600; -305.000; -151.000
276.779;  -78.700; -475.000; -357.000
276.919; -220.800; -783.000; -624.000
277.059;  -27.800; -261.000; -212.000
277.199;  -76.900; -357.000; -259.000
277.340;  124.900;  287.000;  175.000
277.480; -207.800; -840.000; -693.000
277.620;   48.000;  192.000;   16.000
277.760; -386.100;-1533.000;-1294.000
277.900;   15.200;  113.000;   33.000
278.040;   82.100;  137.000;  159.000
278.180;   76.100;  270.000;  170.000
278.320;   35.900;   21.000;   56.000
278.460; -135.900; -443.000; -469.000
278.600; -147.100; -708.000; -598.000
278.740;  138.600;  448.000;  224.000
278.880; -149.600; -768.000; -791.000
279.020;   55.000; -194.000; -144.000
279.160; -192.600; -672.000; -595.000
279.300; -227.800; -926.000; -873.000
279.440; -181.300; -709.000; -622.000
279.579; -123.500;-1014.000; -929.000
279.719;  -84.700; -410.000; -394.000
279.859;  127.600;   -4.000;   41.000
279.999;   40.800; -208.000;  101.000
280.139;  -69.600; -435.000; -387.000
280.279; -161.900; -708.000; -745.000
280.419;  -10.700; -229.000; -147.000
280.559;  -52.300; -259.000; -180.000
280.698; -170.100; -790.000; -639.000
280.838; -183.700; -778.000; -800.000
280.978; -191.200; -846.000; -790.000
281.118; -233.600; -811.000; -704.000
281.257;    0.200;   24.000;    6.000
281.397; -240.800;-1094.000; -960.000
281.537; -202.000; -599.000; -712.000
281.677;  -37.100; -150.000; -101.000
281.816; -165.700; -700.000; -630.000
281.956;  -33.800; -193.000; -257.000
282.096; -124.100; -539.000; -396.000
282.235; -199.100; -672.000; -638.000
282.375;  -19.200; -243.000;  -98.000
282.515; -195.600; -715.000; -707.000
282.654;   76.300;   29.000;  106.000
282.794;   84.000;  388.000;  244.000
282.934;  -98.500; -530.000; -491.000
283.073; -251.400;-1030.000; -857.000
283.213; -126.300; -460.000; -467.000
283.353; -112.200; -408.000; -349.000
283.492;  -49.900; -264.000; -296.000
283.632;  -73.000; -254.000; -168.000
283.771; -210.800; -859.000; -730.000
283.911;  -82.900; -369.000; -260.000
284.050; -218.900; -794.000; -748.000
284.190; -337.200;-1229.000;-1096.000
284.329; -292.500;-1055.000; -964.000
284.469; -135.900; -516.000; -591.000
284.608; -104.200; -559.000; -598.000
284.748; -164.800; -614.000; -570.000
284.887;  -15.700;  -87.000;  -20.000
285.027; -220.300; -844.000; -892.000
285.166;  -89.000; -192.000; -249.000
285.306;   31.700; -116.000;  -33.000
285.445;  -51.200; -229.000; -343.000
285.584; -184.800; -630.000; -494.000
285.724; -127.200; -282.000; -322.000
285.863; -204.500; -857.000; -507.000
286.002;  -97.300; -366.000; -276.000
286.142; -205.400; -715.000; -622.000
286.281; -140.300; -525.000; -493.000
286.420; -152.400; -554.000; -417.000
286.560;  239.300;  653.000;  623.000
286.699; -257.800; -958.000; -912.000
286.838; -146.800; -590.000; -591.000
286.978; -168.700; -533.000; -537.000
287.117; -274.900;-1085.000; -950.000
287.256;  -20.700; -228.000; -211.000
287.395;  -84.600; -197.000; -378.000
287.535;  -92.700; -370.000; -298.000
287.674; -150.000; -509.000; -484.000
287.813;  119.400;  661.000;  533.000
287.952; -272.600;-1010.000; -871.000
288.091; -284.800;-1049.000; -915.000
288.231;   12.800;   13.000;   15.000
288.370; -345.300;-1217.000;-1200.000
288.509; -193.700; -728.000; -645.000
288.648; -166.100; -770.000; -548.000
288.787;  -31.500; -243.000;  -87.000
288.926; -104.600; -454.000; -475.000
289.065;  285.700;  859.000;  672.000
289.204; -101.900; -377.000; -217.000
289.344; -184.400; -791.000; -690.000
289.483;  113.000;  416.000;  304.000
289.622;  -37.900; -291.000; -149.000
289.761;  -13.600; -309.000; -166.000
289.900; -215.600; -785.000; -626.000
290.039;    7.100;  -12.000;  -95.000
290.178;  -88.300; -274.000; -180.000
290.317; -131.800; -618.000; -479.000
290.456; -116.100; -463.000; -451.000
290.595; -263.900; -961.000; -833.000
290.734; -275.500; -904.000; -891.000
290.873; -114.900; -456.000; -420.000
291.011; -229.700; -833.000; -843.000
291.150; -179.500; -770.000; -682.000
291.289;  -29.200; -343.000; -110.000
291.428; -172.200; -599.000; -480.000
291.567; -104.300; -370.000; -442.000
291.706;   20.800;  109.000;  154.000
291.845; -169.600; -597.000; -505.000
291.984; -319.200;-1234.000;-1061.000
292.122;  168.000;  602.000;  582.000
292.261;  133.700;  620.000;  463.000
292.400;   47.800; -144.000;  211.000
292.539; -252.400; -959.000; -813.000
292.678;  -59.400; -325.000; -300.000
292.816; -291.100;-1136.000; -965.000
292.955; -157.400; -844.000; -684.000
293.094;  -44.900; -173.000; -337.000
293.233;  -81.300; -556.000; -400.000
293.371;  -48.700; -225.000;  -84.000
293.510; -205.200; -866.000; -780.000
293.649; -243.700; -959.000; -924.000
293.787; -132.900;-1083.000;-1012.000
293.926;    2.500; -113.000;  -32.000
294.065;  -73.200; -379.000; -290.000
294.203;  108.900;  298.000;  406.000
294.342;   53.100;   74.000;  156.000
294.481;14948.800;51180.000; -836.000
294.619;  -30.800; -425.000; -582.000
294.758; -303.900;-1230.000;-1137.000
294.896;  169.800; -125.000;    5.000
295.035; -257.600;-1040.000;-1006.000
295.174; -268.800;-1082.000; -954.000
295.312;  -48.400; -323.000; -203.000
295.451;  -36.800; -307.000; -428.000
295.589; -110.700; -389.000; -518.000
295.728;   96.100; -292.000; -165.000
295.866;   20.000;  -36.000;  -51.000
296.005; -117.400; -584.000; -341.000
296.143; -139.000; -558.000; -596.000
296.282; -213.200; -957.000; -881.000
296.420; -153.800; -657.000; -557.000
296.559; -147.100; -892.000; -633.000
296.697;   21.900; -847.000; -665.000
296.835;   94.000;-1141.000;-1002.000
296.974;   91.400;  -23.000;   39.000
297.112;   32.500; -443.000; -504.000
297.251; -159.500; -815.000; -755.000
297.389;  148.000; -576.000; -438.000
297.527;  103.100; -145.000;  -83.000
297.666; -110.100; -486.000; -438.000
297.804;  -90.900; -404.000; -264.000
297.942;   -2.800; -136.000; -161.000
298.081;   11.100; -183.000;   63.000
298.219;  130.100;  -17.000;  -19.000
298.357;   71.500; -144.000;  -71.000
298.495;   25.200; -810.000; -812.000
298.634;  173.600;  245.000;  219.000
298.772;   89.100; -220.000; -338.000
298.910;  -51.900; -309.000; -182.000
299.048;  -13.500; -130.000; -153.000
299.187;  -25.000; -350.000; -250.000
299.325;   65.800;   52.000;  122.000
299.463;  116.700; -389.000; -299.000
299.601;  213.500; -327.000; -271.000
299.739; -217.000; -908.000; -883.000
299.877; -166.200; -791.000; -703.000
300.016; -123.800;-1095.000; -935.000
300.154;  289.800;  -19.000; -161.000
300.292;   90.800; -428.000; -348.000
300.430;   47.400; -408.000; -291.000
300.568; -223.700; -940.000; -874.000
300.706; -101.800; -366.000; -469.000
300.844; -169.400;-1108.000; -979.000
300.982;  242.500;  246.000;  282.000
301.120; -230.900; -965.000; -866.000
301.258; -160.000; -812.000; -705.000
301.396;   83.800;  104.000;  -41.000
301.534;  136.900; -218.000; -293.000
301.672;  -18.400; -664.000; -521.000
301.810;   44.800; -613.000; -545.000
301.948;  255.000;   53.000;  149.000
302.086; 1035.300; -250.000;  -32.000
302.224; 1723.800; -610.000; -585.000
302.362;   60.100; -558.000; -622.000
302.500;  -78.900; -923.000; -893.000
302.638;  205.500;  128.000;  245.000
302.776;   36.500; -352.000; -408.000
302.913;  109.300;  447.000;  236.000
303.051;   40.000;  -86.000;  -23.000
303.189;   77.200;   90.000;  118.000
303.327;  -37.700; -341.000; -256.000
303.465; -180.800; -832.000; -588.000
303.603; -175.400; -805.000; -604.000
303.740;  215.200;  417.000;  241.000
303.878;   12.100; -800.000; -759.000
304.016; -151.200; -915.000; -790.000
304.154; -250.200;-1123.000;-1152.000
304.291;  -55.200; -505.000; -554.000
304.429;   47.400;  102.000;   74.000
304.567; -225.600; -908.000; -893.000
304.705;  -97.100; -408.000; -515.000
304.842;  118.200; -616.000; -540.000
304.980;  156.400;  215.000;   35.000
305.118;  110.300; -367.000; -365.000
305.255; -139.500; -945.000; -927.000
305.393;  135.900;  178.000;  239.000
305.531; -209.700;-1173.000; -956.000
305.668; -122.500; -663.000; -582.000
305.806;  160.100; -358.000; -439.000
305.943;  128.600; -629.000; -637.000
306.081;  103.600; -378.000; -267.000
306.219; -202.700; -863.000; -748.000
306.356;   28.500;  158.000;   27.000
306.494;  262.600;  981.000;  761.000
306.631;   39.300;  -11.000;  -55.000
306.769;  -19.900; -613.000; -485.000
306.906;    5.400; -284.000; -258.000
307.044; -118.200; -473.000; -488.000
307.181;  -90.900; -410.000; -332.000
307.319;   86.900;  112.000;   87.000
307.456; -315.300;-1191.000;-1153.000
307.594; -203.400; -980.000; -727.000
307.731;  -11.800; -371.000; -164.000
307.868;   67.200;  -15.000;   20.000
308.006; -226.900; -961.000; -847.000
308.143; -110.400; -618.000; -330.000
308.281;  462.800;  -37.000; -254.000
308.418;   52.700; -748.000; -640.000
308.555; -112.900; -400.000; -250.000
308.693; -117.400; -577.000; -573.000
308.830; -217.700; -712.000; -657.000
308.967;   15.700; -215.000;  -95.000
309.105;  -50.400; -507.000; -396.000
309.242;  116.400; -468.000; -367.000
309.379;  919.000; -577.000; -655.000
309.517;  -89.800; -936.000; -948.000
309.654; -166.700; -910.000; -734.000
309.791; -109.600; -662.000; -580.000
309.928; -217.100; -977.000; -914.000
310.065;  375.700;  819.000;  697.000
310.203;  -25.300; -825.000; -850.000
310.340;  -16.300; -465.000; -321.000
310.477; -140.200; -412.000; -516.000
310.614; -114.900; -383.000; -473.000
310.751; -140.800; -427.000; -518.000
310.889;  -16.500;    1.000;   11.000
311.026; -267.200;-1161.000; -939.000
311.163;  -80.800; -386.000; -380.000
311.300; -115.300; -512.000; -479.000
311.437; -124.400; -658.000; -619.000
311.574; -304.800;-1226.000; -985.000
311.711; -104.600; -595.000; -433.000
311.848;  -28.500; -380.000; -388.000
311.985;   29.200;  270.000;   93.000
312.122; -235.700; -932.000; -762.000
312.259; -235.500; -941.000; -994.000
312.396; -138.200; -508.000; -551.000
312.533; -142.400; -812.000; -790.000
312.670; -222.200;-1070.000; -898.000
312.807;  -39.200; -352.000; -367.000
312.944; -124.400; -513.000; -611.000
313.081;  -38.000; -150.000; -415.000
313.218; -182.200;-1111.000; -867.000
313.355;   30.000; -531.000; -449.000
313.492;   45.800; -455.000; -292.000
313.629;  308.800;  815.000;  735.000
313.766; -291.600;-1176.000;-1008.000
313.902;   -5.300; -186.000;   21.000
314.039;  -58.200; -372.000; -289.000
314.176;   98.200;  286.000;  192.000
314.313; -124.700; -569.000; -473.000
314.450; -140.200; -788.000; -684.000
314.587; -107.500; -468.000; -480.000
314.723;   57.300;  -78.000;  130.000
314.860;  126.400;  318.000;  332.000
314.997;   62.600;  223.000;  142.000
315.134;  -49.400; -385.000; -368.000
315.270;  -67.200; -480.000; -496.000
315.407; -230.900;-1094.000; -967.000
315.544; -110.500; -657.000; -538.000
315.681;  -97.800; -681.000; -565.000
315.817;   66.600; -133.000; -176.000
315.954;   52.100; -613.000; -392.000
316.091; -266.400;-1045.000;-1023.000
316.227;    2.300;  -71.000; -179.000
316.364;   61.800;   23.000;    6.000
316.500;  -53.500; -113.000; -300.000
316.637;  -76.000; -181.000; -302.000
316.774; -141.700; -625.000; -358.000
316.910; -177.700; -598.000; -629.000
317.047; -100.700; -487.000; -351.000
317.183;  -93.200; -435.000; -566.000
317.320;   -4.300; -367.000; -321.000
317.456; -147.000; -733.000; -805.000
317.593; -158.600; -598.000; -641.000
317.729;   22.600;  168.000;  -67.000
317.866; -405.900;-1434.000;-1285.000
318.002; -178.100; -708.000; -948.000
318.139; -177.000; -883.000; -867.000
318.275; -211.800;-1003.000; -738.000
318.412; -132.600; -517.000; -336.000
318.548;  -72.100; -751.000; -720.000
318.685; -188.900; -985.000; -888.000
318.821; -215.900; -762.000; -735.000
318.957;   -2.300;   34.000;  -23.000
319.094;  106.600;  297.000;  154.000
319.230; -115.400; -756.000; -742.000
319.367;  252.300; -471.000; -520.000
319.503;  138.200; -538.000; -436.000
319.639; -145.700; -877.000; -793.000
319.775; -133.000; -750.000; -685.000
319.912;  -95.400; -424.000; -519.000
320.048; -165.600;-1184.000;-1184.000
320.184;  152.700;   59.000;   70.000
320.321; -129.900; -497.000; -467.000
320.457;  144.100;  475.000;  662.000
320.593; -121.100; -375.000; -382.000
320.729; -205.300; -732.000; -734.000
320.866; -156.600; -577.000; -635.000
321.002; -144.100; -759.000; -809.000
321.138;  -45.700; -135.000; -211.000
321.274;  153.900; -148.000; -115.000
321.410;  -41.800; -585.000; -353.000
321.546;  -84.900;-1011.000; -911.000
321.683;  142.800;  400.000;  185.000
321.819;   28.700;  -48.000; -117.000
321.955; -187.500; -743.000; -722.000
322.091;  -81.500; -585.000; -540.000
322.227;  -15.400; -382.000; -202.000
322.363;    0.800; -320.000; -215.000
322.499;  -97.700; -343.000; -331.000
322.635;  345.700;  636.000;  443.000
322.771;   79.200; -139.000;   12.000
322.907;  192.600;  129.000;  327.000
323.043;  -25.400; -115.000; -206.000
323.179;  -80.700; -394.000; -363.000
323.315;   53.600; -401.000; -371.000
323.451;  132.300; -328.000; -236.000
323.587;  136.100;  -60.000;  -77.000
323.723;   13.000; -682.000; -601.000
323.859;  -25.400; -258.000;  -76.000
323.995;  -78.000; -467.000; -409.000
324.131; -208.700; -967.000; -892.000
324.267;  -59.900; -254.000; -276.000
324.402; -257.000; -960.000; -983.000
324.538;   -4.000; -279.000; -104.000
324.674;   91.400;  164.000;   77.000
324.810;  258.900;  226.000;  308.000
324.946;   30.900; -810.000; -658.000
325.082; -142.100; -568.000; -475.000
325.217;   29.600;  -62.000;   16.000
325.353; -193.500; -764.000; -659.000
325.489; -150.900; -540.000; -506.000
325.625; -144.100; -579.000; -525.000
325.760;  130.100;  517.000;  376.000
325.896;  -40.500; -515.000; -702.000
326.032;  -86.800; -403.000; -352.000
326.168;  -89.900; -462.000; -369.000
326.303; -118.300; -352.000; -461.000
326.439;  -41.900; -336.000; -276.000
326.575;   29.500; -190.000;  -29.000
326.710;   -9.200; -156.000;  -30.000
326.846;   20.800;  146.000;  103.000
326.982; -160.700; -530.000; -548.000
327.117; -174.600; -481.000; -442.000
327.253; -160.900; -745.000; -742.000
327.388; -290.700;-1137.000;-1153.000
327.524;  -59.700; -811.000; -578.000
327.659;  -25.200;  -58.000;  -22.000
327.795;    3.500;   69.000;   45.000
327.931; -158.400; -723.000; -499.000
328.066;  -31.500; -417.000; -276.000
328.202;   41.800;   12.000; -129.000
328.337;  254.800;  957.000;  713.000
328.473;   13.300;  -12.000;  -74.000
328.608;  -36.500; -256.000; -267.000
328.743; -168.700; -799.000; -664.000
328.879;   67.600;  214.000;  114.000
329.014;  -76.600; -102.000; -122.000
329.150; -133.800; -358.000; -483.000
329.285; -107.100; -465.000; -466.000
329.421; -103.500; -548.000; -246.000
329.556;    8.300;  -36.000;   85.000
329.691; -177.100; -633.000; -615.000
329.827; -155.800; -626.000; -480.000
329.962;  -46.400;  131.000; -301.000
330.097; -120.700; -673.000; -585.000
330.233;  -22.300; -410.000; -223.000
330.368; -223.300; -839.000; -628.000
330.503;  -31.700;    3.000;   98.000
330.638;   82.800;  -93.000; -125.000
330.774;  -99.800; -609.000; -530.000
330.909;  -61.800; -434.000; -244.000
331.044; -174.500; -714.000; -708.000
331.179; -326.200;-1217.000;-1109.000
331.315;   24.400;   77.000;   20.000
331.450;   78.900;  157.000;  285.000
331.585; -156.500; -805.000; -706.000
331.720; -185.400; -510.000; -460.000
331.855;   -8.700;  -35.000; -102.000
331.990;  474.800;   62.000;  138.000
332.126;  268.100; -110.000;   71.000
332.261;  -19.000; -379.000; -265.000
332.396;   32.700; -135.000; -242.000
332.531; -195.600;-1074.000;-1031.000
332.666;   77.000; -519.000; -363.000
332.801; -195.200; -726.000; -807.000
332.936;    2.500; -192.000; -122.000
333.071; -243.300; -870.000; -817.000
333.206;   51.700;  307.000;  379.000
333.341;   97.000;  344.000;  418.000
333.476; -167.800; -627.000; -623.000
333.611;  -48.200; -251.000; -173.000
333.746;  -98.700; -381.000; -464.000
333.881; -209.400; -973.000; -935.000
334.016; -218.100; -936.000; -917.000
334.151; -236.700; -746.000; -702.000
334.286;   70.600;  152.000;  186.000
334.421;   28.100; -125.000; -178.000
334.556; -158.700; -611.000; -567.000
334.690; -139.500; -631.000; -577.000
334.825;  132.000;  381.000;   83.000
334.960;  -70.200; -285.000; -413.000
335.095;   39.500;  135.000;  -91.000
335.230; -198.400; -722.000; -738.000
335.365; -277.700;-1084.000; -990.000
335.499; -265.600;-1108.000;-1037.000
335.634;   55.000;    9.000;  534.000
335.769; -183.800; -755.000; -720.000
335.904; -122.100; -603.000; -561.000
336.038; -107.400; -735.000; -657.000
336.173; -215.500;-1206.000;-1194.000
336.308;   32.200; -116.000; -189.000
336.443;  -23.900; -544.000; -634.000
336.577; -132.200; -936.000; -787.000
336.712;  121.100;   -4.000;  -12.000
336.847; -103.700; -724.000; -607.000
336.981;  125.300; -272.000; -208.000
337.116;  531.900;  615.000;  501.000
337.250;  223.000; -434.000; -421.000
337.385;  458.300; -297.000; -208.000
337.520;  126.200; -632.000; -603.000
337.654;  -45.400; -215.000; -126.000
337.789; -236.100; -989.000; -933.000
337.923;  -14.600; -104.000; -205.000
338.058; -193.400; -673.000; -738.000
338.192;  -63.900; -611.000; -488.000
338.327;   39.700;  -18.000; -155.000
338.461;  -89.000; -299.000; -469.000
338.596; -172.600; -780.000; -638.000
338.730; -158.600; -767.000; -803.000
338.865;  189.100;  -46.000; -140.000
338.999;  -83.300; -846.000; -702.000
339.134;  -40.100; -634.000; -536.000
339.268;   24.200; -741.000; -603.000
339.403;  630.300; -740.000; -775.000
339.537;  209.000; -894.000; -820.000
339.671; -220.700; -829.000; -813.000
339.806;  -81.500; -556.000; -512.000
339.940;   46.700; -261.000; -235.000
340.074; -168.100; -685.000; -510.000
340.209;  -64.100; -351.000; -230.000
340.343; -144.700; -517.000; -573.000
340.477;  349.300;  998.000; 1036.000
340.612; -132.100;-1033.000; -900.000
340.746;  254.000; -199.000; -243.000
340.880; -156.100; -924.000; -785.000
341.014;  -14.000;  -45.000; -154.000
341.149; -203.500; -756.000; -718.000
341.283; -196.900; -839.000; -754.000
341.417; -156.700;-1124.000; -938.000
341.551;  230.100; -768.000; -708.000
341.685;  -91.000; -633.000; -611.000
341.820;  -84.900; -562.000; -493.000
341.954;  -36.600; -218.000; -349.000
342.088; -300.100;-1102.000;-1019.000
342.222;  115.600;  565.000;  618.000
342.356;  -88.400; -395.000; -335.000
342.490; -181.800; -880.000; -841.000
342.624;  -66.900; -339.000; -242.000
342.758;    5.500; -364.000; -312.000
342.892; -136.900; -710.000; -585.000
343.026;  -46.300;  -58.000; -116.000
343.160; -114.600; -426.000; -376.000
343.294; -141.300; -474.000; -337.000
343.428;  -33.800; -488.000; -448.000
343.562;   16.100; -172.000;  -23.000
343.696;   -4.900; -385.000; -314.000
343.830;   -6.500; -362.000; -356.000
343.964;   62.500; -231.000; -168.000
344.098; 1658.200;  199.000;   70.000
344.232; 1392.800; -266.000; -127.000
344.366;  178.000; -567.000; -453.000
344.500;  136.200; -665.000; -744.000
344.634;   85.200; -324.000; -164.000
344.768;   -1.000; -531.000; -341.000
344.902;   90.600;  278.000;  256.000
345.035; -107.100; -556.000; -496.000
345.169; -226.000; -933.000; -656.000
345.303;  -44.600; -308.000; -482.000
345.437; -145.000; -826.000; -717.000
345.571; -140.300; -675.000; -594.000
345.704;  -81.600; -309.000; -532.000
345.838;  -18.300; -331.000; -284.000
345.972;  -79.100; -543.000; -495.000
346.106;  331.300; -179.000; -190.000
346.239;  771.700; -312.000; -243.000
346.373;   24.900; -343.000; -302.000
346.507; -254.800; -950.000; -962.000
346.640;  291.600;  -30.000;   13.000
346.774;  -57.800; -650.000; -797.000
346.908;   -0.400; -138.000;  -11.000
347.041; -177.000; -646.000; -593.000
347.175;   34.100;  259.000;   27.000
347.309; -127.400; -698.000; -628.000
347.442; -169.800; -883.000; -732.000
347.576;  550.100;  670.000;  668.000
347.709;  364.200; -123.000;  -52.000
347.843; -180.900; -933.000; -825.000
347.976;   91.500;  235.000;  294.000
348.110; -340.700;-1268.000;-1186.000
348.243; -192.200; -679.000; -772.000
348.377;   44.400;  -26.000;   60.000
348.510;  124.100;  403.000;  540.000
348.644;  -20.100;  -37.000; -159.000
348.777;   35.500;  180.000;  191.000
348.911;  -43.700; -142.000; -112.000
349.044;  351.900;  471.000;  448.000
349.178;  255.300;-1069.000;-1006.000
349.311;  225.200;  141.000;  255.000
349.444;  -33.400; -927.000; -813.000
349.578;  -20.900; -347.000; -200.000
349.711; -176.200; -959.000; -862.000
349.845;  -26.600; -661.000; -591.000
349.978; -304.500;-1224.000;-1137.000
350.111; -149.100; -546.000; -612.000
350.244; -162.100; -596.000; -700.000
350.378;   12.800; -392.000; -393.000
350.511; -100.700; -393.000; -426.000
350.644; -240.400; -808.000; -806.000
350.778;   38.400;  168.000;  104.000
350.911;   29.800;  134.000;  140.000
351.044; -163.800; -685.000; -615.000
351.177;  -19.500; -321.000; -281.000
351.310;   -5.600;    3.000; -131.000
351.444; -149.200; -888.000; -788.000
351.577;  263.000;  140.000;   90.000
351.710;  216.500;  593.000;  417.000
351.843;  -32.300; -165.000;  -77.000
351.976;   17.200;  149.000;  -79.000
352.109; -165.500; -621.000; -612.000
352.242;  -64.300; -464.000; -419.000
352.376;  -92.600; -580.000; -636.000
352.509;  313.800; -437.000; -356.000
352.642;  -22.700; -654.000; -604.000
352.775;  101.200; -141.000;  -98.000
352.908; -219.500; -933.000; -904.000
353.041; -179.100; -814.000; -824.000
353.174; -126.200; -551.000; -424.000
353.307; -157.500; -753.000; -764.000
353.440;  186.900;  541.000;  453.000
353.573; -222.300; -957.000;-1008.000
353.706;  -33.300; -384.000; -558.000
353.839;    4.700; -264.000; -220.000
353.971; -151.100; -657.000; -512.000
354.104; -165.500; -896.000; -835.000
354.237;  -80.500; -627.000; -662.000
354.370; -180.000; -846.000; -879.000
354.503; -338.800;-1231.000;-1308.000
354.636;  -67.700; -529.000; -348.000
354.769; -241.200; -937.000; -860.000
354.902;   -6.200; -230.000; -139.000
355.034;    4.500; -164.000; -220.000
355.167;    4.000; -262.000; -162.000
355.300; -197.500;-1061.000; -880.000
355.433; 1734.100;  -71.000;  -14.000
355.565; 2684.500; -402.000; -384.000
355.698;  679.800; -356.000; -296.000
355.831;   -9.200; -882.000; -801.000
355.964;  186.800; -285.000; -170.000
356.096; -145.500; -856.000; -843.000
356.229;  -30.800; -523.000; -530.000
356.362;  557.500; -373.000; -266.000
356.494; 1100.500; -229.000; -162.000
356.627;  898.100;  269.000;  377.000
356.760; 1215.400;  120.000;   53.000
356.892; 1681.300; -286.000; -601.000
357.025; 1197.200;  403.000;  389.000
357.157; 1052.100; -167.000; -179.000
357.290; 1149.100; -856.000; -713.000
357.423;  355.000; -667.000; -556.000
357.555;  236.000; -217.000; -228.000
357.688;  218.900; -483.000; -364.000
357.820;  703.600; -870.000; -877.000
357.953; 6324.700; -563.000; -589.000
358.085; 1337.600; -632.000; -612.000
358.218; 1977.200;-1131.000; -932.000
358.350;  362.400;  -58.000;  312.000
358.483; -228.800;-1300.000;-1187.000
358.615;  -75.500;-1182.000;-1078.000
358.747; -109.000;-1187.000;-1058.000
358.880;   54.700; -810.000; -744.000
359.012;    3.600; -376.000; -202.000
359.145;  -79.400; -480.000; -511.000
359.277;   86.200; -962.000; -913.000
359.409; 5429.400;  536.000;  231.000
359.542; 1341.800; -738.000; -688.000
359.674;  163.100;   46.000;   13.000
359.806;  -96.700; -565.000; -438.000
359.939;  -45.900; -617.000; -516.000
360.071;   -7.000; -583.000; -579.000
360.203;   -6.200; -411.000; -364.000
360.335;  118.900;  164.000;  -16.000
360.468;  370.100; -249.000; -307.000
360.600; 4316.500; -547.000; -454.000
360.732; 4999.800; -546.000; -423.000
360.864;  644.200;-1216.000;-1044.000
360.996;  506.100; -516.000; -554.000
361.129;  102.700; -389.000; -598.000
361.261;   33.700;  110.000; -113.000
361.393;  -49.100; -252.000; -214.000
361.525;   82.500;   94.000;  244.000
361.657;  -54.300; -821.000; -703.000
361.789;   28.500; -139.000; -155.000
361.921;  441.400; -642.000; -593.000
362.053;  515.800;  524.000;  541.000
362.185;  145.600;  288.000;   72.000
362.318; -126.800; -709.000; -705.000
362.450;  246.100;  294.000;  444.000
362.582;  151.100; -913.000; -870.000
362.714;  -41.800; -353.000; -332.000
362.846; -146.100; -606.000; -490.000
362.978; -261.600; -941.000; -811.000
363.109;  120.700; -161.000; -260.000
363.241;  807.300; -739.000; -749.000
363.373;  737.900; -649.000; -564.000
363.505; 1192.800; -186.000;  -91.000
363.637;  213.100; -787.000; -601.000
363.769; -279.000;-1067.000;-1080.000
363.901; -110.600; -596.000; -654.000
364.033; -245.400;-1103.000;-1062.000
364.165;   -6.300; -283.000; -283.000
364.296;  142.700; -316.000; -177.000
364.428;   98.800;-1344.000;-1220.000
364.560; -111.900; -679.000; -661.000
364.692; -109.000; -738.000; -835.000
364.824;  435.200; -588.000; -456.000
364.955;  772.100; -402.000; -564.000
365.087; 1510.800;-1097.000; -852.000
365.219;   45.800; -686.000; -816.000
365.351;  -92.400; -526.000; -572.000
365.482;  137.100;  300.000;  240.000
365.614;  -95.700; -402.000; -314.000
365.746; -172.000; -729.000; -752.000
365.877; -154.200; -706.000; -672.000
366.009;  494.900;  -35.000;  -62.000
366.141; -170.700;-1249.000;-1134.000
366.272; -182.900; -803.000; -719.000
366.404; -221.600;-1005.000; -874.000
366.535;    4.400; -139.000;  -12.000
366.667; -172.200; -644.000; -649.000
366.799;  140.800;  353.000;  203.000
366.930; -195.800; -862.000; -996.000
367.062;  232.500; -639.000; -613.000
367.193;  245.800; -872.000; -842.000
367.325; -122.600; -580.000; -684.000
367.456;  120.900; -246.000;   31.000
367.588;  303.300; -371.000; -318.000
367.719;   66.700;  -44.000;  -45.000
367.851;  -27.600; -222.000; -241.000
367.982; -107.500; -875.000; -732.000
368.113;  187.400; -475.000; -358.000
368.245; -214.000; -960.000; -841.000
368.376;  -11.700; -254.000; -302.000
368.508;   -1.800; -188.000; -263.000
368.639; -264.200;-1166.000;-1034.000
368.770;  -21.200; -670.000; -589.000
368.902; -117.200; -836.000; -926.000
369.033; -187.800; -906.000; -855.000
369.164; -102.700; -720.000; -653.000
369.296; -199.200; -452.000; -601.000
369.427;   26.500; -209.000; -144.000
369.558;  -58.000; -593.000; -377.000
369.689; -144.600; -721.000; -569.000
369.821; -228.100; -951.000; -845.000
369.952;   17.100;   42.000; -108.000
370.083;  -42.300; -229.000; -108.000
370.214; -150.800; -735.000; -650.000
370.345;   50.700;   65.000;   81.000
370.477; -172.900; -810.000; -790.000
370.608;  440.600; -328.000; -264.000
370.739; -143.500;-1233.000;-1292.000
370.870;  -68.700;-1102.000; -923.000
371.001;  169.100; -378.000; -467.000
371.132; -150.300; -754.000; -735.000
371.263;  -14.800;  -42.000; -148.000
371.394; -217.500; -841.000; -748.000
371.525;   85.400;  345.000;  225.000
371.657; -168.400; -808.000; -670.000
371.788;  166.200;  103.000;  199.000
371.919;  354.300; -384.000; -304.000
372.050; 6517.700;  -91.000; -156.000
372.181; 1864.500; -188.000; -294.000
372.311;  700.700;   42.000; -127.000
372.442;   81.400; -457.000; -451.000
372.573;   -8.800; -444.000; -340.000
372.704; -196.100;-1008.000; -980.000
372.835;  170.500; -228.000; -289.000
372.966;  -93.800; -646.000; -554.000
373.097; -102.900; -575.000; -711.000
373.228;  -79.700; -717.000; -542.000
373.359;  216.400; -824.000; -536.000
373.490; 1704.700; -881.000; -727.000
373.620; 1986.800;-1001.000; -803.000
373.751; 3198.500; -332.000; -396.000
373.882; 1365.900; -663.000; -733.000
374.013;  145.700; -449.000; -262.000
374.143;  -37.100; -581.000; -659.000
374.274; -185.100; -987.000; -908.000
374.405;  311.500; -388.000; -276.000
374.536;  836.500; -526.000; -387.000
374.666; 1974.300; -759.000; -807.000
374.797;  371.000; -817.000; -868.000
374.928; 1538.100; -710.000; -560.000
375.058; 1591.200; -535.000; -500.000
375.189;  119.800;  -59.000;  -93.000
375.320; -197.000; -928.000;-1034.000
375.450;  -85.500; -625.000; -616.000
375.581;  -79.700; -526.000; -436.000
375.712;   -1.700; -574.000; -250.000
375.842;  567.500; -438.000; -415.000
375.973;  364.200; -554.000; -513.000
376.103;  -70.700; -665.000; -648.000
376.234; -161.600; -531.000; -552.000
376.364;  -50.100; -944.000; -867.000
376.495;  649.500;  925.000;  529.000
376.625;   25.000; -472.000; -485.000
376.756;   92.400; -709.000; -678.000
376.886; -134.600;-1178.000;-1026.000
377.017;   92.800;-1048.000;-1061.000
377.147;  609.500; -786.000; -782.000
377.278;  158.400;  174.000;  228.000
377.408; -214.500; -801.000; -815.000
377.538; -193.200; -707.000; -693.000
377.669; -130.600; -537.000; -613.000
377.799; -155.400; -645.000; -635.000
377.929; -121.800; -610.000; -428.000
378.060; -227.200; -781.000; -847.000
378.190; -101.400; -726.000; -531.000
378.320;  -66.100; -401.000; -406.000
378.451;   15.600; -131.000;  -22.000
378.581;   11.300;  -67.000; -110.000
378.711;  347.100; 1035.000;  866.000
378.841;  -44.700; -533.000; -675.000
378.972; -116.700; -871.000; -751.000
379.102;   20.500; -652.000; -579.000
379.232;  -10.400; -126.000;  -73.000
379.362; -186.000;-1001.000; -885.000
379.492;   69.700; -373.000; -424.000
379.623;  214.500;    0.000;  111.000
379.753; -162.600;-1107.000; -974.000
379.883;  395.400;   59.000;  156.000
380.013;   -0.200;-1081.000;-1017.000
380.143; -201.200;-1097.000;-1056.000
380.273; -183.200; -985.000; -861.000
380.403;   -2.300; -344.000; -257.000
380.533;  -28.700; -651.000; -664.000
380.663;  150.500;  173.000;  128.000
380.793; -174.500;-1027.000;-1074.000
380.923;  -23.800; -103.000;  -34.000
381.053; -141.900; -613.000; -623.000
381.183;   -2.300; -106.000; -248.000
381.313;   99.500; -656.000; -470.000
381.443;   54.900; -692.000; -473.000
381.573;  382.300; -402.000; -409.000
381.703;  416.500;-1249.000;-1095.000
381.833; -246.700;-1454.000;-1336.000
381.963;  219.000; -134.000;  -87.000
382.093; 2487.800; -925.000; -909.000
382.223;  696.700; -713.000; -602.000
382.353;   -9.500; -801.000; -608.000
382.482;  680.100;-1091.000; -964.000
382.612; 1362.700; -872.000; -644.000
382.742;  759.500; -695.000; -622.000
382.872;  465.200; -565.000; -551.000
383.002;  159.600;  347.000; -132.000
383.131;   20.300; -226.000; -160.000
383.261;  -94.500; -706.000; -768.000
383.391;  518.400; -552.000; -377.000
383.521; 5766.300;  451.000;  263.000
383.650; 1206.900; -947.000; -904.000
383.780;  -38.100; -783.000; -656.000
383.910;  301.500;  880.000;  802.000
384.039;   50.600; -794.000; -656.000
384.169;  343.600;-1205.000;-1017.000
384.299;  -36.200; -650.000; -662.000
384.428; -147.900; -764.000; -680.000
384.558;  -71.800; -308.000; -275.000
384.687;  -20.500; -414.000; -334.000
384.817;   64.700;   75.000;   -2.000
384.947;   89.800; -234.000; -141.000
385.076;  612.000;  982.000;  912.000
385.206;  259.200;  369.000;  480.000
385.335;  -45.700; -549.000; -417.000
385.465; -134.900; -655.000; -663.000
385.594;  270.200;  -53.000;  -44.000
385.724;  774.600; -868.000; -838.000
385.853;  248.300; -296.000; -270.000
385.982; 2587.500; -743.000; -787.000
386.112; 3736.900;-1052.000; -871.000
386.241;  228.500; -307.000; -312.000
386.371;   90.600; -174.000;  -87.000
386.500;   27.500; -825.000; -789.000
386.629;   44.900; -874.000; -817.000
386.759;  144.500;  -43.000;   68.000
386.888;   68.900; -170.000; -250.000
387.017;  -93.800; -648.000; -620.000
387.147; -149.500; -771.000; -798.000
387.276;   27.000; -410.000; -397.000
387.405;   40.400; -398.000; -342.000
387.535;  -63.400; -452.000; -361.000
387.664; -101.000; -692.000; -620.000
387.793;  158.100; -198.000; -113.000
387.922;  978.500;  255.000;  200.000
388.052;   43.400; -576.000; -423.000
388.181;   80.100; -342.000; -472.000
388.310;   -7.800; -889.000; -710.000
388.439;  -96.600; -749.000; -742.000
388.568;  391.800;  365.000;  244.000
388.697; 1865.400; -756.000; -653.000
388.826;  373.800; -768.000; -666.000
388.956;  115.300; -285.000; -307.000
389.085;  -12.300; -347.000; -287.000
389.214; -225.100; -842.000; -872.000
389.343;  -98.700; -645.000; -413.000
389.472;  806.200;  126.000;  149.000
389.601;  927.600;   91.000;    0.000
389.730;   39.400; -568.000; -687.000
389.859;  199.000;  226.000;   46.000
389.988;  350.200; -423.000; -408.000
390.117;  292.800; -168.000; -146.000
390.246;    2.400; -331.000; -320.000
390.375;  194.600; -673.000; -626.000
390.504; -108.200; -703.000; -621.000
390.633; -155.000; -672.000; -726.000
390.761; -120.700; -732.000; -645.000
390.890;   50.500;   -4.000; -130.000
391.019;  -18.800; -421.000; -441.000
391.148; -211.200; -826.000; -855.000
391.277; -111.800; -576.000; -493.000
391.406; -123.400; -821.000; -805.000
391.534;   98.400;  574.000; -301.000
391.663;  -71.500; -583.000; -645.000
391.792; -156.300; -673.000; -701.000
391.921;  174.400;   -3.000;   15.000
392.050;  335.900; -287.000; -228.000
392.178;  -45.700;-1206.000;-1061.000
392.307;  286.700; -758.000; -712.000
392.436;  133.800; -427.000; -641.000
392.564;   54.700;  166.000;   -6.000
392.693; -147.500; -860.000; -682.000
392.822;  406.200; -529.000; -534.000
392.950;  144.700; -880.000; -714.000
393.079;  593.200; -188.000; -328.000
393.208;   37.100; -488.000; -511.000
393.336;    5.400; -170.000; -145.000
393.465;  -54.300; -317.000; -199.000
393.593;   37.500;   62.000;   79.000
393.722; -281.800;-1121.000; -916.000
393.850;  -32.400; -188.000;  -61.000
393.979; -254.200; -926.000; -805.000
394.107;  -98.500; -517.000; -537.000
394.236;  -24.700; -570.000; -507.000
394.364;  584.000;  383.000;  206.000
394.493;  958.000; -911.000; -767.000
394.621;   -1.300; -955.000; -916.000
394.750; 1321.100; -873.000; -923.000
394.878; 5454.000; -247.000; -149.000
395.007; 6904.300; -721.000; -807.000
395.135;  458.100; -790.000; -721.000
395.263; -178.400;-1038.000;-1040.000
395.392;   23.000;  -25.000; -107.000
395.520; -239.900; -818.000; -679.000
395.648; -166.000; -865.000; -915.000
395.777;   16.700; -366.000; -405.000
395.905;  -60.500; -449.000; -564.000
396.033;  102.200;  217.000;  172.000
396.162; 1581.900; -399.000; -453.000
396.290; 1313.800;  -17.000;   -2.000
396.418;  223.800; -555.000; -514.000
396.546; -137.100; -571.000; -466.000
396.674; -195.500; -850.000; -878.000
396.803;   23.800;  -72.000;  -23.000
396.931;  225.900; -179.000; -199.000
397.059;   99.200;-1026.000; -989.000
397.187; -219.200;-1026.000; -975.000
397.315; -218.000; -884.000; -649.000
397.443; -166.400; -592.000; -443.000
397.572; -138.400; -578.000; -424.000
397.700;  -46.400; -607.000; -614.000
397.828;   79.100;  120.000;  -90.000
397.956;  -77.400; -508.000; -478.000
398.084;  -95.700; -767.000; -626.000
398.212;  117.900;  137.000;  124.000
398.340;   47.700;  -56.000;  159.000
398.468;   73.000; -390.000; -169.000
398.596; -250.600; -993.000; -953.000
398.724; -212.400; -762.000; -767.000
398.852; -296.700;-1024.000; -976.000
398.980;  -83.600; -560.000; -560.000
399.108;  -77.600; -982.000; -735.000
399.236;   97.400;   13.000;    8.000
399.363;   91.300;  222.000;  196.000
399.491;  -86.700; -404.000; -398.000
399.619; -220.900; -829.000; -800.000
399.747; -181.600; -859.000; -771.000
399.875;  173.800;  220.000;  234.000
400.003;  -70.800; -359.000; -284.000
400.130; -148.600; -421.000; -341.000
400.258;  -25.600;  -83.000;   38.000
400.386;  -84.300; -352.000; -168.000
400.514;  -62.200; -526.000; -587.000
400.641; -182.000; -928.000; -802.000
400.769; -272.200; -979.000; -888.000
400.897; -187.000; -838.000; -793.000
401.025;   -5.000; -166.000; -152.000
401.152;   45.600;  220.000;   38.000
401.280; -122.100; -430.000; -429.000
401.408; -176.000; -712.000; -576.000
401.535; -189.900; -735.000; -758.000
401.663; -356.800;-1134.000;-1054.000
401.790; -125.800; -514.000; -525.000
401.918;  155.700;  436.000;  405.000
402.046;   -0.100;  134.000;  122.000
402.173;  -57.200;  -18.000;    7.000
402.301; -102.700; -519.000; -397.000
402.428;  154.800;  528.000;  383.000
402.556; -260.700;-1188.000; -913.000
402.683;  -18.200;  -20.000;   -1.000
402.811;   11.100;  -37.000; -206.000
402.938;   48.500;   20.000;   27.000
403.066;  384.000; -574.000; -558.000
403.193;  589.600;  299.000;  239.000
403.321;  490.400; -396.000; -574.000
403.448;  607.700;   83.000;   27.000
403.575;  260.300;  -90.000;  -46.000
403.703; -158.700; -732.000; -557.000
403.830;  -91.600; -531.000; -496.000
403.957; -228.300;-1117.000;-1023.000
404.085;   53.700;  -61.000; -172.000
404.212;  220.500;  -50.000;   63.000
404.339;  541.300; -566.000; -306.000
404.467;10571.200; -612.000; -524.000
404.594; 6566.400; -287.000; -227.000
404.721; 1412.700; -869.000; -764.000
404.848;  182.100; -113.000; -202.000
404.976; -172.100; -856.000; -783.000
405.103;  -12.800;  -14.000;  -82.000
405.230;   51.600;  190.000;  226.000
405.357;   82.100;  117.000;   44.000
405.484;  571.200;  -49.000;    5.000
405.612;   76.300; -548.000; -563.000
405.739;  -64.500; -488.000; -243.000
405.866;  192.800;  669.000;  385.000
405.993; -107.600; -398.000; -102.000
406.120; -242.100; -801.000; -887.000
406.247;  -86.600; -323.000; -342.000
406.374;  873.100;  540.000;  629.000
406.501;  151.800; -632.000; -702.000
406.628; -138.900; -621.000; -589.000
406.755; -133.500; -803.000; -620.000
406.882;  -48.800; -228.000; -277.000
407.009; -146.200; -719.000; -628.000
407.136;  138.800; -480.000; -401.000
407.263;  218.800; -939.000; -829.000
407.390; -124.500; -692.000; -614.000
407.517; -275.900;-1139.000;-1187.000
407.644;  -71.700; -332.000; -256.000
407.771; -254.600; -249.000; -287.000
407.898;   48.100;  168.000;  328.000
408.025;  -97.800; -421.000; -313.000
408.151;   23.800;   82.000;  153.000
408.278; -101.100; -267.000; -216.000
408.405; -186.500; -931.000; -899.000
408.532; -109.500; -549.000; -542.000
408.659; -169.000; -677.000; -648.000
408.785; -354.200;-1298.000;-1170.000
408.912;  -80.000; -412.000; -296.000
409.039; -134.500; -610.000; -686.000
409.166; -198.900; -591.000; -555.000
409.292; -183.800; -571.000; -534.000
409.419; -178.500; -665.000; -649.000
409.546; -152.900; -431.000; -192.000
409.672; -183.000; -713.000; -545.000
409.799;  -12.800;  -36.000;   34.000
409.926;  -54.300; -180.000; -179.000
410.052; -342.100;-1127.000;-1091.000
410.179;  -50.100; -368.000; -392.000
410.305;  -96.600; -375.000; -493.000
410.432;  -56.500; -220.000; -333.000
410.558; -131.000; -305.000; -380.000
410.685; -169.000; -688.000; -431.000
410.812; -165.800; -409.000; -588.000
410.938; -256.000; -964.000; -808.000
411.065; -171.900; -671.000; -645.000
411.191;   -7.700; -189.000; -174.000
411.317; -186.200; -823.000; -742.000
411.444;  -93.700; -317.000; -246.000
411.570;  -91.800; -339.000; -294.000
411.697; -222.500; -758.000; -752.000
411.823; -311.800; -989.000; -999.000
411.949;  -32.700;  -56.000;   17.000
412.076; -205.500; -539.000; -519.000
412.202; -183.200; -758.000; -757.000
412.329; -244.300; -798.000; -752.000
412.455; -192.400; -821.000; -657.000
412.581;   10.600;  -15.000;  172.000
412.707;  -88.400; -540.000; -457.000
412.834;   87.600;  156.000;  219.000
412.960; -148.500; -785.000; -784.000
413.086; -194.000; -743.000; -701.000
413.212;  333.400;  604.000;  578.000
413.339;  -83.000; -685.000; -701.000
413.465;   13.400; -364.000; -310.000
413.591; -137.400; -757.000; -474.000
413.717;  -93.600; -358.000; -366.000
413.843; -273.400; -839.000; -861.000
413.969;  -94.300;  -47.000; -292.000
414.096; -157.300; -679.000; -679.000
414.222;    8.200;  -33.000;   85.000
414.348;   -7.800; -652.000; -385.000
414.474;  186.700;   38.000;  -52.000
414.600;    8.800; -126.000; -144.000
414.726;   -4.300;  -96.000;  -55.000
414.852;  -86.700; -365.000; -342.000
414.978;  127.000;  104.000;  -18.000
415.104;  155.500;   38.000;   80.000
415.230;   77.900; -329.000; -330.000
415.356;  124.100; -409.000; -514.000
415.482;  427.500;   13.000;  -35.000
415.608;  547.500; -247.000; -323.000
415.734; 1808.500;   67.000;   38.000
415.860;37852.100; -875.000; -767.000
415.986;24256.200; -685.000; -607.000
416.111; 2049.400; -798.000; -652.000
416.237;  456.800; -424.000; -571.000
416.363; 2298.500; -765.000; -733.000
416.489; 7345.600; -324.000; -251.000
416.615;  736.900; -707.000; -742.000
416.741;  -52.500; -677.000; -784.000
416.866; -155.600; -673.000; -736.000
416.992; -238.200; -801.000; -818.000
417.118;  -13.200;  -41.000;  -80.000
417.244; -102.400; -798.000; -531.000
417.369; -132.300; -801.000; -612.000
417.495;   -4.500; -325.000; -254.000
417.621; -129.300;-1015.000; -803.000
417.746;   -4.400; -579.000; -572.000
417.872;  109.700; -254.000; -144.000
417.998;  101.600; -515.000; -530.000
418.123; 2182.000;-1073.000; -845.000
418.249; 9664.000; -512.000; -601.000
418.374; 1196.300; -916.000; -824.000
418.500;  195.400; -383.000; -482.000
418.626;  269.300;   70.000;  -59.000
418.751;  205.100; -549.000; -448.000
418.877;  404.400; -637.000; -643.000
419.002; 3676.700; -688.000; -560.000
419.128;22800.800; -930.000; -721.000
419.253; 4836.400; -967.000; -837.000
419.379;  718.200; -391.000; -338.000
419.504;  768.400;  325.000;  415.000
419.629;  939.300; -393.000; -212.000
419.755; 7068.900; -317.000; -254.000
419.880;37716.000;  -98.000;   67.000
420.006;21111.600; -280.000; -221.000
420.131;51226.200; -662.000; -775.000
420.256; 6552.500; -315.000; -316.000
420.382;  875.000; -665.000; -687.000
420.507;  111.500; -649.000; -778.000
420.632;  276.900; -337.000; -339.000
420.758;  424.500; -251.000; -425.000
420.883; -148.500; -876.000; -672.000
421.008; -174.300; -775.000; -619.000
421.133; -161.000; -509.000; -467.000
421.259;  -41.400; -325.000; -259.000
421.384; -196.600; -834.000; -693.000
421.509;  -79.200;-1052.000; -862.000
421.634; 2120.700; -936.000; -820.000
421.759;  813.400; -359.000; -327.000
421.885;  -94.800; -717.000; -656.000
422.010; -116.400; -673.000; -542.000
422.135; -230.800; -695.000; -727.000
422.260;  142.800;  340.000;  280.000
422.385;   -1.400;   12.000;  -98.000
422.510;   40.300;  151.000;  -26.000
422.635;  128.100;  -87.000;  -43.000
422.760;  197.900; -766.000; -791.000
422.885;  123.400;  -57.000;  -80.000
423.010;  -42.500; -112.000; -169.000
423.135; -145.900; -481.000; -561.000
423.260;  -13.300; -150.000; -245.000
423.385;  230.500;  476.000;  222.000
423.510;   80.500;   71.000;  -22.000
423.635;  187.100;  133.000;   45.000
423.760;  135.400;  383.000;  328.000
423.885;  162.200;  336.000;  391.000
424.010;   74.300;  -68.000;  -13.000
424.135;   35.600;    5.000;  -33.000
424.259; -118.400; -654.000; -457.000
424.384;  -74.200; -279.000; -272.000
424.509;   19.000; -260.000; -186.000
424.634; -144.500; -761.000; -623.000
424.759;  -25.300; -688.000; -544.000
424.883;   39.300; -506.000; -527.000
425.008;  328.000; -502.000; -410.000
425.133; 3699.100; -679.000; -653.000
425.258; 1531.300; -517.000; -381.000
425.382; 1961.400; -867.000; -774.000
425.507; 4436.700; -487.000; -543.000
425.632;  722.000; -802.000; -663.000
425.756;  852.400; -256.000; -146.000
425.881;12919.300; -831.000; -857.000
426.006;30891.500; -604.000; -355.000
426.130; 4363.300; -696.000; -508.000
426.255;  578.800; -611.000; -491.000
426.379;  310.700; -189.000; -577.000
426.504;  764.700;  660.000;  544.000
426.629; 7709.800; -519.000; -466.000
426.753; 4675.400;   64.000;  -46.000
426.878;  536.500; -252.000; -288.000
427.002;  375.000; -651.000; -668.000
427.127; 3213.800;  -35.000; -158.000
427.251;20858.800;  372.000;  401.000
427.375; 5214.400; -191.000; -173.000
427.500; 4128.900; -616.000; -610.000
427.624; 1214.800; -234.000; -400.000
427.749;  190.900; -216.000; -225.000
427.873;  -43.500; -499.000; -412.000
427.997;  -24.800; -222.000; -230.000
428.122;  223.700;  795.000;  703.000
428.246;  226.400;  433.000;  434.000
428.371; -214.400; -869.000; -773.000
428.495; -174.400; -624.000; -646.000
428.619;  -20.500; -186.000; -117.000
428.743;  105.900;   65.000;  132.000
428.868;  104.200; -732.000; -643.000
428.992; 2551.100; -219.000; -326.000
429.116;  908.100; -329.000; -357.000
429.240;  531.200;  419.000;  426.000
429.365;   -3.500; -454.000; -574.000
429.489;  -61.900; -638.000; -647.000
429.613;  101.100; -236.000; -177.000
429.737;  123.600; -563.000; -432.000
429.861;  567.300; -247.000; -133.000
429.985;10706.300; -425.000; -305.000
430.109;10487.500; -770.000; -908.000
430.234; 1167.900;   76.000;  -50.000
430.358;  151.100; -250.000; -160.000
430.482; -110.300; -672.000; -564.000
430.606; -110.900; -655.000; -375.000
430.730;   51.600; -437.000; -388.000
430.854;  272.900; -909.000; -835.000
430.978; -110.900; -795.000; -764.000
431.102; -132.900; -499.000; -422.000
431.226; -191.300; -874.000; -815.000
431.350;  111.200;  345.000;  422.000
431.474; -106.500; -661.000; -373.000
431.597; -246.700;-1060.000; -848.000
431.721; -120.200; -276.000; -267.000
431.845; -211.500; -704.000; -472.000
431.969; -147.800; -304.000; -349.000
432.093; -132.700; -395.000; -317.000
432.217;  -12.200;   32.000;   82.000
432.341; -110.200; -523.000; -518.000
432.464;   51.300;   96.000;   40.000
432.588;  359.300; -401.000; -329.000
432.712;  204.000;  -52.000;  -52.000
432.836;  134.200;  213.000;  263.000
432.959;   19.000; -372.000; -311.000
433.083;  224.500;   11.000;    2.000
433.207;  781.200;  285.000;  930.000
433.330; 9761.900; -391.000; -200.000
433.454;10772.500; -654.000; -638.000
433.578; 6449.100;  583.000;  278.000
433.701; 1040.600; -623.000; -675.000
433.825;  275.800; -292.000; -299.000
433.949;  346.600;   28.000;  -72.000
434.072;  114.400; -410.000; -323.000
434.196;   -1.600; -309.000; -117.000
434.319; 7982.700;25482.000;25124.000
434.443; 1445.800; -656.000; -603.000
434.566; 4848.300;  281.000;   62.000
434.690;  655.100; -637.000; -383.000
434.813;  127.400; -251.000; -173.000
434.937; -110.900; -569.000; -696.000
435.060;  -70.100; -423.000; -332.000
435.184;  571.800; -492.000; -217.000
435.307;  312.600;  159.000;  102.000
435.431;  -33.800;  -40.000;   24.000
435.554;  -99.800; -399.000; -240.000
435.677; -124.700; -350.000; -258.000
435.801;  -24.600;  -25.000;   49.000
435.924;   39.800;    1.000;  -67.000
436.048; -197.400;-1019.000; -732.000
436.171; -100.200; -240.000;  -66.000
436.294;    5.800; -248.000; -229.000
436.417;  185.300; -963.000; -849.000
436.541; -166.400; -814.000; -840.000
436.664;  -56.900; -242.000; -316.000
436.787;   53.500;   13.000;  113.000
436.910; -206.400; -792.000; -422.000
437.034;   71.000;  142.000;  143.000
437.157;  167.600;  -11.000;    0.000
437.280;  -63.600; -392.000; -292.000
437.403; -135.600; -982.000; -869.000
437.526; 1212.300; -903.000; -865.000
437.649; 3973.800; -505.000; -332.000
437.772;  437.300; -692.000; -540.000
437.896;  306.400;  700.000;  544.000
438.019; -144.400; -758.000; -503.000
438.142; -119.300; -596.000; -506.000
438.265;  -15.700; -639.000; -670.000
438.388; 1076.100; -520.000; -410.000
438.511;  158.100; -597.000; -394.000
438.634;  -59.800; -247.000; -125.000
438.757; -208.000; -693.000; -619.000
438.880;   20.800;  -34.000;  -57.000
439.003; -109.900; -417.000; -437.000
439.126; -105.700; -287.000; -167.000
439.248;  -63.700;  -98.000; -139.000
439.371;  -30.700;    9.000;  -53.000
439.494;  134.700;  510.000;  439.000
439.617;  -33.400;   65.000;  -88.000
439.740; -358.400; -968.000; -816.000
439.863; -230.500; -755.000; -595.000
439.986; -196.500; -476.000; -431.000
440.108;  -44.800; -161.000; -112.000
440.231; -300.200; -950.000; -836.000
440.354;  -39.400;  -64.000; -150.000
440.477;   71.800; -566.000; -542.000
440.599;   10.500; -200.000; -225.000
440.722; -195.300; -709.000; -586.000
440.845;  198.600;  751.000;  928.000
440.968; -167.200; -415.000; -311.000
441.090;  -71.300; -199.000;  -33.000
441.213; -291.500;-1021.000; -825.000
441.336;  -42.700; -159.000;   -5.000
441.458; -139.600; -549.000; -396.000
441.581; -143.900; -628.000; -629.000
441.703;  -85.800; -152.000;   13.000
441.826; -166.100; -557.000; -400.000
441.948;  -24.400;   56.000;   51.000
442.071;  153.200;  555.000;  424.000
442.193; -179.700; -531.000; -485.000
442.316;   73.300;  152.000;   97.000
442.438;  123.000; -233.000;  -10.000
442.561;  177.600;  272.000;  262.000
442.683; 1048.400; -809.000; -522.000
442.806; 2022.800;   -8.000;   74.000
442.928;   -6.800; -859.000; -604.000
443.051; -108.300; -577.000; -373.000
443.173; -148.100; -341.000; -339.000
443.295; -117.700; -263.000; -371.000
443.418;  -75.800; -321.000;  -29.000
443.540;    8.400; -106.000;   -4.000
443.662; -196.600; -563.000; -465.000
443.785;    3.000;  335.000;  199.000
443.907; -161.200; -362.000; -208.000
444.029; -244.500; -767.000; -494.000
444.152; -236.000; -644.000; -554.000
444.274;   -1.600;  -18.000;  -24.000
444.396; -152.200; -461.000; -221.000
444.518; -233.900; -691.000; -454.000
444.640; -153.600; -268.000; -111.000
444.763;  -17.200;  388.000;  249.000
444.885; -175.100; -432.000; -392.000
445.007;  -27.900;   35.000;   86.000
445.129; -196.300; -610.000; -515.000
445.251; -177.500; -372.000; -439.000
445.373; -203.600; -537.000; -386.000
445.495;   52.000;  242.000;  350.000
445.617;  195.500;  853.000;  753.000
445.739;  -78.900; -215.000;  -97.000
445.861;  -15.600; -245.000; -112.000
445.984;  -23.900; -267.000; -101.000
446.105;  433.200; -418.000; -251.000
446.227; 1102.500; -176.000;  -19.000
446.349;    1.400; -358.000; -249.000
446.471; -183.800; -615.000; -448.000
446.593;  -72.900; -316.000;   19.000
446.715;   42.100;  -67.000;   41.000
446.837;  177.900;  697.000;  832.000
446.959; -148.800; -457.000; -478.000
447.081; -235.000; -628.000; -518.000
447.203;  188.700;  862.000;  834.000
447.325; -121.300; -270.000;   42.000
447.446;   47.600;  286.000;  530.000
447.568; -265.300; -921.000; -803.000
447.690; -130.100; -236.000; -245.000
447.812; -251.000; -798.000; -519.000
447.933;   -8.600;  155.000;  127.000
448.055; -104.200; -306.000; -261.000
448.177;  287.500;   31.000;   79.000
448.299;  113.700; -935.000; -727.000
448.420;   96.100;  -25.000;  159.000
448.542;  -40.100;   -3.000;   33.000
448.664;   30.600;  109.000;  322.000
448.785;   -1.800;  265.000;   83.000
448.907; -118.500; -614.000; -353.000
449.028;  -32.800; -771.000; -471.000
449.150;  179.800;  492.000;  589.000
449.272; -314.500;-1044.000; -913.000
449.393;  155.700;  612.000;  694.000
449.515; -223.600; -634.000; -581.000
449.636;  -89.500; -264.000; -155.000
449.758;  265.200;  763.000;  622.000
449.879; -134.400; -498.000; -396.000
450.001;  -94.600; -149.000;  -49.000
450.122;  -20.400;  -95.000;  162.000
450.244;   -6.300;   37.000;  364.000
450.365; -149.000; -495.000; -301.000
450.486;   13.900;   80.000;  268.000
450.608;  120.300;  393.000;  326.000
450.729;  202.000;  578.000;  645.000
450.850;   -1.900; -574.000; -466.000
450.972; 1527.800; -552.000; -389.000
451.093; 9278.100;  190.000;  588.000
451.214; 3462.900; -516.000; -337.000
451.336;  704.700;  773.000;  579.000
451.457;  172.800;  264.000;  393.000
451.578;  -56.000; -118.000;  -74.000
451.699; -180.100; -546.000; -540.000
451.821;  -87.800; -284.000;  -50.000
451.942;   54.700;  278.000;  285.000
452.063;  142.700;  228.000;  419.000
452.184; 1130.700;  -54.000;  -49.000
452.305; 1931.600;  103.000;  170.000
452.427;  223.400; -549.000; -301.000
452.548;  -24.200;   23.000;   79.000
452.669;  -91.200; -257.000;  -89.000
452.790;  -39.000;    3.000;  -18.000
452.911;   36.000;  195.000;  259.000
453.032; -122.800; -289.000;  -60.000
453.153;  -43.400;  -29.000;   81.000
453.274;  151.200;  737.000;  868.000
453.395;  -64.100;  -51.000;  175.000
453.516;  331.000; 1317.000; 1388.000
453.637;  -82.200; -205.000; -150.000
453.758;  -41.300;   15.000;   69.000
453.879; -197.100; -462.000; -250.000
454.000;  217.500; 1086.000;  948.000
454.121; -188.400; -554.000; -326.000
454.242; -187.900; -599.000; -383.000
454.362;  -59.900;  -99.000;  114.000
454.483;  -23.600; -309.000; -229.000
454.604;  146.000;  512.000;  580.000
454.725; -244.000; -627.000; -555.000
454.846; -193.400; -474.000; -406.000
454.967;    4.700;  230.000;  539.000
455.087;  -21.600;  179.000;  153.000
455.208;  132.300;  554.000;  856.000
455.329;  -18.700;  -22.000;   82.000
455.450;  142.800;  473.000;  633.000
455.570;  -80.900; -234.000; -211.000
455.691;  -38.200;  201.000;  407.000
455.812; -142.500; -270.000;  -92.000
455.932;  -61.800;  107.000;  -97.000
456.053; -102.200;   36.000;   24.000
456.173; -191.600; -433.000; -355.000
456.294; -227.300; -476.000; -303.000
456.415; -126.400;  -73.000;   70.000
456.535;  -22.000;  297.000;  273.000
456.656;  -57.500;  132.000;  240.000
456.776;  -90.200;    3.000;  298.000
456.897;   26.200;  308.000;  513.000
457.017; -102.900; -153.000;   -3.000
457.138; -146.600; -402.000; -249.000
457.258;    2.800;  263.000;  224.000
457.379;   56.900;  509.000;  521.000
457.499;   10.700;  443.000;  432.000
457.620; -212.700; -407.000; -231.000
457.740; -170.900; -132.000;  -11.000
457.860;  -39.700;   87.000;   44.000
457.981;  -71.900;  132.000;  124.000
458.101; -125.000;  -89.000;   40.000
458.221;   30.900;  336.000;  402.000
458.342;  -91.100;   -4.000;  -37.000
458.462;  123.000;  617.000;  352.000
458.582;  -63.700; -302.000; -294.000
458.703;   50.100;  303.000;  154.000
458.823;  -14.900;   22.000;  163.000
458.943;   97.200;  341.000;  467.000
459.063;  -21.800; 1124.000;  192.000
459.183;  -14.500;  328.000;  313.000
459.304;   30.600;  315.000;  517.000
459.424;  -83.700; -246.000;  -89.000
459.544;  747.000;  388.000;  764.000
459.664; 1550.300;  499.000;  506.000
459.784;  557.000; 1004.000; 1175.000
459.904;  145.900;  867.000;  744.000
460.024;  199.400;  867.000;  684.000
460.144;   91.400;  449.000;  554.000
460.264;   29.300;  515.000;  327.000
460.385; -150.900; -145.000; -119.000
460.505;  112.000;  905.000;  858.000
460.625; -108.700;  -17.000;  -68.000
460.745;   23.900;  396.000;  541.000
460.864;   -5.900;  153.000;  469.000
460.984;   72.600;  499.000;  573.000
461.104;  358.700; 1656.000; 1775.000
461.224;  134.400;  657.000;  650.000
461.344;   27.100;  431.000;  360.000
461.464;  -17.900;  258.000;  513.000
461.584;   60.400;  283.000;  466.000
461.704;  -69.100;   58.000;  108.000
461.824;  -53.700;  238.000;  259.000
461.943;  -59.200;  191.000;  130.000
462.063; -105.600;    2.000;  324.000
462.183;  111.500;  639.000;  717.000
462.303;  270.000; 1678.000; 1230.000
462.422;  107.700;  781.000;  840.000
462.542;  -25.600;  271.000;  391.000
462.662;  124.100;  353.000;  380.000
462.782;  557.500;  833.000;  572.000
462.901;  947.200;  545.000;  717.000
463.021;  533.400; 1702.000; 1638.000
463.141;   28.800;  337.000;  770.000
463.260;   32.900;  614.000;  474.000
463.380;   85.600;  902.000;  884.000
463.499;  -33.800;  342.000;  332.000
463.619;  -21.100;  581.000;  559.000
463.738;  322.100; 1644.000;  903.000
463.858;   97.300;  657.000;  811.000
463.978;  -36.800;  542.000;  396.000
464.097;  131.400;  921.000; 1114.000
464.217;  332.300; 1196.000; 1143.000
464.336;  271.200; 1068.000; 1130.000
464.455;  -18.500;  328.000;  659.000
464.575;  102.000;  597.000;  602.000
464.694;  417.600; 1204.000; 1179.000
464.814;  286.200; 1190.000; 1138.000
464.933;  214.700; 1095.000; 1027.000
465.052;  262.700; 1412.000; 1054.000
465.172;  193.800;  922.000;  799.000
465.291;  354.300; 1376.000; 1320.000
465.410;   63.300;  462.000;  735.000
465.530;  276.800; 1355.000; 1310.000
465.649;  181.800; 1209.000; 1273.000
465.768;  361.100; 1673.000; 1508.000
465.888;  169.800;  941.000; 1174.000
466.007;  282.400; 1335.000; 1440.000
466.126;   58.300;  721.000;  641.000
466.245;  152.000; 1176.000; 1187.000
466.364;   83.200;  950.000; 1060.000
466.484;  139.100; 1024.000; 1213.000
466.603;  136.400; 1101.000; 1222.000
466.722;  315.100; 1490.000; 1769.000
466.841;  221.500; 1151.000; 1401.000
466.960;  123.000; 1069.000;  972.000
467.079;  323.000; 1971.000; 1786.000
467.198;  138.900; 1238.000; 1181.000
467.317;  243.900; 1768.000; 1162.000
467.436;  217.100; 1709.000; 1261.000
467.555;  355.800; 1796.000; 1746.000
467.674;  184.500; 1227.000; 1329.000
467.793;  188.500; 1376.000; 1374.000
467.912;  239.600; 1658.000; 1539.000
468.031;  338.100; 2038.000; 1930.000
468.150;  361.600; 1842.000; 1837.000
468.269;  484.000; 2313.000; 2090.000
468.388;  444.400; 2168.000; 2339.000
468.507;  620.700; 2884.000; 2903.000
468.626;  619.200; 2555.000; 2541.000
468.744;  327.100; 2018.000; 2174.000
468.863;  434.400; 2312.000; 2523.000
468.982;  258.900; 1503.000; 1555.000
469.101;  501.800; 2788.000; 2692.000
469.220;  355.300; 2333.000; 2176.000
469.338;  576.300; 2935.000; 3051.000
469.457;  436.700; 2719.000; 2545.000
469.576;  785.200; 3953.000; 3784.000
469.695;  542.200; 2877.000; 3066.000
469.813;  975.400; 4148.000; 4192.000
469.932;  863.600; 4255.000; 4485.000
470.051;  911.700; 4075.000; 4161.000
470.169; 1771.800; 4470.000; 4338.000
470.288; 2893.000; 4700.000; 4809.000
470.406; 1655.500; 5059.000; 5194.000
470.525; 1321.200; 6101.000; 5787.000
470.644; 1428.100; 6847.000; 6794.000
470.762; 1744.100; 8397.000; 7873.000
470.881; 1881.300; 8651.000; 8464.000
470.999; 2162.300; 9685.000; 9151.000
471.118; 2310.400;11174.000;10711.000

