
Integration time [ms]: 200.000
Averaging Nr. [scans]: 10
Smoothing Nr. [pixels]: 0
Data measured with spectrometer [name]: 2101012U2
Wave   ;Sample   ;Dark     ;Reference
[nm]   ;[counts] ;[counts] ;[counts] 

197.733;  115.600;  516.000;  404.000
197.879; -175.800; -610.000; -634.000
198.025; -107.900; -475.000; -420.000
198.171; -155.200; -602.000; -612.000
198.317;  -63.900; -401.000; -316.000
198.463; -127.000; -655.000; -404.000
198.609;   38.400;  181.000; -137.000
198.755; -188.800; -644.000; -410.000
198.901; -158.500; -505.000; -424.000
199.047; -140.700; -615.000; -488.000
199.193;  -92.300; -230.000; -468.000
199.339;  -90.000; -222.000; -369.000
199.485;   84.800;  330.000;  271.000
199.631;   25.000;  227.000;  310.000
199.777;  -75.200; -466.000; -398.000
199.923; -152.000; -610.000; -424.000
200.069;   20.700; -141.000;  -58.000
200.215;  119.300;  128.000;  453.000
200.361;  105.800;  243.000;  477.000
200.507; -148.400; -600.000; -373.000
200.653;  -84.200; -371.000; -194.000
200.798;  -93.300; -215.000; -125.000
200.944;  -12.000; -146.000;  -41.000
201.090;   48.000;   61.000;  222.000
201.236;  -20.200; -116.000; -158.000
201.382;  252.900;  874.000;  903.000
201.528;   -8.000;  -58.000;  -48.000
201.674;  -73.400; -386.000; -293.000
201.819; -127.900; -540.000; -439.000
201.965; -153.800; -699.000; -447.000
202.111;  -70.200; -273.000; -226.000
202.257;  -70.600; -250.000; -238.000
202.402;   25.400;   13.000;  -36.000
202.548;  -75.800; -169.000; -116.000
202.694;  141.800;  410.000; -183.000
202.840; -144.200; -603.000; -531.000
202.985; -187.300; -681.000; -639.000
203.131; -219.700; -832.000; -666.000
203.277;  -24.000; -199.000; -262.000
203.423; -127.200; -434.000; -520.000
203.568;  -90.300; -462.000; -237.000
203.714; -131.800; -535.000; -542.000
203.860; -160.000; -682.000; -641.000
204.005;   55.400;  112.000;  167.000
204.151;  164.300;  561.000;  556.000
204.296; -100.100; -354.000; -221.000
204.442; -144.800; -600.000; -547.000
204.588; -153.400; -592.000; -579.000
204.733;   69.300;  178.000;  168.000
204.879; -298.100;-1018.000; -822.000
205.025;   26.300;  -99.000;  126.000
205.170;  -16.700;  -17.000;   94.000
205.316;  194.900;  438.000;  661.000
205.461; -216.400; -698.000; -554.000
205.607;  190.700;  609.000;  665.000
205.752; -159.700; -626.000; -551.000
205.898; -109.300; -501.000; -391.000
206.043; -157.700; -578.000; -506.000
206.189; -102.400; -243.000; -285.000
206.334;  187.200;  554.000;  606.000
206.480;  166.900;  409.000;  239.000
206.625; -189.800; -529.000; -552.000
206.771;  -81.900; -451.000; -373.000
206.916; -110.700; -210.000; -537.000
207.062; -174.900; -545.000; -591.000
207.207; -115.600; -546.000; -443.000
207.353;  109.800;  185.000;  460.000
207.498;   26.200;  196.000;   85.000
207.643; -123.300; -501.000; -370.000
207.789; -266.800;-1069.000; -910.000
207.934; -207.500; -665.000; -713.000
208.080;  -35.600; -154.000;   66.000
208.225;   17.200;  -22.000;  -57.000
208.370; -193.100; -727.000; -619.000
208.516; -157.900; -741.000; -487.000
208.661;  -79.600; -127.000;  -69.000
208.806;  -34.500; -165.000; -171.000
208.952; -263.300;-1044.000; -731.000
209.097;  151.800;  378.000;  349.000
209.242;  -87.300; -307.000; -382.000
209.387;  101.600;  392.000;  350.000
209.533;  -88.800; -321.000; -350.000
209.678;  192.100;  472.000;  543.000
209.823; -114.700; -408.000; -310.000
209.969; -230.400; -860.000; -757.000
210.114; -216.500; -907.000; -719.000
210.259; -238.600; -939.000; -889.000
210.404;    4.800; -171.000;  103.000
210.549;   40.000;  108.000;    3.000
210.695;  -31.800;   -3.000;  -95.000
210.840;   93.000;   94.000;   67.000
210.985; -148.900; -484.000; -303.000
211.130;  173.400;  268.000;  406.000
211.275;   46.000;  207.000;  199.000
211.420; -111.300; -300.000; -289.000
211.566; -163.300; -536.000; -489.000
211.711;   72.000;  218.000;  157.000
211.856; -159.700; -545.000; -519.000
212.001;   33.300;  151.000;   44.000
212.146;    7.100;  153.000;   49.000
212.291;  -66.700; -210.000; -186.000
212.436;  -66.900; -280.000;   -6.000
212.581; -170.600; -685.000; -653.000
212.726; -153.500; -487.000; -538.000
212.871;  -88.500; -552.000; -217.000
213.016; -313.400;-1172.000;-1029.000
213.161;  130.100;  406.000;  291.000
213.306; -180.700; -435.000; -577.000
213.451; -211.600; -778.000; -689.000
213.596; -120.300; -455.000; -347.000
213.741; -118.200; -448.000; -538.000
213.886; -142.900; -498.000; -517.000
214.031;  -27.100; -294.000; -124.000
214.176;  -90.000; -408.000; -341.000
214.321;   -9.900; -296.000; -157.000
214.466;  -40.100; -163.000;  -43.000
214.611;    3.100;  -61.000;  -10.000
214.756; -234.000; -948.000; -858.000
214.901;  -31.500; -388.000; -226.000
215.046; -255.700; -797.000; -825.000
215.191;   55.300;  128.000;   35.000
215.336;  -36.400; -157.000;  -19.000
215.480; -135.300; -684.000; -505.000
215.625;   -8.100; -175.000;  -19.000
215.770; -200.000; -757.000; -662.000
215.915;  -24.900;   -5.000;  -97.000
216.060;  -11.100; -113.000;  -21.000
216.205; -218.700; -731.000; -779.000
216.349; -153.300; -470.000; -533.000
216.494; -268.900; -939.000; -867.000
216.639; -224.100; -823.000; -888.000
216.784; -198.900; -577.000; -525.000
216.929;  120.200;  392.000;  281.000
217.073;   -9.600; -244.000;  -31.000
217.218;   58.900;   78.000;  -47.000
217.363; -183.500; -656.000; -618.000
217.507; -126.500; -623.000; -588.000
217.652; -266.300; -845.000; -874.000
217.797; -163.600; -708.000; -659.000
217.942; -223.400; -856.000; -720.000
218.086;  170.300;  608.000;  539.000
218.231;  -49.300; -174.000;  -26.000
218.376;  -70.600; -337.000; -229.000
218.520;   22.400;  -41.000;   96.000
218.665;  -66.300; -338.000; -204.000
218.810;  -78.100; -275.000; -233.000
218.954;   28.100;  201.000;   35.000
219.099; -252.500; -713.000; -963.000
219.243; -129.300; -589.000; -554.000
219.388;  -87.800; -264.000; -136.000
219.532;   20.500; -116.000; -116.000
219.677; -160.100; -564.000; -521.000
219.822;   44.300;   33.000;   89.000
219.966;   38.700;   17.000;  -99.000
220.111;  -35.000; -328.000;  -40.000
220.255; -242.800; -797.000; -750.000
220.400;  -67.500; -180.000; -146.000
220.544; -144.000; -516.000; -450.000
220.689; -100.000; -422.000; -451.000
220.833;  -20.500; -123.000;  -58.000
220.978; -108.200; -393.000; -563.000
221.122;   63.600;  319.000;  307.000
221.267; -243.100; -906.000; -837.000
221.411; -151.000; -478.000; -394.000
221.555;  -23.300; -104.000;  -23.000
221.700; -105.200; -329.000; -222.000
221.844;   82.700;  255.000;  272.000
221.989; -130.800; -328.000; -311.000
222.133;  -73.800; -289.000; -307.000
222.277;  -18.300;    5.000;   78.000
222.422;   63.500;  227.000;  113.000
222.566;  -64.400; -381.000; -214.000
222.711; -113.500; -414.000; -479.000
222.855; -217.900; -643.000; -586.000
222.999; -171.600; -642.000; -717.000
223.144;  -28.900; -195.000; -194.000
223.288;  140.600;  423.000;  251.000
223.432;   17.800;  184.000;  230.000
223.576;   11.900;  152.000;  -21.000
223.721;   76.700;  364.000;  273.000
223.865; -114.500; -472.000; -475.000
224.009;  501.700; 1673.000; 1631.000
224.153; -164.300; -660.000; -671.000
224.298; -161.700; -531.000; -489.000
224.442;   -2.100;  -74.000;  -33.000
224.586;  -19.300; -169.000; -106.000
224.730; -208.400; -858.000; -670.000
224.875; -237.000; -739.000; -688.000
225.019;   37.800;  102.000;  188.000
225.163;  130.000;  208.000;  341.000
225.307;   42.900;   97.000;  -91.000
225.451;   87.500;  360.000;  481.000
225.595;   59.800;  264.000;  176.000
225.739;  -12.900; -170.000;  -94.000
225.884;   30.700;   86.000;    5.000
226.028; -187.700; -760.000; -626.000
226.172;  -61.100; -260.000; -273.000
226.316; -256.700; -941.000; -902.000
226.460; -144.800; -645.000; -493.000
226.604; -108.100; -406.000; -400.000
226.748; -210.100; -836.000; -733.000
226.892;  -81.400; -227.000; -181.000
227.036;  -88.800; -537.000; -447.000
227.180; -103.300; -551.000; -375.000
227.324; -149.100; -561.000; -580.000
227.468; -242.900; -819.000; -717.000
227.612;   49.300;  242.000;  -28.000
227.756; -213.700; -845.000; -698.000
227.900;  146.800;  342.000;  441.000
228.044; -107.600; -509.000; -290.000
228.188;  157.800;  448.000;  568.000
228.332; -186.100; -546.000; -472.000
228.476;  -61.400; -223.000; -149.000
228.620;  -89.400; -210.000; -150.000
228.764;  150.700;  431.000;  349.000
228.908;  -42.500; -155.000;   30.000
229.052; -148.300; -615.000; -528.000
229.195;  -44.200; -172.000;   13.000
229.339;  -49.500; -235.000; -305.000
229.483;  -65.700;    5.000; -162.000
229.627;   16.600; -156.000;  139.000
229.771;  -80.500; -218.000; -294.000
229.915;   38.100;  230.000;   79.000
230.059; -218.100; -648.000; -663.000
230.202;  -90.600; -370.000; -317.000
230.346;  -36.500; -107.000;  107.000
230.490; -138.200; -489.000; -521.000
230.634; -218.400; -736.000; -553.000
230.777;  180.500;  478.000;  509.000
230.921; -134.100; -450.000; -359.000
231.065;  -79.200; -246.000; -286.000
231.209;   56.400;  261.000;  265.000
231.352;   33.200;   54.000;   40.000
231.496;   70.400;  568.000;  188.000
231.640; -180.900; -693.000; -621.000
231.783;  126.300;  546.000;  525.000
231.927;  -51.700; -294.000; -365.000
232.071; -243.200; -962.000; -736.000
232.214; -215.200; -980.000; -764.000
232.358; -200.000; -683.000; -599.000
232.502;   36.100;  -19.000;    7.000
232.645; -276.900;-1090.000; -927.000
232.789;  -21.100; -257.000; -218.000
232.933;  -69.500; -407.000; -224.000
233.076; -254.700;-1038.000; -897.000
233.220; -213.400; -752.000; -777.000
233.363; -152.800; -669.000; -477.000
233.507;  120.700;  371.000;  129.000
233.650; -207.800; -764.000; -834.000
233.794;   79.900;  438.000;  461.000
233.938; -127.700; -530.000; -362.000
234.081;   -5.000;  -93.000;   31.000
234.225;  -90.500; -631.000; -539.000
234.368; -226.600; -773.000; -723.000
234.512;  -75.200; -385.000; -299.000
234.655; -200.500; -582.000; -555.000
234.798; -129.400; -493.000; -466.000
234.942; -281.200; -884.000;-1002.000
235.085; -165.200; -651.000; -443.000
235.229; -158.800; -405.000; -410.000
235.372; -104.600; -247.000; -191.000
235.516; -106.000; -397.000; -321.000
235.659;   49.600;   92.000;  121.000
235.802;    2.800;  -38.000;  -22.000
235.946;   56.800;  335.000;  215.000
236.089;   63.500;  126.000;  250.000
236.233;  120.500;  275.000;  298.000
236.376;  -92.200; -235.000; -378.000
236.519;  -77.800; -297.000; -319.000
236.663;  -37.300; -215.000; -117.000
236.806; -292.100;-1029.000; -999.000
236.949;  128.600;  543.000;  431.000
237.092;  140.900;  412.000;  391.000
237.236; -191.500; -589.000; -502.000
237.379;  147.300;  352.000;  428.000
237.522; -238.800; -879.000; -768.000
237.666;  -34.100; -271.000;   18.000
237.809; -251.700; -851.000; -823.000
237.952;  124.300;  469.000;  271.000
238.095; -124.900; -447.000; -442.000
238.238;  183.200;  688.000;  700.000
238.382;   19.100;  166.000;  103.000
238.525; -111.100; -598.000; -511.000
238.668; -274.300;-1060.000; -985.000
238.811; -158.100; -638.000; -643.000
238.954;  -97.100; -483.000; -334.000
239.097;  225.300;  617.000;  664.000
239.241;   64.200;  394.000;  326.000
239.384;  -54.200; -254.000; -214.000
239.527; -111.100; -424.000; -224.000
239.670; -281.000; -994.000;-1091.000
239.813; -223.900; -696.000; -658.000
239.956;  204.000;  579.000;  473.000
240.099; -258.300; -778.000; -725.000
240.242;  174.900;  428.000;  432.000
240.385;  104.300;  466.000;  450.000
240.528; -128.800; -706.000; -473.000
240.671;   52.000;  189.000;  134.000
240.814;  -70.500; -441.000; -158.000
240.957; -175.500; -767.000; -578.000
241.100; -172.400; -779.000; -755.000
241.243; -318.500;-1234.000; -893.000
241.386; -137.600; -508.000; -379.000
241.529; -157.500; -735.000; -547.000
241.672; -139.500; -566.000; -495.000
241.815; -230.600; -832.000; -808.000
241.958;  -20.900; -125.000; -182.000
242.101; -137.700; -545.000; -390.000
242.244; -111.300; -270.000; -325.000
242.387;  -71.000; -304.000; -246.000
242.530;  151.800;  470.000;  134.000
242.673;  -91.300; -381.000; -309.000
242.815; -257.500; -925.000; -899.000
242.958; -168.000; -482.000; -381.000
243.101;   39.400;  132.000;  187.000
243.244; -150.800; -564.000; -521.000
243.387;  -92.100; -313.000; -316.000
243.530; -196.600; -657.000; -674.000
243.672;   -8.800;   43.000;  -92.000
243.815; -136.800; -355.000; -283.000
243.958;   -4.100;   98.000;  -26.000
244.101;   42.000;   59.000;  -16.000
244.243;   -7.900;  -47.000;  101.000
244.386; -228.500; -761.000; -630.000
244.529;  -25.200; -132.000; -139.000
244.672; -319.600;-1154.000; -951.000
244.814; -209.300; -621.000; -794.000
244.957; -132.700; -380.000; -304.000
245.100; -129.100; -489.000; -489.000
245.242; -113.300; -387.000; -374.000
245.385;   23.400;  -59.000;  -39.000
245.528; -241.200; -871.000; -705.000
245.670;  200.200;  612.000;  634.000
245.813; -171.500; -599.000; -547.000
245.956;  -39.600; -324.000; -275.000
246.098; -152.100; -508.000; -650.000
246.241;   35.200;  194.000;   48.000
246.383;  -26.600; -119.000;  -73.000
246.526; -129.600; -454.000; -525.000
246.669; -271.500; -889.000; -780.000
246.811;   70.500;  172.000;   -1.000
246.954; -131.400; -512.000; -426.000
247.096;  -21.000;  -84.000;   -6.000
247.239; -132.700; -482.000; -445.000
247.381; -138.000; -647.000; -488.000
247.524;  196.700;  645.000;  679.000
247.666;  -26.100;   58.000;   11.000
247.809; -257.400; -887.000; -691.000
247.951;   11.100;  -75.000;  138.000
248.094;   58.400;  432.000;  308.000
248.236; -336.800;-1262.000;-1238.000
248.378;  -81.500; -356.000;  -81.000
248.521;  -89.600; -334.000; -337.000
248.663;  -71.000; -236.000; -267.000
248.806;  -74.000; -300.000; -266.000
248.948; -246.000; -886.000; -763.000
249.090; -131.500; -428.000; -398.000
249.233;  -95.800; -344.000; -381.000
249.375; -134.800; -474.000; -451.000
249.518;  -51.300;  -83.000; -133.000
249.660;  -15.400; -103.000;    3.000
249.802; -353.800;-1303.000;-1189.000
249.945; -161.000; -612.000; -540.000
250.087; -263.900; -834.000; -768.000
250.229; -112.000; -362.000; -480.000
250.371; -149.700; -494.000; -439.000
250.514; -112.500; -310.000; -244.000
250.656;  -11.200;   69.000;  102.000
250.798; -225.100; -849.000; -800.000
250.940; -114.300; -322.000; -322.000
251.083;  -31.100; -335.000; -111.000
251.225;  146.000;  338.000;  310.000
251.367;  -51.500; -274.000; -373.000
251.509;  -94.900; -265.000; -210.000
251.651; -191.700; -731.000; -671.000
251.794;  118.100;  538.000;  632.000
251.936; -229.000; -821.000; -747.000
252.078; -144.100; -540.000; -461.000
252.220; -141.000; -645.000; -477.000
252.362;   96.100;  344.000;  462.000
252.504; -156.100; -677.000; -584.000
252.646; -229.900; -875.000; -722.000
252.788;  -26.100;   14.000; -128.000
252.931;  -76.300; -257.000; -253.000
253.073;  -81.200; -376.000; -317.000
253.215;    5.600;  141.000;  122.000
253.357;  -18.500;   82.000; -153.000
253.499; -100.200; -374.000; -234.000
253.641; -214.500; -749.000; -594.000
253.783; -212.700; -609.000; -527.000
253.925; -202.500; -586.000; -591.000
254.067; -211.300; -744.000; -667.000
254.209;  -80.000; -391.000; -259.000
254.351; -276.600; -865.000; -883.000
254.493; -124.300; -441.000; -417.000
254.635; -236.100; -936.000; -818.000
254.777; -181.200; -752.000; -687.000
254.918; -164.900; -512.000; -430.000
255.060; -135.400; -551.000; -395.000
255.202;  -98.100; -473.000; -261.000
255.344; -179.000; -658.000; -455.000
255.486; -139.800; -471.000; -406.000
255.628; -225.900; -780.000; -781.000
255.770; -182.800; -676.000; -536.000
255.912; -134.500; -559.000; -468.000
256.053; -187.700; -730.000; -508.000
256.195;  345.800; 1008.000;  903.000
256.337; -209.000; -861.000; -595.000
256.479;  138.700;  532.000;  416.000
256.621; -100.900; -394.000; -212.000
256.762; -182.200; -789.000; -742.000
256.904;  109.300;  485.000;  487.000
257.046;  -77.200; -381.000; -271.000
257.188;  -77.900; -351.000; -264.000
257.329; -159.400; -525.000; -464.000
257.471; -249.200; -939.000; -807.000
257.613; -119.500; -584.000; -498.000
257.755; -317.400;-1073.000; -982.000
257.896;   99.300;  286.000;  392.000
258.038; -152.500; -403.000; -352.000
258.180;  -49.600; -354.000; -279.000
258.321; -188.200; -581.000; -457.000
258.463;   -7.200;  -71.000;  133.000
258.605; -194.700; -562.000; -570.000
258.746; -189.900; -886.000; -772.000
258.888; -302.300;-1026.000;-1020.000
259.029;   48.800;  121.000;   -8.000
259.171; -197.900; -614.000; -550.000
259.313;    5.300;  -49.000;  -47.000
259.454; -127.000; -536.000; -414.000
259.596;  -98.100; -483.000; -390.000
259.737; -150.200; -590.000; -474.000
259.879;   95.500;  217.000;  311.000
260.020;  178.500;  901.000;  636.000
260.162;  -68.800; -146.000; -253.000
260.303; -205.000; -768.000; -687.000
260.445; -150.800; -609.000; -613.000
260.586;   82.300;  392.000;  157.000
260.728;  -42.100; -360.000; -248.000
260.869; -139.700; -350.000; -343.000
261.011;  215.800;  706.000;  537.000
261.152; -105.700; -479.000; -319.000
261.293; -161.300; -576.000; -595.000
261.435;  -85.200; -219.000; -184.000
261.576;  -68.600; -455.000; -325.000
261.718;  142.000;  420.000;  470.000
261.859; -242.600; -940.000; -949.000
262.000; -281.200; -951.000;-1016.000
262.142;  -55.200;  -52.000;  -60.000
262.283; -221.500; -808.000; -691.000
262.424; -183.700; -666.000; -625.000
262.566; -335.500;-1161.000; -983.000
262.707; -226.700; -840.000; -830.000
262.848; -237.800; -769.000; -726.000
262.990; -115.000; -362.000; -345.000
263.131;  206.100;  650.000;  681.000
263.272;   16.500;  -61.000;  -41.000
263.413; -170.800; -589.000; -561.000
263.555; -133.200; -669.000; -143.000
263.696; -190.200; -550.000; -641.000
263.837; -106.200; -449.000; -551.000
263.978;  -19.200;   -5.000;  -77.000
264.119;  -99.600; -283.000; -264.000
264.261; -266.500; -847.000; -630.000
264.402;   33.900;   33.000;   40.000
264.543; -170.500; -509.000; -524.000
264.684;   21.400;   61.000;  -50.000
264.825; -147.400; -816.000; -538.000
264.966;   -7.700;  -84.000;  -67.000
265.107; -264.100; -646.000; -670.000
265.248; -244.700; -825.000; -812.000
265.390;  -21.800;  152.000;   -9.000
265.531;   -0.800; -238.000; -107.000
265.672; -171.800; -557.000; -630.000
265.813;  148.100;  563.000;  439.000
265.954; -294.800; -959.000; -940.000
266.095;  -15.400; -372.000; -322.000
266.236; -179.900; -686.000; -548.000
266.377;  -66.600; -243.000; -297.000
266.518; -156.900; -619.000; -547.000
266.659;   60.000;  170.000;  268.000
266.800;   27.000;   83.000;   85.000
266.941; -154.300; -487.000; -478.000
267.082;   20.900;  354.000;   99.000
267.223; -111.300; -344.000; -273.000
267.364; -239.800; -892.000; -686.000
267.504;  -14.200;    3.000;  135.000
267.645;    3.600;  160.000;   67.000
267.786;  -61.400; -147.000;  -86.000
267.927; -183.600; -473.000; -379.000
268.068;  -66.300; -186.000;  -61.000
268.209; -131.000; -175.000; -413.000
268.350; -121.000; -388.000; -532.000
268.490; -168.200; -648.000; -521.000
268.631;   65.400;  127.000;  225.000
268.772; -250.000; -874.000; -647.000
268.913;  -95.400; -328.000; -476.000
269.054;  -59.900; -117.000;   12.000
269.194;  -76.500; -418.000; -402.000
269.335; -322.900;-1137.000;-1074.000
269.476;   -2.700;   33.000;  -35.000
269.617;  -90.600; -347.000; -392.000
269.757; -195.200; -713.000; -646.000
269.898; -245.900; -856.000; -613.000
270.039; -130.300; -415.000; -405.000
270.180; -297.400; -952.000; -816.000
270.320;    0.800; -190.000; -250.000
270.461;  -69.600; -277.000; -249.000
270.602;  -15.600; -186.000; -156.000
270.742; -264.600; -868.000; -943.000
270.883;  -97.500; -442.000; -390.000
271.023; -105.700; -358.000; -357.000
271.164; -153.200; -607.000; -528.000
271.305; -228.900; -666.000; -654.000
271.445; -193.700; -722.000; -683.000
271.586; -126.800; -462.000; -283.000
271.726;  -95.500; -397.000; -322.000
271.867; -189.700; -594.000; -534.000
272.008;  -72.900; -473.000; -285.000
272.148;   84.400;  462.000;  468.000
272.289;    9.600; -113.000; -181.000
272.429;  -22.600;   19.000;  185.000
272.570; -185.300; -633.000; -737.000
272.710; -221.400; -825.000; -775.000
272.851;  -72.000;  113.000; -130.000
272.991; -342.100;-1173.000;-1077.000
273.131; -137.200; -419.000; -459.000
273.272; -210.900; -683.000; -723.000
273.412;    8.600; -143.000;  -31.000
273.553; -153.600; -488.000; -507.000
273.693;  243.500;  913.000;  858.000
273.834; -261.700; -894.000; -692.000
273.974; -176.400; -664.000; -615.000
274.114; -212.000; -772.000; -560.000
274.255;   77.500;  414.000;  373.000
274.395;  -44.100; -180.000; -125.000
274.535;   66.300;  199.000;  350.000
274.676;   49.100;  225.000;   94.000
274.816;    9.700;  110.000;   34.000
274.956; -217.700; -624.000; -690.000
275.097; -276.000;-1014.000; -922.000
275.237; -248.200; -913.000; -803.000
275.377; -183.600; -778.000; -689.000
275.517; -338.600; -878.000; -937.000
275.658; -158.000; -590.000; -555.000
275.798; -178.700; -606.000; -413.000
275.938;   79.100;  215.000;  323.000
276.078; -156.500; -626.000; -395.000
276.218;   21.100;   99.000;  104.000
276.359; -294.600;-1026.000;-1024.000
276.499; -163.000; -605.000; -446.000
276.639;  -66.100; -305.000; -151.000
276.779;  -93.300; -475.000; -357.000
276.919; -256.400; -783.000; -624.000
277.059;  -29.900; -261.000; -212.000
277.199;  -88.800; -357.000; -259.000
277.340;   87.500;  287.000;  175.000
277.480; -225.400; -840.000; -693.000
277.620;   87.000;  192.000;   16.000
277.760; -403.500;-1533.000;-1294.000
277.900;   62.300;  113.000;   33.000
278.040;    6.300;  137.000;  159.000
278.180;   55.000;  270.000;  170.000
278.320;   -7.200;   21.000;   56.000
278.460; -136.600; -443.000; -469.000
278.600; -191.700; -708.000; -598.000
278.740;  157.700;  448.000;  224.000
278.880; -239.000; -768.000; -791.000
279.020;  -20.800; -194.000; -144.000
279.160; -183.800; -672.000; -595.000
279.300; -230.900; -926.000; -873.000
279.440; -193.200; -709.000; -622.000
279.579; -273.800;-1014.000; -929.000
279.719; -136.700; -410.000; -394.000
279.859;   35.600;   -4.000;   41.000
279.999;   -8.300; -208.000;  101.000
280.139; -121.500; -435.000; -387.000
280.279; -216.200; -708.000; -745.000
280.419;   -3.000; -229.000; -147.000
280.559;  -92.000; -259.000; -180.000
280.698; -209.100; -790.000; -639.000
280.838; -234.700; -778.000; -800.000
280.978; -192.600; -846.000; -790.000
281.118; -238.400; -811.000; -704.000
281.257;   13.000;   24.000;    6.000
281.397; -340.600;-1094.000; -960.000
281.537; -190.000; -599.000; -712.000
281.677;  -36.200; -150.000; -101.000
281.816; -195.800; -700.000; -630.000
281.956;  -78.500; -193.000; -257.000
282.096; -117.800; -539.000; -396.000
282.235; -229.000; -672.000; -638.000
282.375;  -35.200; -243.000;  -98.000
282.515; -236.300; -715.000; -707.000
282.654;   71.700;   29.000;  106.000
282.794;    2.300;  388.000;  244.000
282.934; -132.500; -530.000; -491.000
283.073; -289.200;-1030.000; -857.000
283.213; -115.100; -460.000; -467.000
283.353; -100.100; -408.000; -349.000
283.492;  -37.200; -264.000; -296.000
283.632;  -91.800; -254.000; -168.000
283.771; -214.000; -859.000; -730.000
283.911; -134.000; -369.000; -260.000
284.050; -213.100; -794.000; -748.000
284.190; -334.400;-1229.000;-1096.000
284.329; -301.000;-1055.000; -964.000
284.469; -198.900; -516.000; -591.000
284.608; -125.500; -559.000; -598.000
284.748; -199.300; -614.000; -570.000
284.887;   14.700;  -87.000;  -20.000
285.027; -255.800; -844.000; -892.000
285.166;  -63.500; -192.000; -249.000
285.306;  -26.100; -116.000;  -33.000
285.445;  -63.000; -229.000; -343.000
285.584; -201.800; -630.000; -494.000
285.724;  -58.400; -282.000; -322.000
285.863; -239.200; -857.000; -507.000
286.002; -100.700; -366.000; -276.000
286.142; -224.600; -715.000; -622.000
286.281; -162.100; -525.000; -493.000
286.420; -174.700; -554.000; -417.000
286.560;  210.300;  653.000;  623.000
286.699; -307.800; -958.000; -912.000
286.838; -160.000; -590.000; -591.000
286.978; -202.700; -533.000; -537.000
287.117; -256.800;-1085.000; -950.000
287.256;  -92.900; -228.000; -211.000
287.395;  -81.500; -197.000; -378.000
287.535;  -97.900; -370.000; -298.000
287.674; -162.000; -509.000; -484.000
287.813;  144.800;  661.000;  533.000
287.952; -269.300;-1010.000; -871.000
288.091; -293.800;-1049.000; -915.000
288.231;   13.700;   13.000;   15.000
288.370; -374.500;-1217.000;-1200.000
288.509; -158.100; -728.000; -645.000
288.648; -185.000; -770.000; -548.000
288.787;  -51.800; -243.000;  -87.000
288.926; -130.900; -454.000; -475.000
289.065;  219.600;  859.000;  672.000
289.204; -115.100; -377.000; -217.000
289.344; -209.000; -791.000; -690.000
289.483;   25.500;  416.000;  304.000
289.622;  -68.200; -291.000; -149.000
289.761;  -18.200; -309.000; -166.000
289.900; -226.200; -785.000; -626.000
290.039;  -39.500;  -12.000;  -95.000
290.178;  -78.500; -274.000; -180.000
290.317; -186.800; -618.000; -479.000
290.456; -120.300; -463.000; -451.000
290.595; -286.000; -961.000; -833.000
290.734; -275.000; -904.000; -891.000
290.873; -162.400; -456.000; -420.000
291.011; -248.900; -833.000; -843.000
291.150; -213.500; -770.000; -682.000
291.289;  -83.800; -343.000; -110.000
291.428; -188.700; -599.000; -480.000
291.567; -123.400; -370.000; -442.000
291.706;   19.200;  109.000;  154.000
291.845; -154.000; -597.000; -505.000
291.984; -349.500;-1234.000;-1061.000
292.122;  139.100;  602.000;  582.000
292.261;   85.400;  620.000;  463.000
292.400;   -6.400; -144.000;  211.000
292.539; -293.400; -959.000; -813.000
292.678;  -45.800; -325.000; -300.000
292.816; -330.100;-1136.000; -965.000
292.955; -202.000; -844.000; -684.000
293.094;  -61.800; -173.000; -337.000
293.233; -105.400; -556.000; -400.000
293.371;  -90.100; -225.000;  -84.000
293.510; -202.700; -866.000; -780.000
293.649; -301.200; -959.000; -924.000
293.787; -300.300;-1083.000;-1012.000
293.926;  -24.000; -113.000;  -32.000
294.065;  -91.000; -379.000; -290.000
294.203;   78.400;  298.000;  406.000
294.342;   40.100;   74.000;  156.000
294.481;12440.500;51180.000; -836.000
294.619;  -56.000; -425.000; -582.000
294.758; -340.300;-1230.000;-1137.000
294.896;  -15.400; -125.000;    5.000
295.035; -321.600;-1040.000;-1006.000
295.174; -285.400;-1082.000; -954.000
295.312; -120.100; -323.000; -203.000
295.451;  -90.800; -307.000; -428.000
295.589; -168.000; -389.000; -518.000
295.728;   32.300; -292.000; -165.000
295.866;  -29.400;  -36.000;  -51.000
296.005; -176.900; -584.000; -341.000
296.143; -157.500; -558.000; -596.000
296.282; -261.200; -957.000; -881.000
296.420; -197.400; -657.000; -557.000
296.559; -209.600; -892.000; -633.000
296.697; -211.900; -847.000; -665.000
296.835; -305.300;-1141.000;-1002.000
296.974;    1.200;  -23.000;   39.000
297.112; -151.500; -443.000; -504.000
297.251; -249.000; -815.000; -755.000
297.389; -115.200; -576.000; -438.000
297.527;  -60.400; -145.000;  -83.000
297.666; -153.500; -486.000; -438.000
297.804; -148.500; -404.000; -264.000
297.942;  -31.200; -136.000; -161.000
298.081;  -35.900; -183.000;   63.000
298.219;  -14.000;  -17.000;  -19.000
298.357;  -86.200; -144.000;  -71.000
298.495; -226.300; -810.000; -812.000
298.634;   12.900;  245.000;  219.000
298.772;  -73.300; -220.000; -338.000
298.910; -114.500; -309.000; -182.000
299.048;  -16.800; -130.000; -153.000
299.187;  -93.300; -350.000; -250.000
299.325;   16.300;   52.000;  122.000
299.463; -126.600; -389.000; -299.000
299.601;  -57.600; -327.000; -271.000
299.739; -250.800; -908.000; -883.000
299.877; -201.600; -791.000; -703.000
300.016; -317.100;-1095.000; -935.000
300.154;   -9.100;  -19.000; -161.000
300.292; -127.400; -428.000; -348.000
300.430;  -84.300; -408.000; -291.000
300.568; -286.400; -940.000; -874.000
300.706; -141.200; -366.000; -469.000
300.844; -330.400;-1108.000; -979.000
300.982;  137.900;  246.000;  282.000
301.120; -328.100; -965.000; -866.000
301.258; -192.400; -812.000; -705.000
301.396;   20.900;  104.000;  -41.000
301.534;  -80.300; -218.000; -293.000
301.672; -191.600; -664.000; -521.000
301.810; -177.400; -613.000; -545.000
301.948;   32.300;   53.000;  149.000
302.086;  -31.800; -250.000;  -32.000
302.224; -198.300; -610.000; -585.000
302.362; -177.300; -558.000; -622.000
302.500; -285.700; -923.000; -893.000
302.638;   23.600;  128.000;  245.000
302.776;  -60.200; -352.000; -408.000
302.913;   83.100;  447.000;  236.000
303.051;  -67.000;  -86.000;  -23.000
303.189;   40.600;   90.000;  118.000
303.327;  -83.500; -341.000; -256.000
303.465; -189.100; -832.000; -588.000
303.603; -223.000; -805.000; -604.000
303.740;   91.700;  417.000;  241.000
303.878; -238.200; -800.000; -759.000
304.016; -199.200; -915.000; -790.000
304.154; -349.600;-1123.000;-1152.000
304.291; -158.900; -505.000; -554.000
304.429;  -19.700;  102.000;   74.000
304.567; -274.300; -908.000; -893.000
304.705; -147.300; -408.000; -515.000
304.842; -152.200; -616.000; -540.000
304.980;   28.100;  215.000;   35.000
305.118; -108.700; -367.000; -365.000
305.255; -290.200; -945.000; -927.000
305.393;   78.700;  178.000;  239.000
305.531; -299.000;-1173.000; -956.000
305.668; -180.800; -663.000; -582.000
305.806; -134.200; -358.000; -439.000
305.943; -132.700; -629.000; -637.000
306.081; -104.700; -378.000; -267.000
306.219; -244.700; -863.000; -748.000
306.356;    0.500;  158.000;   27.000
306.494;  211.800;  981.000;  761.000
306.631;  -23.300;  -11.000;  -55.000
306.769; -124.100; -613.000; -485.000
306.906; -123.000; -284.000; -258.000
307.044; -149.700; -473.000; -488.000
307.181; -136.200; -410.000; -332.000
307.319;   61.800;  112.000;   87.000
307.456; -353.400;-1191.000;-1153.000
307.594; -266.400; -980.000; -727.000
307.731;  -81.100; -371.000; -164.000
307.868;    1.600;  -15.000;   20.000
308.006; -319.500; -961.000; -847.000
308.143; -190.100; -618.000; -330.000
308.281;  -56.500;  -37.000; -254.000
308.418; -180.300; -748.000; -640.000
308.555; -192.600; -400.000; -250.000
308.693; -157.300; -577.000; -573.000
308.830; -241.200; -712.000; -657.000
308.967;  -14.400; -215.000;  -95.000
309.105; -148.400; -507.000; -396.000
309.242; -118.200; -468.000; -367.000
309.379; -219.700; -577.000; -655.000
309.517; -283.200; -936.000; -948.000
309.654; -270.100; -910.000; -734.000
309.791; -170.500; -662.000; -580.000
309.928; -295.900; -977.000; -914.000
310.065;  188.900;  819.000;  697.000
310.203; -274.000; -825.000; -850.000
310.340; -128.700; -465.000; -321.000
310.477; -181.200; -412.000; -516.000
310.614; -135.300; -383.000; -473.000
310.751; -174.000; -427.000; -518.000
310.889;  -36.900;    1.000;   11.000
311.026; -333.600;-1161.000; -939.000
311.163;  -82.300; -386.000; -380.000
311.300; -148.000; -512.000; -479.000
311.437; -159.300; -658.000; -619.000
311.574; -358.400;-1226.000; -985.000
311.711; -169.700; -595.000; -433.000
311.848; -111.600; -380.000; -388.000
311.985;   18.100;  270.000;   93.000
312.122; -284.200; -932.000; -762.000
312.259; -299.100; -941.000; -994.000
312.396; -189.800; -508.000; -551.000
312.533; -218.700; -812.000; -790.000
312.670; -327.400;-1070.000; -898.000
312.807;  -92.500; -352.000; -367.000
312.944; -201.600; -513.000; -611.000
313.081; -118.700; -150.000; -415.000
313.218; -281.200;-1111.000; -867.000
313.355; -129.100; -531.000; -449.000
313.492; -117.400; -455.000; -292.000
313.629;  237.600;  815.000;  735.000
313.766; -373.800;-1176.000;-1008.000
313.902;  -39.400; -186.000;   21.000
314.039; -137.000; -372.000; -289.000
314.176;   69.600;  286.000;  192.000
314.313; -203.200; -569.000; -473.000
314.450; -184.600; -788.000; -684.000
314.587; -155.000; -468.000; -480.000
314.723;    1.400;  -78.000;  130.000
314.860;   52.200;  318.000;  332.000
314.997;   55.400;  223.000;  142.000
315.134; -142.200; -385.000; -368.000
315.270; -126.200; -480.000; -496.000
315.407; -334.800;-1094.000; -967.000
315.544; -185.000; -657.000; -538.000
315.681; -188.600; -681.000; -565.000
315.817;  -68.400; -133.000; -176.000
315.954; -196.000; -613.000; -392.000
316.091; -294.400;-1045.000;-1023.000
316.227;  -90.800;  -71.000; -179.000
316.364;   14.200;   23.000;    6.000
316.500; -110.200; -113.000; -300.000
316.637;  -56.900; -181.000; -302.000
316.774; -169.600; -625.000; -358.000
316.910; -191.500; -598.000; -629.000
317.047; -196.900; -487.000; -351.000
317.183; -142.900; -435.000; -566.000
317.320; -139.100; -367.000; -321.000
317.456; -205.100; -733.000; -805.000
317.593; -238.100; -598.000; -641.000
317.729;   33.500;  168.000;  -67.000
317.866; -457.100;-1434.000;-1285.000
318.002; -181.700; -708.000; -948.000
318.139; -300.100; -883.000; -867.000
318.275; -258.700;-1003.000; -738.000
318.412; -128.500; -517.000; -336.000
318.548; -220.700; -751.000; -720.000
318.685; -277.500; -985.000; -888.000
318.821; -188.900; -762.000; -735.000
318.957;  -47.900;   34.000;  -23.000
319.094;   87.100;  297.000;  154.000
319.230; -264.300; -756.000; -742.000
319.367; -130.100; -471.000; -520.000
319.503; -150.500; -538.000; -436.000
319.639; -232.400; -877.000; -793.000
319.775; -216.500; -750.000; -685.000
319.912; -131.600; -424.000; -519.000
320.048; -371.700;-1184.000;-1184.000
320.184;   39.400;   59.000;   70.000
320.321; -132.100; -497.000; -467.000
320.457;  122.300;  475.000;  662.000
320.593; -150.300; -375.000; -382.000
320.729; -201.900; -732.000; -734.000
320.866; -167.900; -577.000; -635.000
321.002; -223.900; -759.000; -809.000
321.138; -107.700; -135.000; -211.000
321.274;  -33.300; -148.000; -115.000
321.410; -177.500; -585.000; -353.000
321.546; -274.900;-1011.000; -911.000
321.683;   63.700;  400.000;  185.000
321.819;  -14.100;  -48.000; -117.000
321.955; -240.700; -743.000; -722.000
322.091; -148.300; -585.000; -540.000
322.227; -108.100; -382.000; -202.000
322.363; -120.700; -320.000; -215.000
322.499; -113.900; -343.000; -331.000
322.635;  146.600;  636.000;  443.000
322.771;  -77.100; -139.000;   12.000
322.907;   83.800;  129.000;  327.000
323.043;  -84.800; -115.000; -206.000
323.179; -100.600; -394.000; -363.000
323.315; -152.000; -401.000; -371.000
323.451;  -78.500; -328.000; -236.000
323.587;  -65.200;  -60.000;  -77.000
323.723; -192.300; -682.000; -601.000
323.859; -111.900; -258.000;  -76.000
323.995;  -97.900; -467.000; -409.000
324.131; -286.300; -967.000; -892.000
324.267;  -55.300; -254.000; -276.000
324.402; -314.500; -960.000; -983.000
324.538; -100.300; -279.000; -104.000
324.674;    6.300;  164.000;   77.000
324.810;   40.100;  226.000;  308.000
324.946; -138.300; -810.000; -658.000
325.082; -144.900; -568.000; -475.000
325.217;  -38.100;  -62.000;   16.000
325.353; -200.300; -764.000; -659.000
325.489; -188.500; -540.000; -506.000
325.625; -160.600; -579.000; -525.000
325.760;   78.500;  517.000;  376.000
325.896; -151.800; -515.000; -702.000
326.032; -108.100; -403.000; -352.000
326.168; -159.600; -462.000; -369.000
326.303; -138.100; -352.000; -461.000
326.439;  -51.600; -336.000; -276.000
326.575;  -71.500; -190.000;  -29.000
326.710;  -57.000; -156.000;  -30.000
326.846;    4.500;  146.000;  103.000
326.982; -157.800; -530.000; -548.000
327.117; -173.900; -481.000; -442.000
327.253; -208.500; -745.000; -742.000
327.388; -357.300;-1137.000;-1153.000
327.524; -204.900; -811.000; -578.000
327.659;  -58.700;  -58.000;  -22.000
327.795;  -13.100;   69.000;   45.000
327.931; -166.700; -723.000; -499.000
328.066;  -68.100; -417.000; -276.000
328.202;  -54.300;   12.000; -129.000
328.337;  235.900;  957.000;  713.000
328.473;   -6.500;  -12.000;  -74.000
328.608;  -70.600; -256.000; -267.000
328.743; -222.700; -799.000; -664.000
328.879;   32.800;  214.000;  114.000
329.014; -116.200; -102.000; -122.000
329.150; -185.800; -358.000; -483.000
329.285; -169.800; -465.000; -466.000
329.421; -105.200; -548.000; -246.000
329.556;  -49.000;  -36.000;   85.000
329.691; -178.800; -633.000; -615.000
329.827; -195.000; -626.000; -480.000
329.962;  -69.200;  131.000; -301.000
330.097; -201.600; -673.000; -585.000
330.233; -104.300; -410.000; -223.000
330.368; -255.800; -839.000; -628.000
330.503;   -2.700;    3.000;   98.000
330.638;  -18.500;  -93.000; -125.000
330.774; -174.300; -609.000; -530.000
330.909; -110.100; -434.000; -244.000
331.044; -158.100; -714.000; -708.000
331.179; -362.100;-1217.000;-1109.000
331.315;   15.500;   77.000;   20.000
331.450;   32.500;  157.000;  285.000
331.585; -215.000; -805.000; -706.000
331.720; -178.300; -510.000; -460.000
331.855;  -25.800;  -35.000; -102.000
331.990;  -31.300;   62.000;  138.000
332.126;    5.800; -110.000;   71.000
332.261; -131.300; -379.000; -265.000
332.396; -111.500; -135.000; -242.000
332.531; -341.700;-1074.000;-1031.000
332.666; -124.500; -519.000; -363.000
332.801; -224.300; -726.000; -807.000
332.936;  -43.700; -192.000; -122.000
333.071; -300.500; -870.000; -817.000
333.206;   24.800;  307.000;  379.000
333.341;   89.900;  344.000;  418.000
333.476; -175.800; -627.000; -623.000
333.611; -105.900; -251.000; -173.000
333.746;  -62.600; -381.000; -464.000
333.881; -280.900; -973.000; -935.000
334.016; -280.700; -936.000; -917.000
334.151; -255.500; -746.000; -702.000
334.286;   14.100;  152.000;  186.000
334.421;  -57.700; -125.000; -178.000
334.556; -198.400; -611.000; -567.000
334.690; -210.700; -631.000; -577.000
334.825;   98.800;  381.000;   83.000
334.960; -123.400; -285.000; -413.000
335.095;   18.400;  135.000;  -91.000
335.230; -231.000; -722.000; -738.000
335.365; -281.700;-1084.000; -990.000
335.499; -323.400;-1108.000;-1037.000
335.634;  -12.100;    9.000;  534.000
335.769; -231.500; -755.000; -720.000
335.904; -184.300; -603.000; -561.000
336.038; -230.700; -735.000; -657.000
336.173; -360.800;-1206.000;-1194.000
336.308;  -99.500; -116.000; -189.000
336.443; -141.800; -544.000; -634.000
336.577; -283.200; -936.000; -787.000
336.712;   -2.200;   -4.000;  -12.000
336.847; -236.400; -724.000; -607.000
336.981; -119.700; -272.000; -208.000
337.116;  124.600;  615.000;  501.000
337.250; -129.900; -434.000; -421.000
337.385; -122.700; -297.000; -208.000
337.520; -199.400; -632.000; -603.000
337.654; -135.500; -215.000; -126.000
337.789; -282.000; -989.000; -933.000
337.923;  -72.100; -104.000; -205.000
338.058; -237.200; -673.000; -738.000
338.192; -206.900; -611.000; -488.000
338.327;  -39.000;  -18.000; -155.000
338.461; -174.700; -299.000; -469.000
338.596; -215.400; -780.000; -638.000
338.730; -261.900; -767.000; -803.000
338.865;  -23.400;  -46.000; -140.000
338.999; -276.500; -846.000; -702.000
339.134; -184.800; -634.000; -536.000
339.268; -194.500; -741.000; -603.000
339.403; -247.200; -740.000; -775.000
339.537; -255.500; -894.000; -820.000
339.671; -251.200; -829.000; -813.000
339.806; -206.700; -556.000; -512.000
339.940;  -60.200; -261.000; -235.000
340.074; -225.100; -685.000; -510.000
340.209;  -97.600; -351.000; -230.000
340.343; -195.100; -517.000; -573.000
340.477;  296.100;  998.000; 1036.000
340.612; -305.100;-1033.000; -900.000
340.746; -121.800; -199.000; -243.000
340.880; -280.600; -924.000; -785.000
341.014;  -51.400;  -45.000; -154.000
341.149; -220.800; -756.000; -718.000
341.283; -225.200; -839.000; -754.000
341.417; -293.800;-1124.000; -938.000
341.551; -213.400; -768.000; -708.000
341.685; -206.200; -633.000; -611.000
341.820; -187.200; -562.000; -493.000
341.954; -173.800; -218.000; -349.000
342.088; -297.400;-1102.000;-1019.000
342.222;   65.000;  565.000;  618.000
342.356; -133.600; -395.000; -335.000
342.490; -254.600; -880.000; -841.000
342.624;  -99.200; -339.000; -242.000
342.758; -131.400; -364.000; -312.000
342.892; -202.000; -710.000; -585.000
343.026;  -73.600;  -58.000; -116.000
343.160; -113.600; -426.000; -376.000
343.294; -181.600; -474.000; -337.000
343.428; -166.900; -488.000; -448.000
343.562;  -47.800; -172.000;  -23.000
343.696; -110.600; -385.000; -314.000
343.830; -108.600; -362.000; -356.000
343.964;  -65.000; -231.000; -168.000
344.098;  -15.300;  199.000;   70.000
344.232;  -48.700; -266.000; -127.000
344.366; -224.700; -567.000; -453.000
344.500; -213.100; -665.000; -744.000
344.634;  -99.900; -324.000; -164.000
344.768; -143.500; -531.000; -341.000
344.902;   28.300;  278.000;  256.000
345.035; -158.700; -556.000; -496.000
345.169; -275.700; -933.000; -656.000
345.303; -138.900; -308.000; -482.000
345.437; -235.300; -826.000; -717.000
345.571; -216.900; -675.000; -594.000
345.704; -138.100; -309.000; -532.000
345.838; -117.700; -331.000; -284.000
345.972; -182.100; -543.000; -495.000
346.106;  -11.700; -179.000; -190.000
346.239;  -79.900; -312.000; -243.000
346.373; -107.600; -343.000; -302.000
346.507; -320.700; -950.000; -962.000
346.640;   -9.100;  -30.000;   13.000
346.774; -225.600; -650.000; -797.000
346.908;  -27.100; -138.000;  -11.000
347.041; -193.400; -646.000; -593.000
347.175;   36.600;  259.000;   27.000
347.309; -228.000; -698.000; -628.000
347.442; -250.500; -883.000; -732.000
347.576;  143.300;  670.000;  668.000
347.709;  -45.700; -123.000;  -52.000
347.843; -286.300; -933.000; -825.000
347.976;   68.100;  235.000;  294.000
348.110; -395.300;-1268.000;-1186.000
348.243; -203.700; -679.000; -772.000
348.377;    7.300;  -26.000;   60.000
348.510;   93.100;  403.000;  540.000
348.644;  -97.700;  -37.000; -159.000
348.777;   14.300;  180.000;  191.000
348.911; -116.500; -142.000; -112.000
349.044;  105.300;  471.000;  448.000
349.178; -367.700;-1069.000;-1006.000
349.311;   39.800;  141.000;  255.000
349.444; -279.700; -927.000; -813.000
349.578;  -89.500; -347.000; -200.000
349.711; -306.500; -959.000; -862.000
349.845; -228.100; -661.000; -591.000
349.978; -368.400;-1224.000;-1137.000
350.111; -177.100; -546.000; -612.000
350.244; -203.800; -596.000; -700.000
350.378; -139.400; -392.000; -393.000
350.511; -142.800; -393.000; -426.000
350.644; -219.200; -808.000; -806.000
350.778;   -6.900;  168.000;  104.000
350.911;   40.300;  134.000;  140.000
351.044; -248.700; -685.000; -615.000
351.177;  -93.900; -321.000; -281.000
351.310;  -33.700;    3.000; -131.000
351.444; -271.500; -888.000; -788.000
351.577;   -7.700;  140.000;   90.000
351.710;  172.700;  593.000;  417.000
351.843;  -76.500; -165.000;  -77.000
351.976;    8.100;  149.000;  -79.000
352.109; -219.900; -621.000; -612.000
352.242; -117.200; -464.000; -419.000
352.376; -197.900; -580.000; -636.000
352.509; -139.300; -437.000; -356.000
352.642; -349.200; -654.000; -604.000
352.775;  -51.100; -141.000;  -98.000
352.908; -289.600; -933.000; -904.000
353.041; -243.300; -814.000; -824.000
353.174; -144.000; -551.000; -424.000
353.307; -219.700; -753.000; -764.000
353.440;   87.200;  541.000;  453.000
353.573; -290.900; -957.000;-1008.000
353.706; -235.800; -384.000; -558.000
353.839; -106.000; -264.000; -220.000
353.971; -192.200; -657.000; -512.000
354.104; -255.100; -896.000; -835.000
354.237; -214.700; -627.000; -662.000
354.370; -196.900; -846.000; -879.000
354.503; -411.500;-1231.000;-1308.000
354.636;  -85.500; -529.000; -348.000
354.769; -318.500; -937.000; -860.000
354.902; -100.500; -230.000; -139.000
355.034;  -86.700; -164.000; -220.000
355.167;  -81.000; -262.000; -162.000
355.300; -315.500;-1061.000; -880.000
355.433;  -15.700;  -71.000;  -14.000
355.565; -156.900; -402.000; -384.000
355.698;  -85.100; -356.000; -296.000
355.831; -286.200; -882.000; -801.000
355.964;  -74.600; -285.000; -170.000
356.096; -295.800; -856.000; -843.000
356.229; -204.600; -523.000; -530.000
356.362; -111.800; -373.000; -266.000
356.494;  -49.400; -229.000; -162.000
356.627;   88.200;  269.000;  377.000
356.760;   24.900;  120.000;   53.000
356.892; -220.400; -286.000; -601.000
357.025;   82.800;  403.000;  389.000
357.157; -112.400; -167.000; -179.000
357.290; -261.800; -856.000; -713.000
357.423; -206.500; -667.000; -556.000
357.555;  -61.300; -217.000; -228.000
357.688; -177.900; -483.000; -364.000
357.820; -255.500; -870.000; -877.000
357.953; -209.500; -563.000; -589.000
358.085; -192.800; -632.000; -612.000
358.218; -322.300;-1131.000; -932.000
358.350;  -18.100;  -58.000;  312.000
358.483; -385.200;-1300.000;-1187.000
358.615; -326.700;-1182.000;-1078.000
358.747; -369.200;-1187.000;-1058.000
358.880; -228.800; -810.000; -744.000
359.012; -142.000; -376.000; -202.000
359.145; -154.100; -480.000; -511.000
359.277; -345.100; -962.000; -913.000
359.409;   88.700;  536.000;  231.000
359.542; -279.300; -738.000; -688.000
359.674;    9.600;   46.000;   13.000
359.806; -166.700; -565.000; -438.000
359.939; -151.700; -617.000; -516.000
360.071; -206.600; -583.000; -579.000
360.203; -106.500; -411.000; -364.000
360.335;  -51.200;  164.000;  -16.000
360.468;  -84.200; -249.000; -307.000
360.600; -205.000; -547.000; -454.000
360.732; -184.500; -546.000; -423.000
360.864; -376.100;-1216.000;-1044.000
360.996; -130.400; -516.000; -554.000
361.129; -171.900; -389.000; -598.000
361.261;  -24.900;  110.000; -113.000
361.393;  -94.500; -252.000; -214.000
361.525;   53.500;   94.000;  244.000
361.657; -259.600; -821.000; -703.000
361.789;  -73.700; -139.000; -155.000
361.921; -192.400; -642.000; -593.000
362.053;  106.400;  524.000;  541.000
362.185;   25.200;  288.000;   72.000
362.318; -240.000; -709.000; -705.000
362.450;   55.100;  294.000;  444.000
362.582; -287.400; -913.000; -870.000
362.714; -116.700; -353.000; -332.000
362.846; -180.300; -606.000; -490.000
362.978; -314.700; -941.000; -811.000
363.109; -101.500; -161.000; -260.000
363.241; -227.600; -739.000; -749.000
363.373; -177.500; -649.000; -564.000
363.505;  -66.200; -186.000;  -91.000
363.637; -188.600; -787.000; -601.000
363.769; -383.000;-1067.000;-1080.000
363.901; -159.300; -596.000; -654.000
364.033; -360.500;-1103.000;-1062.000
364.165;  -77.100; -283.000; -283.000
364.296; -131.000; -316.000; -177.000
364.428; -387.900;-1344.000;-1220.000
364.560; -201.400; -679.000; -661.000
364.692; -204.100; -738.000; -835.000
364.824; -209.800; -588.000; -456.000
364.955; -139.100; -402.000; -564.000
365.087; -330.400;-1097.000; -852.000
365.219; -220.900; -686.000; -816.000
365.351; -195.800; -526.000; -572.000
365.482;   44.700;  300.000;  240.000
365.614; -131.200; -402.000; -314.000
365.746; -213.300; -729.000; -752.000
365.877; -242.800; -706.000; -672.000
366.009;  -48.700;  -35.000;  -62.000
366.141; -377.000;-1249.000;-1134.000
366.272; -263.100; -803.000; -719.000
366.404; -262.000;-1005.000; -874.000
366.535;   -1.500; -139.000;  -12.000
366.667; -222.200; -644.000; -649.000
366.799;   82.000;  353.000;  203.000
366.930; -320.600; -862.000; -996.000
367.062; -168.800; -639.000; -613.000
367.193; -286.000; -872.000; -842.000
367.325; -189.100; -580.000; -684.000
367.456; -110.400; -246.000;   31.000
367.588; -109.600; -371.000; -318.000
367.719;  -77.200;  -44.000;  -45.000
367.851; -100.000; -222.000; -241.000
367.982; -291.400; -875.000; -732.000
368.113; -128.800; -475.000; -358.000
368.245; -304.600; -960.000; -841.000
368.376;  -92.600; -254.000; -302.000
368.508; -126.600; -188.000; -263.000
368.639; -317.200;-1166.000;-1034.000
368.770; -237.400; -670.000; -589.000
368.902; -281.000; -836.000; -926.000
369.033; -284.200; -906.000; -855.000
369.164; -205.800; -720.000; -653.000
369.296; -245.400; -452.000; -601.000
369.427;  -80.600; -209.000; -144.000
369.558; -160.800; -593.000; -377.000
369.689; -207.100; -721.000; -569.000
369.821; -319.400; -951.000; -845.000
369.952;  -33.100;   42.000; -108.000
370.083; -105.100; -229.000; -108.000
370.214; -242.600; -735.000; -650.000
370.345;  -18.700;   65.000;   81.000
370.477; -249.700; -810.000; -790.000
370.608; -105.800; -328.000; -264.000
370.739; -362.900;-1233.000;-1292.000
370.870; -296.700;-1102.000; -923.000
371.001; -140.500; -378.000; -467.000
371.132; -258.100; -754.000; -735.000
371.263;  -30.900;  -42.000; -148.000
371.394; -274.100; -841.000; -748.000
371.525;   36.100;  345.000;  225.000
371.657; -284.700; -808.000; -670.000
371.788;   70.900;  103.000;  199.000
371.919; -158.900; -384.000; -304.000
372.050;  -38.300;  -91.000; -156.000
372.181;  -63.900; -188.000; -294.000
372.311;  -26.900;   42.000; -127.000
372.442; -173.500; -457.000; -451.000
372.573; -109.200; -444.000; -340.000
372.704; -329.300;-1008.000; -980.000
372.835;  -95.800; -228.000; -289.000
372.966; -216.100; -646.000; -554.000
373.097; -232.100; -575.000; -711.000
373.228; -224.900; -717.000; -542.000
373.359; -225.500; -824.000; -536.000
373.490; -252.700; -881.000; -727.000
373.620; -305.100;-1001.000; -803.000
373.751; -165.100; -332.000; -396.000
373.882; -207.200; -663.000; -733.000
374.013; -126.900; -449.000; -262.000
374.143; -180.300; -581.000; -659.000
374.274; -309.500; -987.000; -908.000
374.405; -115.700; -388.000; -276.000
374.536; -176.500; -526.000; -387.000
374.666; -218.900; -759.000; -807.000
374.797; -262.500; -817.000; -868.000
374.928; -221.500; -710.000; -560.000
375.058; -183.900; -535.000; -500.000
375.189;  -48.500;  -59.000;  -93.000
375.320; -352.900; -928.000;-1034.000
375.450; -198.600; -625.000; -616.000
375.581; -170.300; -526.000; -436.000
375.712; -110.000; -574.000; -250.000
375.842; -170.400; -438.000; -415.000
375.973; -172.500; -554.000; -513.000
376.103; -218.800; -665.000; -648.000
376.234; -206.500; -531.000; -552.000
376.364; -320.100; -944.000; -867.000
376.495;  235.900;  925.000;  529.000
376.625; -159.500; -472.000; -485.000
376.756; -221.600; -709.000; -678.000
376.886; -356.300;-1178.000;-1026.000
377.017; -347.100;-1048.000;-1061.000
377.147; -251.800; -786.000; -782.000
377.278;   25.500;  174.000;  228.000
377.408; -255.100; -801.000; -815.000
377.538; -205.300; -707.000; -693.000
377.669; -218.300; -537.000; -613.000
377.799; -218.700; -645.000; -635.000
377.929; -224.900; -610.000; -428.000
378.060; -260.900; -781.000; -847.000
378.190; -253.700; -726.000; -531.000
378.320; -178.400; -401.000; -406.000
378.451;  -70.500; -131.000;  -22.000
378.581;  -58.200;  -67.000; -110.000
378.711;  164.300; 1035.000;  866.000
378.841; -184.500; -533.000; -675.000
378.972; -304.300; -871.000; -751.000
379.102; -217.800; -652.000; -579.000
379.232; -101.500; -126.000;  -73.000
379.362; -315.400;-1001.000; -885.000
379.492; -183.700; -373.000; -424.000
379.623;   35.200;    0.000;  111.000
379.753; -307.100;-1107.000; -974.000
379.883;    3.700;   59.000;  156.000
380.013; -339.500;-1081.000;-1017.000
380.143; -342.100;-1097.000;-1056.000
380.273; -310.900; -985.000; -861.000
380.403; -104.400; -344.000; -257.000
380.533; -238.700; -651.000; -664.000
380.663;   25.100;  173.000;  128.000
380.793; -352.500;-1027.000;-1074.000
380.923;  -86.100; -103.000;  -34.000
381.053; -217.500; -613.000; -623.000
381.183; -102.400; -106.000; -248.000
381.313; -197.500; -656.000; -470.000
381.443; -159.400; -692.000; -473.000
381.573; -187.000; -402.000; -409.000
381.703; -352.900;-1249.000;-1095.000
381.833; -432.400;-1454.000;-1336.000
381.963;  -41.600; -134.000;  -87.000
382.093; -321.900; -925.000; -909.000
382.223; -196.000; -713.000; -602.000
382.353; -255.200; -801.000; -608.000
382.482; -298.400;-1091.000; -964.000
382.612; -221.000; -872.000; -644.000
382.742; -192.700; -695.000; -622.000
382.872; -189.200; -565.000; -551.000
383.002;  -11.300;  347.000; -132.000
383.131; -104.700; -226.000; -160.000
383.261; -238.800; -706.000; -768.000
383.391; -192.900; -552.000; -377.000
383.521;   94.700;  451.000;  263.000
383.650; -319.400; -947.000; -904.000
383.780; -233.300; -783.000; -656.000
383.910;  173.500;  880.000;  802.000
384.039; -230.600; -794.000; -656.000
384.169; -360.500;-1205.000;-1017.000
384.299; -203.400; -650.000; -662.000
384.428; -247.900; -764.000; -680.000
384.558; -101.500; -308.000; -275.000
384.687; -160.900; -414.000; -334.000
384.817;  -45.500;   75.000;   -2.000
384.947;  -79.900; -234.000; -141.000
385.076;  257.700;  982.000;  912.000
385.206;  114.700;  369.000;  480.000
385.335; -137.200; -549.000; -417.000
385.465; -262.700; -655.000; -663.000
385.594;  -59.800;  -53.000;  -44.000
385.724; -313.900; -868.000; -838.000
385.853; -119.000; -296.000; -270.000
385.982; -275.500; -743.000; -787.000
386.112; -315.900;-1052.000; -871.000
386.241; -121.900; -307.000; -312.000
386.371;  -80.900; -174.000;  -87.000
386.500; -278.900; -825.000; -789.000
386.629; -251.700; -874.000; -817.000
386.759;  -56.100;  -43.000;   68.000
386.888;  -45.300; -170.000; -250.000
387.017; -237.700; -648.000; -620.000
387.147; -240.200; -771.000; -798.000
387.276; -199.400; -410.000; -397.000
387.405; -134.100; -398.000; -342.000
387.535; -155.200; -452.000; -361.000
387.664; -216.100; -692.000; -620.000
387.793; -100.500; -198.000; -113.000
387.922;   53.900;  255.000;  200.000
388.052; -228.300; -576.000; -423.000
388.181; -159.600; -342.000; -472.000
388.310; -279.700; -889.000; -710.000
388.439; -276.600; -749.000; -742.000
388.568;   19.600;  365.000;  244.000
388.697; -236.400; -756.000; -653.000
388.826; -222.600; -768.000; -666.000
388.956; -104.100; -285.000; -307.000
389.085; -168.800; -347.000; -287.000
389.214; -252.300; -842.000; -872.000
389.343; -201.300; -645.000; -413.000
389.472;   54.900;  126.000;  149.000
389.601;  -22.700;   91.000;    0.000
389.730; -202.100; -568.000; -687.000
389.859;   -8.900;  226.000;   46.000
389.988; -141.800; -423.000; -408.000
390.117; -102.400; -168.000; -146.000
390.246; -108.700; -331.000; -320.000
390.375; -249.700; -673.000; -626.000
390.504; -183.200; -703.000; -621.000
390.633; -299.900; -672.000; -726.000
390.761; -234.800; -732.000; -645.000
390.890;  -82.300;   -4.000; -130.000
391.019; -178.800; -421.000; -441.000
391.148; -275.300; -826.000; -855.000
391.277; -196.800; -576.000; -493.000
391.406; -288.300; -821.000; -805.000
391.534;   16.000;  574.000; -301.000
391.663; -179.100; -583.000; -645.000
391.792; -219.200; -673.000; -701.000
391.921;  -57.300;   -3.000;   15.000
392.050;  -80.000; -287.000; -228.000
392.178; -409.500;-1206.000;-1061.000
392.307; -243.800; -758.000; -712.000
392.436; -228.500; -427.000; -641.000
392.564;   -1.300;  166.000;   -6.000
392.693; -268.900; -860.000; -682.000
392.822; -166.800; -529.000; -534.000
392.950; -286.800; -880.000; -714.000
393.079; -127.100; -188.000; -328.000
393.208; -194.600; -488.000; -511.000
393.336;  -62.300; -170.000; -145.000
393.465;  -87.300; -317.000; -199.000
393.593;    5.400;   62.000;   79.000
393.722; -349.000;-1121.000; -916.000
393.850;  -42.200; -188.000;  -61.000
393.979; -318.000; -926.000; -805.000
394.107; -181.400; -517.000; -537.000
394.236; -208.600; -570.000; -507.000
394.364;   48.200;  383.000;  206.000
394.493; -284.200; -911.000; -767.000
394.621; -272.600; -955.000; -916.000
394.750; -304.000; -873.000; -923.000
394.878;  -58.800; -247.000; -149.000
395.007; -269.000; -721.000; -807.000
395.135; -232.200; -790.000; -721.000
395.263; -317.200;-1038.000;-1040.000
395.392;  -42.500;  -25.000; -107.000
395.520; -301.800; -818.000; -679.000
395.648; -307.400; -865.000; -915.000
395.777; -163.200; -366.000; -405.000
395.905; -169.700; -449.000; -564.000
396.033;   -1.500;  217.000;  172.000
396.162; -147.000; -399.000; -453.000
396.290;  -51.100;  -17.000;   -2.000
396.418; -178.700; -555.000; -514.000
396.546; -289.000; -571.000; -466.000
396.674; -273.200; -850.000; -878.000
396.803;  -47.700;  -72.000;  -23.000
396.931;  -82.500; -179.000; -199.000
397.059; -351.500;-1026.000; -989.000
397.187; -279.700;-1026.000; -975.000
397.315; -293.300; -884.000; -649.000
397.443; -191.300; -592.000; -443.000
397.572; -198.700; -578.000; -424.000
397.700; -207.700; -607.000; -614.000
397.828;  -11.900;  120.000;  -90.000
397.956; -140.500; -508.000; -478.000
398.084; -223.300; -767.000; -626.000
398.212;   16.800;  137.000;  124.000
398.340;  -48.300;  -56.000;  159.000
398.468; -134.500; -390.000; -169.000
398.596; -315.200; -993.000; -953.000
398.724; -281.800; -762.000; -767.000
398.852; -324.200;-1024.000; -976.000
398.980; -166.900; -560.000; -560.000
399.108; -263.500; -982.000; -735.000
399.236;   -2.300;   13.000;    8.000
399.363;   19.100;  222.000;  196.000
399.491; -160.800; -404.000; -398.000
399.619; -283.900; -829.000; -800.000
399.747; -240.200; -859.000; -771.000
399.875;   49.000;  220.000;  234.000
400.003; -127.700; -359.000; -284.000
400.130; -181.900; -421.000; -341.000
400.258;  -20.100;  -83.000;   38.000
400.386;  -85.700; -352.000; -168.000
400.514; -169.900; -526.000; -587.000
400.641; -302.700; -928.000; -802.000
400.769; -315.300; -979.000; -888.000
400.897; -264.900; -838.000; -793.000
401.025;  -59.600; -166.000; -152.000
401.152;   -3.100;  220.000;   38.000
401.280; -169.300; -430.000; -429.000
401.408; -246.500; -712.000; -576.000
401.535; -234.000; -735.000; -758.000
401.663; -423.000;-1134.000;-1054.000
401.790; -176.200; -514.000; -525.000
401.918;  103.800;  436.000;  405.000
402.046;  -22.000;  134.000;  122.000
402.173;  -77.300;  -18.000;    7.000
402.301; -147.600; -519.000; -397.000
402.428;   80.900;  528.000;  383.000
402.556; -327.000;-1188.000; -913.000
402.683;  -65.900;  -20.000;   -1.000
402.811;  -31.700;  -37.000; -206.000
402.938;  -48.600;   20.000;   27.000
403.066; -189.000; -574.000; -558.000
403.193;    0.500;  299.000;  239.000
403.321; -175.500; -396.000; -574.000
403.448;   -7.700;   83.000;   27.000
403.575;  -44.900;  -90.000;  -46.000
403.703; -283.100; -732.000; -557.000
403.830; -168.200; -531.000; -496.000
403.957; -371.300;-1117.000;-1023.000
404.085;  -73.700;  -61.000; -172.000
404.212;  -26.600;  -50.000;   63.000
404.339; -119.800; -566.000; -306.000
404.467; -156.400; -612.000; -524.000
404.594;  -92.200; -287.000; -227.000
404.721; -255.900; -869.000; -764.000
404.848;  -85.700; -113.000; -202.000
404.976; -293.800; -856.000; -783.000
405.103;  -49.900;  -14.000;  -82.000
405.230;  -40.800;  190.000;  226.000
405.357;   -8.600;  117.000;   44.000
405.484;  -68.200;  -49.000;    5.000
405.612; -193.300; -548.000; -563.000
405.739; -149.500; -488.000; -243.000
405.866;  151.200;  669.000;  385.000
405.993; -139.100; -398.000; -102.000
406.120; -262.800; -801.000; -887.000
406.247; -181.200; -323.000; -342.000
406.374;  148.300;  540.000;  629.000
406.501; -253.700; -632.000; -702.000
406.628; -178.800; -621.000; -589.000
406.755; -254.300; -803.000; -620.000
406.882; -123.700; -228.000; -277.000
407.009; -244.900; -719.000; -628.000
407.136; -110.400; -480.000; -401.000
407.263; -311.800; -939.000; -829.000
407.390; -218.700; -692.000; -614.000
407.517; -381.600;-1139.000;-1187.000
407.644; -134.800; -332.000; -256.000
407.771; -166.500; -249.000; -287.000
407.898;    7.300;  168.000;  328.000
408.025; -185.400; -421.000; -313.000
408.151;   -4.300;   82.000;  153.000
408.278; -155.200; -267.000; -216.000
408.405; -272.400; -931.000; -899.000
408.532; -191.200; -549.000; -542.000
408.659; -266.900; -677.000; -648.000
408.785; -377.100;-1298.000;-1170.000
408.912;  -96.600; -412.000; -296.000
409.039; -205.300; -610.000; -686.000
409.166; -189.700; -591.000; -555.000
409.292; -221.200; -571.000; -534.000
409.419; -219.500; -665.000; -649.000
409.546; -126.700; -431.000; -192.000
409.672; -234.300; -713.000; -545.000
409.799;  -73.800;  -36.000;   34.000
409.926; -106.800; -180.000; -179.000
410.052; -392.200;-1127.000;-1091.000
410.179; -155.100; -368.000; -392.000
410.305; -183.300; -375.000; -493.000
410.432; -115.300; -220.000; -333.000
410.558; -206.700; -305.000; -380.000
410.685; -203.800; -688.000; -431.000
410.812; -226.700; -409.000; -588.000
410.938; -286.700; -964.000; -808.000
411.065; -223.000; -671.000; -645.000
411.191;  -89.900; -189.000; -174.000
411.317; -298.200; -823.000; -742.000
411.444; -105.800; -317.000; -246.000
411.570; -150.000; -339.000; -294.000
411.697; -241.500; -758.000; -752.000
411.823; -362.500; -989.000; -999.000
411.949;  -70.900;  -56.000;   17.000
412.076; -236.900; -539.000; -519.000
412.202; -240.300; -758.000; -757.000
412.329; -284.500; -798.000; -752.000
412.455; -207.600; -821.000; -657.000
412.581;  -50.600;  -15.000;  172.000
412.707; -184.800; -540.000; -457.000
412.834;   -8.600;  156.000;  219.000
412.960; -263.200; -785.000; -784.000
413.086; -300.000; -743.000; -701.000
413.212;   98.400;  604.000;  578.000
413.339; -280.900; -685.000; -701.000
413.465; -173.400; -364.000; -310.000
413.591; -259.700; -757.000; -474.000
413.717; -145.700; -358.000; -366.000
413.843; -317.100; -839.000; -861.000
413.969; -134.900;  -47.000; -292.000
414.096; -270.200; -679.000; -679.000
414.222;  -32.700;  -33.000;   85.000
414.348; -222.800; -652.000; -385.000
414.474;  -24.800;   38.000;  -52.000
414.600;  -64.000; -126.000; -144.000
414.726;  -80.600;  -96.000;  -55.000
414.852; -172.300; -365.000; -342.000
414.978;   -4.300;  104.000;  -18.000
415.104;  -29.500;   38.000;   80.000
415.230; -139.600; -329.000; -330.000
415.356; -193.400; -409.000; -514.000
415.482;  -49.200;   13.000;  -35.000
415.608; -119.700; -247.000; -323.000
415.734;  -23.500;   67.000;   38.000
415.860; -284.900; -875.000; -767.000
415.986; -231.900; -685.000; -607.000
416.111; -287.400; -798.000; -652.000
416.237; -174.500; -424.000; -571.000
416.363; -270.200; -765.000; -733.000
416.489; -127.100; -324.000; -251.000
416.615; -262.600; -707.000; -742.000
416.741; -251.300; -677.000; -784.000
416.866; -276.600; -673.000; -736.000
416.992; -258.700; -801.000; -818.000
417.118; -109.200;  -41.000;  -80.000
417.244; -243.300; -798.000; -531.000
417.369; -263.400; -801.000; -612.000
417.495; -115.500; -325.000; -254.000
417.621; -323.000;-1015.000; -803.000
417.746; -198.200; -579.000; -572.000
417.872;  -93.400; -254.000; -144.000
417.998; -178.000; -515.000; -530.000
418.123; -349.000;-1073.000; -845.000
418.249; -155.400; -512.000; -601.000
418.374; -312.400; -916.000; -824.000
418.500; -154.000; -383.000; -482.000
418.626;  -51.200;   70.000;  -59.000
418.751; -196.700; -549.000; -448.000
418.877; -251.800; -637.000; -643.000
419.002; -146.100; -688.000; -560.000
419.128; -294.400; -930.000; -721.000
419.253; -286.200; -967.000; -837.000
419.379; -228.200; -391.000; -338.000
419.504;   56.200;  325.000;  415.000
419.629; -148.800; -393.000; -212.000
419.755;  -72.800; -317.000; -254.000
419.880; -135.800;  -98.000;   67.000
420.006; -128.200; -280.000; -221.000
420.131; -275.200; -662.000; -775.000
420.256; -153.000; -315.000; -316.000
420.382; -236.000; -665.000; -687.000
420.507; -236.500; -649.000; -778.000
420.632; -188.600; -337.000; -339.000
420.758;  -96.900; -251.000; -425.000
420.883; -241.900; -876.000; -672.000
421.008; -250.500; -775.000; -619.000
421.133; -192.500; -509.000; -467.000
421.259; -115.500; -325.000; -259.000
421.384; -289.100; -834.000; -693.000
421.509; -301.800;-1052.000; -862.000
421.634; -317.700; -936.000; -820.000
421.759; -161.000; -359.000; -327.000
421.885; -257.200; -717.000; -656.000
422.010; -200.500; -673.000; -542.000
422.135; -315.600; -695.000; -727.000
422.260;   53.700;  340.000;  280.000
422.385;  -78.900;   12.000;  -98.000
422.510;  -20.300;  151.000;  -26.000
422.635;  -72.300;  -87.000;  -43.000
422.760; -231.700; -766.000; -791.000
422.885;  -76.300;  -57.000;  -80.000
423.010;  -81.700; -112.000; -169.000
423.135; -198.100; -481.000; -561.000
423.260; -110.600; -150.000; -245.000
423.385;   54.100;  476.000;  222.000
423.510;    2.600;   71.000;  -22.000
423.635;  -55.900;  133.000;   45.000
423.760;   52.400;  383.000;  328.000
423.885;   35.700;  336.000;  391.000
424.010;  -50.500;  -68.000;  -13.000
424.135;  -72.900;    5.000;  -33.000
424.259; -189.200; -654.000; -457.000
424.384; -168.500; -279.000; -272.000
424.509; -119.600; -260.000; -186.000
424.634; -269.300; -761.000; -623.000
424.759; -208.500; -688.000; -544.000
424.883; -193.100; -506.000; -527.000
425.008; -229.000; -502.000; -410.000
425.133; -279.300; -679.000; -653.000
425.258; -162.600; -517.000; -381.000
425.382; -247.700; -867.000; -774.000
425.507; -194.700; -487.000; -543.000
425.632; -295.100; -802.000; -663.000
425.756; -117.100; -256.000; -146.000
425.881; -282.300; -831.000; -857.000
426.006; -190.800; -604.000; -355.000
426.130; -257.900; -696.000; -508.000
426.255; -198.600; -611.000; -491.000
426.379; -101.000; -189.000; -577.000
426.504;  141.200;  660.000;  544.000
426.629; -236.600; -519.000; -466.000
426.753;  -24.100;   64.000;  -46.000
426.878; -144.400; -252.000; -288.000
427.002; -281.800; -651.000; -668.000
427.127; -134.100;  -35.000; -158.000
427.251;   38.800;  372.000;  401.000
427.375; -139.400; -191.000; -173.000
427.500; -246.900; -616.000; -610.000
427.624; -152.600; -234.000; -400.000
427.749; -112.600; -216.000; -225.000
427.873; -203.700; -499.000; -412.000
427.997;  -90.600; -222.000; -230.000
428.122;  146.800;  795.000;  703.000
428.246;   70.700;  433.000;  434.000
428.371; -306.200; -869.000; -773.000
428.495; -236.500; -624.000; -646.000
428.619; -109.700; -186.000; -117.000
428.743;  -23.600;   65.000;  132.000
428.868; -258.900; -732.000; -643.000
428.992; -116.800; -219.000; -326.000
429.116; -219.900; -329.000; -357.000
429.240;   58.600;  419.000;  426.000
429.365; -208.700; -454.000; -574.000
429.489; -233.600; -638.000; -647.000
429.613; -110.100; -236.000; -177.000
429.737; -173.900; -563.000; -432.000
429.861; -140.100; -247.000; -133.000
429.985; -162.900; -425.000; -305.000
430.109; -347.300; -770.000; -908.000
430.234;    0.300;   76.000;  -50.000
430.358; -149.100; -250.000; -160.000
430.482; -256.300; -672.000; -564.000
430.606; -232.300; -655.000; -375.000
430.730; -207.700; -437.000; -388.000
430.854; -313.100; -909.000; -835.000
430.978; -281.900; -795.000; -764.000
431.102; -210.700; -499.000; -422.000
431.226; -295.200; -874.000; -815.000
431.350;   56.300;  345.000;  422.000
431.474; -192.500; -661.000; -373.000
431.597; -354.100;-1060.000; -848.000
431.721; -136.800; -276.000; -267.000
431.845; -249.200; -704.000; -472.000
431.969; -136.400; -304.000; -349.000
432.093; -167.200; -395.000; -317.000
432.217;  -18.200;   32.000;   82.000
432.341; -201.200; -523.000; -518.000
432.464;  -43.500;   96.000;   40.000
432.588; -203.000; -401.000; -329.000
432.712;  -94.700;  -52.000;  -52.000
432.836;   -4.100;  213.000;  263.000
432.959; -158.900; -372.000; -311.000
433.083;  -63.500;   11.000;    2.000
433.207;  102.100;  285.000;  930.000
433.330; -144.300; -391.000; -200.000
433.454; -215.500; -654.000; -638.000
433.578;   59.100;  583.000;  278.000
433.701; -234.100; -623.000; -675.000
433.825; -195.100; -292.000; -299.000
433.949;  -35.400;   28.000;  -72.000
434.072; -169.300; -410.000; -323.000
434.196;  -91.300; -309.000; -117.000
434.319; 8060.600;25482.000;25124.000
434.443; -226.000; -656.000; -603.000
434.566;  -23.200;  281.000;   62.000
434.690; -212.400; -637.000; -383.000
434.813; -139.900; -251.000; -173.000
434.937; -212.300; -569.000; -696.000
435.060; -178.100; -423.000; -332.000
435.184; -140.200; -492.000; -217.000
435.307;  -43.700;  159.000;  102.000
435.431;  -16.400;  -40.000;   24.000
435.554; -153.300; -399.000; -240.000
435.677; -178.600; -350.000; -258.000
435.801;  -78.700;  -25.000;   49.000
435.924;  -66.300;    1.000;  -67.000
436.048; -342.900;-1019.000; -732.000
436.171; -136.100; -240.000;  -66.000
436.294; -151.900; -248.000; -229.000
436.417; -327.300; -963.000; -849.000
436.541; -308.300; -814.000; -840.000
436.664;  -83.000; -242.000; -316.000
436.787;  -45.900;   13.000;  113.000
436.910; -238.900; -792.000; -422.000
437.034;  -26.300;  142.000;  143.000
437.157;  -22.400;  -11.000;    0.000
437.280; -199.200; -392.000; -292.000
437.403; -287.100; -982.000; -869.000
437.526; -347.400; -903.000; -865.000
437.649; -160.600; -505.000; -332.000
437.772; -241.000; -692.000; -540.000
437.896;  107.000;  700.000;  544.000
438.019; -273.500; -758.000; -503.000
438.142; -220.600; -596.000; -506.000
438.265; -260.400; -639.000; -670.000
438.388; -170.800; -520.000; -410.000
438.511; -221.400; -597.000; -394.000
438.634; -134.900; -247.000; -125.000
438.757; -292.600; -693.000; -619.000
438.880;  -48.900;  -34.000;  -57.000
439.003; -177.300; -417.000; -437.000
439.126;  -77.700; -287.000; -167.000
439.248;  -98.700;  -98.000; -139.000
439.371;  -44.400;    9.000;  -53.000
439.494;  108.700;  510.000;  439.000
439.617;  -38.300;   65.000;  -88.000
439.740; -353.800; -968.000; -816.000
439.863; -261.800; -755.000; -595.000
439.986; -234.200; -476.000; -431.000
440.108; -120.100; -161.000; -112.000
440.231; -362.500; -950.000; -836.000
440.354;  -94.700;  -64.000; -150.000
440.477; -237.200; -566.000; -542.000
440.599; -196.500; -200.000; -225.000
440.722; -247.400; -709.000; -586.000
440.845;  170.900;  751.000;  928.000
440.968; -208.700; -415.000; -311.000
441.090; -104.000; -199.000;  -33.000
441.213; -337.500;-1021.000; -825.000
441.336;  -71.200; -159.000;   -5.000
441.458; -193.300; -549.000; -396.000
441.581; -225.600; -628.000; -629.000
441.703; -121.900; -152.000;   13.000
441.826; -208.600; -557.000; -400.000
441.948;  -62.500;   56.000;   51.000
442.071;   92.800;  555.000;  424.000
442.193; -239.300; -531.000; -485.000
442.316;    0.700;  152.000;   97.000
442.438; -138.500; -233.000;  -10.000
442.561;    6.400;  272.000;  262.000
442.683; -292.200; -809.000; -522.000
442.806;  -90.800;   -8.000;   74.000
442.928; -324.200; -859.000; -604.000
443.051; -219.200; -577.000; -373.000
443.173; -181.800; -341.000; -339.000
443.295; -163.100; -263.000; -371.000
443.418; -131.000; -321.000;  -29.000
443.540;  -61.600; -106.000;   -4.000
443.662; -264.300; -563.000; -465.000
443.785;    4.700;  335.000;  199.000
443.907; -239.300; -362.000; -208.000
444.029; -216.600; -767.000; -494.000
444.152; -294.400; -644.000; -554.000
444.274;  -81.200;  -18.000;  -24.000
444.396; -208.400; -461.000; -221.000
444.518; -239.800; -691.000; -454.000
444.640; -196.800; -268.000; -111.000
444.763;    0.200;  388.000;  249.000
444.885; -225.600; -432.000; -392.000
445.007;  -42.700;   35.000;   86.000
445.129; -222.600; -610.000; -515.000
445.251; -198.000; -372.000; -439.000
445.373; -274.400; -537.000; -386.000
445.495;    1.200;  242.000;  350.000
445.617;  112.500;  853.000;  753.000
445.739; -172.300; -215.000;  -97.000
445.861; -127.900; -245.000; -112.000
445.984; -141.000; -267.000; -101.000
446.105; -181.700; -418.000; -251.000
446.227;  -73.900; -176.000;  -19.000
446.349; -236.300; -358.000; -249.000
446.471; -255.600; -615.000; -448.000
446.593; -180.200; -316.000;   19.000
446.715;  -83.600;  -67.000;   41.000
446.837;  158.200;  697.000;  832.000
446.959; -197.400; -457.000; -478.000
447.081; -261.500; -628.000; -518.000
447.203;  134.100;  862.000;  834.000
447.325; -159.300; -270.000;   42.000
447.446;    1.700;  286.000;  530.000
447.568; -346.500; -921.000; -803.000
447.690; -204.400; -236.000; -245.000
447.812; -298.300; -798.000; -519.000
447.933;  -43.900;  155.000;  127.000
448.055; -148.600; -306.000; -261.000
448.177;  -76.500;   31.000;   79.000
448.299; -375.000; -935.000; -727.000
448.420;  -36.400;  -25.000;  159.000
448.542;  -84.400;   -3.000;   33.000
448.664;  -13.000;  109.000;  322.000
448.785;  -39.300;  265.000;   83.000
448.907; -221.100; -614.000; -353.000
449.028; -291.800; -771.000; -471.000
449.150;   69.600;  492.000;  589.000
449.272; -375.600;-1044.000; -913.000
449.393;   77.200;  612.000;  694.000
449.515; -280.100; -634.000; -581.000
449.636; -136.700; -264.000; -155.000
449.758;  104.200;  763.000;  622.000
449.879; -196.600; -498.000; -396.000
450.001; -165.800; -149.000;  -49.000
450.122;  -86.100;  -95.000;  162.000
450.244;  -35.900;   37.000;  364.000
450.365; -188.600; -495.000; -301.000
450.486;  -76.900;   80.000;  268.000
450.608;   31.700;  393.000;  326.000
450.729;    5.500;  578.000;  645.000
450.850; -251.100; -574.000; -466.000
450.972; -285.200; -552.000; -389.000
451.093;   26.900;  190.000;  588.000
451.214; -212.400; -516.000; -337.000
451.336;  160.700;  773.000;  579.000
451.457;  -16.000;  264.000;  393.000
451.578; -117.600; -118.000;  -74.000
451.699; -255.900; -546.000; -540.000
451.821; -120.000; -284.000;  -50.000
451.942;   -0.400;  278.000;  285.000
452.063;   25.700;  228.000;  419.000
452.184; -150.000;  -54.000;  -49.000
452.305;   -4.000;  103.000;  170.000
452.427; -204.900; -549.000; -301.000
452.548;  -97.200;   23.000;   79.000
452.669; -154.800; -257.000;  -89.000
452.790;  -81.000;    3.000;  -18.000
452.911;  -36.200;  195.000;  259.000
453.032; -145.500; -289.000;  -60.000
453.153; -114.300;  -29.000;   81.000
453.274;  151.700;  737.000;  868.000
453.395; -128.400;  -51.000;  175.000
453.516;  275.300; 1317.000; 1388.000
453.637; -181.200; -205.000; -150.000
453.758;  -83.100;   15.000;   69.000
453.879; -180.600; -462.000; -250.000
454.000;  180.400; 1086.000;  948.000
454.121; -262.400; -554.000; -326.000
454.242; -227.900; -599.000; -383.000
454.362;  -87.500;  -99.000;  114.000
454.483; -159.700; -309.000; -229.000
454.604;    3.900;  512.000;  580.000
454.725; -262.300; -627.000; -555.000
454.846; -245.100; -474.000; -406.000
454.967;   -2.100;  230.000;  539.000
455.087;  -48.300;  179.000;  153.000
455.208;   82.900;  554.000;  856.000
455.329;  -93.500;  -22.000;   82.000
455.450;   52.200;  473.000;  633.000
455.570; -166.300; -234.000; -211.000
455.691;  -92.000;  201.000;  407.000
455.812; -199.400; -270.000;  -92.000
455.932;  -47.600;  107.000;  -97.000
456.053; -154.600;   36.000;   24.000
456.173; -171.500; -433.000; -355.000
456.294; -229.000; -476.000; -303.000
456.415;  -99.400;  -73.000;   70.000
456.535;  -33.000;  297.000;  273.000
456.656;  -34.900;  132.000;  240.000
456.776;  -69.600;    3.000;  298.000
456.897;   10.400;  308.000;  513.000
457.017; -128.400; -153.000;   -3.000
457.138; -215.200; -402.000; -249.000
457.258;  -63.700;  263.000;  224.000
457.379;   42.500;  509.000;  521.000
457.499;   -0.100;  443.000;  432.000
457.620; -213.900; -407.000; -231.000
457.740; -179.300; -132.000;  -11.000
457.860;  -86.700;   87.000;   44.000
457.981; -152.500;  132.000;  124.000
458.101; -135.000;  -89.000;   40.000
458.221;   11.500;  336.000;  402.000
458.342;  -94.200;   -4.000;  -37.000
458.462;   -0.900;  617.000;  352.000
458.582; -148.200; -302.000; -294.000
458.703;  -79.900;  303.000;  154.000
458.823;  -85.600;   22.000;  163.000
458.943;  -57.900;  341.000;  467.000
459.063;  -46.700; 1124.000;  192.000
459.183;  -93.200;  328.000;  313.000
459.304;    7.400;  315.000;  517.000
459.424; -196.300; -246.000;  -89.000
459.544;   19.100;  388.000;  764.000
459.664;   17.800;  499.000;  506.000
459.784;  185.300; 1004.000; 1175.000
459.904;   93.600;  867.000;  744.000
460.024;  138.400;  867.000;  684.000
460.144;    3.400;  449.000;  554.000
460.264;   25.900;  515.000;  327.000
460.385; -149.300; -145.000; -119.000
460.505;  123.100;  905.000;  858.000
460.625; -177.700;  -17.000;  -68.000
460.745;   13.400;  396.000;  541.000
460.864; -111.300;  153.000;  469.000
460.984;   33.800;  499.000;  573.000
461.104;  313.600; 1656.000; 1775.000
461.224;   97.200;  657.000;  650.000
461.344;  -52.200;  431.000;  360.000
461.464;  -62.400;  258.000;  513.000
461.584;  -49.400;  283.000;  466.000
461.704; -102.900;   58.000;  108.000
461.824;  -71.900;  238.000;  259.000
461.943;  -76.600;  191.000;  130.000
462.063; -122.500;    2.000;  324.000
462.183;   40.600;  639.000;  717.000
462.303;  236.900; 1678.000; 1230.000
462.422;  111.500;  781.000;  840.000
462.542;  -75.400;  271.000;  391.000
462.662;  -16.300;  353.000;  380.000
462.782;   25.000;  833.000;  572.000
462.901;   46.600;  545.000;  717.000
463.021;  322.200; 1702.000; 1638.000
463.141;  -18.400;  337.000;  770.000
463.260;    4.900;  614.000;  474.000
463.380;  100.600;  902.000;  884.000
463.499;  -46.300;  342.000;  332.000
463.619;  -15.000;  581.000;  559.000
463.738;  285.300; 1644.000;  903.000
463.858;   85.200;  657.000;  811.000
463.978;  -42.700;  542.000;  396.000
464.097;  129.100;  921.000; 1114.000
464.217;  168.100; 1196.000; 1143.000
464.336;  206.400; 1068.000; 1130.000
464.455;  -48.400;  328.000;  659.000
464.575;   39.100;  597.000;  602.000
464.694;  145.700; 1204.000; 1179.000
464.814;  131.200; 1190.000; 1138.000
464.933;  130.400; 1095.000; 1027.000
465.052;  183.700; 1412.000; 1054.000
465.172;   48.300;  922.000;  799.000
465.291;  234.900; 1376.000; 1320.000
465.410;   13.600;  462.000;  735.000
465.530;  214.300; 1355.000; 1310.000
465.649;  150.200; 1209.000; 1273.000
465.768;  290.500; 1673.000; 1508.000
465.888;  110.800;  941.000; 1174.000
466.007;  246.500; 1335.000; 1440.000
466.126;   28.800;  721.000;  641.000
466.245;  124.400; 1176.000; 1187.000
466.364;   62.000;  950.000; 1060.000
466.484;  162.000; 1024.000; 1213.000
466.603;   85.400; 1101.000; 1222.000
466.722;  272.300; 1490.000; 1769.000
466.841;  174.400; 1151.000; 1401.000
466.960;   93.800; 1069.000;  972.000
467.079;  344.200; 1971.000; 1786.000
467.198;  132.500; 1238.000; 1181.000
467.317;  229.600; 1768.000; 1162.000
467.436;  195.100; 1709.000; 1261.000
467.555;  318.800; 1796.000; 1746.000
467.674;  174.900; 1227.000; 1329.000
467.793;  125.800; 1376.000; 1374.000
467.912;  223.800; 1658.000; 1539.000
468.031;  292.400; 2038.000; 1930.000
468.150;  324.700; 1842.000; 1837.000
468.269;  413.600; 2313.000; 2090.000
468.388;  443.000; 2168.000; 2339.000
468.507;  565.600; 2884.000; 2903.000
468.626;  641.600; 2555.000; 2541.000
468.744;  330.400; 2018.000; 2174.000
468.863;  438.900; 2312.000; 2523.000
468.982;  204.800; 1503.000; 1555.000
469.101;  537.100; 2788.000; 2692.000
469.220;  352.700; 2333.000; 2176.000
469.338;  541.800; 2935.000; 3051.000
469.457;  423.900; 2719.000; 2545.000
469.576;  770.100; 3953.000; 3784.000
469.695;  488.000; 2877.000; 3066.000
469.813;  851.800; 4148.000; 4192.000
469.932;  836.500; 4255.000; 4485.000
470.051;  826.200; 4075.000; 4161.000
470.169;  791.400; 4470.000; 4338.000
470.288;  936.000; 4700.000; 4809.000
470.406; 1008.600; 5059.000; 5194.000
470.525; 1257.900; 6101.000; 5787.000
470.644; 1281.800; 6847.000; 6794.000
470.762; 1674.400; 8397.000; 7873.000
470.881; 1853.900; 8651.000; 8464.000
470.999; 2012.900; 9685.000; 9151.000
471.118; 2302.800;11174.000;10711.000

