
Integration time [ms]: 100.000
Averaging Nr. [scans]: 40
Smoothing Nr. [pixels]: 0
Data measured with spectrometer [name]: 2101012U2
Wave   ;Sample   ;Dark     ;Reference
[nm]   ;[counts] ;[counts] ;[counts] 

197.733;   64.750;  516.000;  404.000
197.879;  -78.475; -610.000; -634.000
198.025;  -56.700; -475.000; -420.000
198.171;  -74.700; -602.000; -612.000
198.317;  -50.425; -401.000; -316.000
198.463;  -66.800; -655.000; -404.000
198.609;   40.275;  181.000; -137.000
198.755;  -85.375; -644.000; -410.000
198.901;  -68.875; -505.000; -424.000
199.047;  -62.200; -615.000; -488.000
199.193;  -43.075; -230.000; -468.000
199.339;  -26.825; -222.000; -369.000
199.485;   43.350;  330.000;  271.000
199.631;   17.550;  227.000;  310.000
199.777;  -43.625; -466.000; -398.000
199.923;  -61.550; -610.000; -424.000
200.069;    0.075; -141.000;  -58.000
200.215;   49.950;  128.000;  453.000
200.361;   34.900;  243.000;  477.000
200.507;  -65.850; -600.000; -373.000
200.653;  -25.075; -371.000; -194.000
200.798;  -36.825; -215.000; -125.000
200.944;    2.725; -146.000;  -41.000
201.090;   36.525;   61.000;  222.000
201.236;   -6.550; -116.000; -158.000
201.382;  135.600;  874.000;  903.000
201.528;  -11.575;  -58.000;  -48.000
201.674;  -52.000; -386.000; -293.000
201.819;  -61.500; -540.000; -439.000
201.965;  -81.450; -699.000; -447.000
202.111;  -19.350; -273.000; -226.000
202.257;  -44.375; -250.000; -238.000
202.402;    9.925;   13.000;  -36.000
202.548;  -35.750; -169.000; -116.000
202.694;   80.975;  410.000; -183.000
202.840;  -58.325; -603.000; -531.000
202.985;  -83.975; -681.000; -639.000
203.131; -102.450; -832.000; -666.000
203.277;  -32.300; -199.000; -262.000
203.423;  -63.825; -434.000; -520.000
203.568;  -38.075; -462.000; -237.000
203.714;  -67.675; -535.000; -542.000
203.860;  -86.800; -682.000; -641.000
204.005;   17.075;  112.000;  167.000
204.151;   82.000;  561.000;  556.000
204.296;  -45.000; -354.000; -221.000
204.442;  -74.150; -600.000; -547.000
204.588;  -83.375; -592.000; -579.000
204.733;   18.625;  178.000;  168.000
204.879; -123.050;-1018.000; -822.000
205.025;    4.775;  -99.000;  126.000
205.170;   -0.325;  -17.000;   94.000
205.316;   77.875;  438.000;  661.000
205.461;  -79.025; -698.000; -554.000
205.607;   82.000;  609.000;  665.000
205.752;  -90.650; -626.000; -551.000
205.898;  -48.525; -501.000; -391.000
206.043;  -65.700; -578.000; -506.000
206.189;  -44.950; -243.000; -285.000
206.334;   82.525;  554.000;  606.000
206.480;   76.700;  409.000;  239.000
206.625;  -77.600; -529.000; -552.000
206.771;  -54.850; -451.000; -373.000
206.916;  -27.275; -210.000; -537.000
207.062;  -79.100; -545.000; -591.000
207.207;  -55.650; -546.000; -443.000
207.353;   58.700;  185.000;  460.000
207.498;   21.750;  196.000;   85.000
207.643;  -45.400; -501.000; -370.000
207.789; -138.275;-1069.000; -910.000
207.934; -107.550; -665.000; -713.000
208.080;  -23.400; -154.000;   66.000
208.225;   11.075;  -22.000;  -57.000
208.370;  -83.550; -727.000; -619.000
208.516;  -79.300; -741.000; -487.000
208.661;  -29.300; -127.000;  -69.000
208.806;  -22.450; -165.000; -171.000
208.952; -118.875;-1044.000; -731.000
209.097;   78.475;  378.000;  349.000
209.242;  -41.100; -307.000; -382.000
209.387;   51.575;  392.000;  350.000
209.533;  -46.400; -321.000; -350.000
209.678;   68.975;  472.000;  543.000
209.823;  -56.250; -408.000; -310.000
209.969; -106.550; -860.000; -757.000
210.114; -102.775; -907.000; -719.000
210.259; -116.775; -939.000; -889.000
210.404;   -3.400; -171.000;  103.000
210.549;    5.400;  108.000;    3.000
210.695;  -12.500;   -3.000;  -95.000
210.840;   22.875;   94.000;   67.000
210.985;  -68.425; -484.000; -303.000
211.130;   75.375;  268.000;  406.000
211.275;   13.150;  207.000;  199.000
211.420;  -53.525; -300.000; -289.000
211.566;  -77.350; -536.000; -489.000
211.711;   39.475;  218.000;  157.000
211.856;  -70.225; -545.000; -519.000
212.001;    3.875;  151.000;   44.000
212.146;   26.225;  153.000;   49.000
212.291;  -29.400; -210.000; -186.000
212.436;  -16.550; -280.000;   -6.000
212.581;  -84.275; -685.000; -653.000
212.726;  -70.325; -487.000; -538.000
212.871;  -44.150; -552.000; -217.000
213.016; -159.825;-1172.000;-1029.000
213.161;   60.775;  406.000;  291.000
213.306;  -74.650; -435.000; -577.000
213.451; -100.200; -778.000; -689.000
213.596;  -38.300; -455.000; -347.000
213.741;  -57.000; -448.000; -538.000
213.886;  -63.225; -498.000; -517.000
214.031;  -29.700; -294.000; -124.000
214.176;  -60.675; -408.000; -341.000
214.321;  -15.550; -296.000; -157.000
214.466;  -15.825; -163.000;  -43.000
214.611;  -13.125;  -61.000;  -10.000
214.756; -121.725; -948.000; -858.000
214.901;  -30.400; -388.000; -226.000
215.046; -121.200; -797.000; -825.000
215.191;    6.550;  128.000;   35.000
215.336;  -18.850; -157.000;  -19.000
215.480;  -69.700; -684.000; -505.000
215.625;  -12.675; -175.000;  -19.000
215.770;  -82.625; -757.000; -662.000
215.915;  -10.625;   -5.000;  -97.000
216.060;   -6.575; -113.000;  -21.000
216.205; -116.950; -731.000; -779.000
216.349;  -60.375; -470.000; -533.000
216.494; -145.600; -939.000; -867.000
216.639; -115.950; -823.000; -888.000
216.784;  -80.175; -577.000; -525.000
216.929;   51.275;  392.000;  281.000
217.073;   -4.425; -244.000;  -31.000
217.218;   12.575;   78.000;  -47.000
217.363;  -86.975; -656.000; -618.000
217.507;  -76.500; -623.000; -588.000
217.652; -129.925; -845.000; -874.000
217.797;  -81.375; -708.000; -659.000
217.942; -120.025; -856.000; -720.000
218.086;   78.000;  608.000;  539.000
218.231;  -18.625; -174.000;  -26.000
218.376;  -48.950; -337.000; -229.000
218.520;    9.550;  -41.000;   96.000
218.665;  -34.425; -338.000; -204.000
218.810;  -42.025; -275.000; -233.000
218.954;   12.500;  201.000;   35.000
219.099; -100.125; -713.000; -963.000
219.243;  -79.475; -589.000; -554.000
219.388;  -39.925; -264.000; -136.000
219.532;  -18.875; -116.000; -116.000
219.677;  -84.125; -564.000; -521.000
219.822;    2.675;   33.000;   89.000
219.966;    2.200;   17.000;  -99.000
220.111;  -36.000; -328.000;  -40.000
220.255;  -96.775; -797.000; -750.000
220.400;  -35.425; -180.000; -146.000
220.544;  -70.900; -516.000; -450.000
220.689;  -51.750; -422.000; -451.000
220.833;  -23.500; -123.000;  -58.000
220.978;  -28.875; -393.000; -563.000
221.122;   13.525;  319.000;  307.000
221.267; -116.900; -906.000; -837.000
221.411;  -63.800; -478.000; -394.000
221.555;  -18.100; -104.000;  -23.000
221.700;  -55.600; -329.000; -222.000
221.844;   27.675;  255.000;  272.000
221.989;  -46.675; -328.000; -311.000
222.133;  -36.925; -289.000; -307.000
222.277;   -2.500;    5.000;   78.000
222.422;   19.575;  227.000;  113.000
222.566;  -30.925; -381.000; -214.000
222.711;  -49.975; -414.000; -479.000
222.855;  -78.250; -643.000; -586.000
222.999;  -76.125; -642.000; -717.000
223.144;  -22.225; -195.000; -194.000
223.288;   51.300;  423.000;  251.000
223.432;   25.600;  184.000;  230.000
223.576;   16.700;  152.000;  -21.000
223.721;   43.350;  364.000;  273.000
223.865;  -59.850; -472.000; -475.000
224.009;  263.375; 1673.000; 1631.000
224.153;  -90.100; -660.000; -671.000
224.298;  -76.225; -531.000; -489.000
224.442;  -15.525;  -74.000;  -33.000
224.586;  -13.225; -169.000; -106.000
224.730; -102.550; -858.000; -670.000
224.875; -117.800; -739.000; -688.000
225.019;   15.250;  102.000;  188.000
225.163;   46.275;  208.000;  341.000
225.307;   13.900;   97.000;  -91.000
225.451;   46.225;  360.000;  481.000
225.595;   37.525;  264.000;  176.000
225.739;  -20.350; -170.000;  -94.000
225.884;    5.850;   86.000;    5.000
226.028;  -88.275; -760.000; -626.000
226.172;  -40.325; -260.000; -273.000
226.316; -122.650; -941.000; -902.000
226.460;  -75.525; -645.000; -493.000
226.604;  -59.025; -406.000; -400.000
226.748; -112.000; -836.000; -733.000
226.892;  -27.450; -227.000; -181.000
227.036;  -49.825; -537.000; -447.000
227.180;  -56.825; -551.000; -375.000
227.324;  -58.325; -561.000; -580.000
227.468; -100.575; -819.000; -717.000
227.612;    1.225;  242.000;  -28.000
227.756;  -90.475; -845.000; -698.000
227.900;   51.900;  342.000;  441.000
228.044;  -55.175; -509.000; -290.000
228.188;   69.650;  448.000;  568.000
228.332;  -89.725; -546.000; -472.000
228.476;  -27.125; -223.000; -149.000
228.620;  -27.175; -210.000; -150.000
228.764;   64.575;  431.000;  349.000
228.908;  -15.400; -155.000;   30.000
229.052;  -62.250; -615.000; -528.000
229.195;  -16.500; -172.000;   13.000
229.339;  -36.900; -235.000; -305.000
229.483;  -26.550;    5.000; -162.000
229.627;  -10.425; -156.000;  139.000
229.771;  -35.250; -218.000; -294.000
229.915;    6.575;  230.000;   79.000
230.059;  -86.525; -648.000; -663.000
230.202;  -39.225; -370.000; -317.000
230.346;   -9.925; -107.000;  107.000
230.490;  -67.550; -489.000; -521.000
230.634; -110.400; -736.000; -553.000
230.777;   76.675;  478.000;  509.000
230.921;  -61.950; -450.000; -359.000
231.065;  -49.600; -246.000; -286.000
231.209;   27.600;  261.000;  265.000
231.352;   15.900;   54.000;   40.000
231.496;   14.375;  568.000;  188.000
231.640;  -81.025; -693.000; -621.000
231.783;   64.875;  546.000;  525.000
231.927;  -51.575; -294.000; -365.000
232.071; -124.325; -962.000; -736.000
232.214; -109.600; -980.000; -764.000
232.358;  -93.325; -683.000; -599.000
232.502;   10.325;  -19.000;    7.000
232.645; -131.750;-1090.000; -927.000
232.789;  -25.050; -257.000; -218.000
232.933;  -38.400; -407.000; -224.000
233.076; -131.500;-1038.000; -897.000
233.220;  -94.050; -752.000; -777.000
233.363;  -96.950; -669.000; -477.000
233.507;   49.950;  371.000;  129.000
233.650; -106.200; -764.000; -834.000
233.794;   48.925;  438.000;  461.000
233.938;  -74.725; -530.000; -362.000
234.081;  -16.600;  -93.000;   31.000
234.225;  -66.075; -631.000; -539.000
234.368; -112.475; -773.000; -723.000
234.512;  -45.275; -385.000; -299.000
234.655;  -92.525; -582.000; -555.000
234.798;  -61.800; -493.000; -466.000
234.942; -125.875; -884.000;-1002.000
235.085;  -81.175; -651.000; -443.000
235.229;  -72.700; -405.000; -410.000
235.372;  -48.750; -247.000; -191.000
235.516;  -56.600; -397.000; -321.000
235.659;   27.525;   92.000;  121.000
235.802;  -15.750;  -38.000;  -22.000
235.946;   26.250;  335.000;  215.000
236.089;   27.075;  126.000;  250.000
236.233;   45.225;  275.000;  298.000
236.376;  -61.200; -235.000; -378.000
236.519;  -51.025; -297.000; -319.000
236.663;  -21.100; -215.000; -117.000
236.806; -129.975;-1029.000; -999.000
236.949;   57.175;  543.000;  431.000
237.092;   58.550;  412.000;  391.000
237.236;  -89.300; -589.000; -502.000
237.379;   79.625;  352.000;  428.000
237.522; -125.650; -879.000; -768.000
237.666;  -20.500; -271.000;   18.000
237.809; -129.450; -851.000; -823.000
237.952;   47.100;  469.000;  271.000
238.095;  -68.900; -447.000; -442.000
238.238;   68.975;  688.000;  700.000
238.382;   -1.550;  166.000;  103.000
238.525;  -75.500; -598.000; -511.000
238.668; -148.075;-1060.000; -985.000
238.811;  -84.650; -638.000; -643.000
238.954;  -60.500; -483.000; -334.000
239.097;   85.075;  617.000;  664.000
239.241;   22.700;  394.000;  326.000
239.384;  -28.900; -254.000; -214.000
239.527;  -49.550; -424.000; -224.000
239.670; -144.425; -994.000;-1091.000
239.813; -102.725; -696.000; -658.000
239.956;   85.200;  579.000;  473.000
240.099;  -98.150; -778.000; -725.000
240.242;   67.425;  428.000;  432.000
240.385;   56.025;  466.000;  450.000
240.528;  -84.225; -706.000; -473.000
240.671;    4.350;  189.000;  134.000
240.814;  -51.375; -441.000; -158.000
240.957; -111.775; -767.000; -578.000
241.100;  -82.825; -779.000; -755.000
241.243; -151.950;-1234.000; -893.000
241.386;  -55.600; -508.000; -379.000
241.529;  -80.700; -735.000; -547.000
241.672;  -57.975; -566.000; -495.000
241.815; -123.050; -832.000; -808.000
241.958;  -14.375; -125.000; -182.000
242.101;  -72.450; -545.000; -390.000
242.244;  -49.325; -270.000; -325.000
242.387;  -53.800; -304.000; -246.000
242.530;   54.475;  470.000;  134.000
242.673;  -39.875; -381.000; -309.000
242.815; -123.800; -925.000; -899.000
242.958;  -54.625; -482.000; -381.000
243.101;   20.275;  132.000;  187.000
243.244;  -77.725; -564.000; -521.000
243.387;  -56.475; -313.000; -316.000
243.530;  -96.975; -657.000; -674.000
243.672;    5.100;   43.000;  -92.000
243.815;  -55.125; -355.000; -283.000
243.958;  -10.525;   98.000;  -26.000
244.101;    8.800;   59.000;  -16.000
244.243;   -7.900;  -47.000;  101.000
244.386; -119.075; -761.000; -630.000
244.529;  -29.800; -132.000; -139.000
244.672; -150.075;-1154.000; -951.000
244.814; -112.100; -621.000; -794.000
244.957;  -71.350; -380.000; -304.000
245.100;  -84.150; -489.000; -489.000
245.242;  -66.075; -387.000; -374.000
245.385;   -5.500;  -59.000;  -39.000
245.528; -130.075; -871.000; -705.000
245.670;   82.300;  612.000;  634.000
245.813;  -83.950; -599.000; -547.000
245.956;  -28.775; -324.000; -275.000
246.098;  -64.300; -508.000; -650.000
246.241;   -7.725;  194.000;   48.000
246.383;  -19.925; -119.000;  -73.000
246.526;  -91.475; -454.000; -525.000
246.669; -123.350; -889.000; -780.000
246.811;   24.700;  172.000;   -1.000
246.954;  -72.100; -512.000; -426.000
247.096;  -38.975;  -84.000;   -6.000
247.239;  -75.100; -482.000; -445.000
247.381;  -69.900; -647.000; -488.000
247.524;   77.750;  645.000;  679.000
247.666;   -4.275;   58.000;   11.000
247.809; -125.675; -887.000; -691.000
247.951;   -4.850;  -75.000;  138.000
248.094;   32.200;  432.000;  308.000
248.236; -157.950;-1262.000;-1238.000
248.378;   14.075; -356.000;  -81.000
248.521;  -23.275; -334.000; -337.000
248.663;  -48.725; -236.000; -267.000
248.806;  -23.500; -300.000; -266.000
248.948; -100.200; -886.000; -763.000
249.090;  -50.625; -428.000; -398.000
249.233;  -46.650; -344.000; -381.000
249.375;  -68.700; -474.000; -451.000
249.518;  -28.600;  -83.000; -133.000
249.660;  -26.400; -103.000;    3.000
249.802; -176.175;-1303.000;-1189.000
249.945;  -79.300; -612.000; -540.000
250.087; -136.125; -834.000; -768.000
250.229;  -38.200; -362.000; -480.000
250.371;  -80.600; -494.000; -439.000
250.514;  -54.625; -310.000; -244.000
250.656;  -62.825;   69.000;  102.000
250.798; -116.100; -849.000; -800.000
250.940;  -66.225; -322.000; -322.000
251.083;  -36.425; -335.000; -111.000
251.225;   68.525;  338.000;  310.000
251.367;  -45.250; -274.000; -373.000
251.509;  -32.775; -265.000; -210.000
251.651; -115.850; -731.000; -671.000
251.794;   47.875;  538.000;  632.000
251.936; -121.050; -821.000; -747.000
252.078;  -79.175; -540.000; -461.000
252.220;  -74.525; -645.000; -477.000
252.362;   83.400;  344.000;  462.000
252.504;  -85.475; -677.000; -584.000
252.646; -111.725; -875.000; -722.000
252.788;  -14.575;   14.000; -128.000
252.931;  -43.975; -257.000; -253.000
253.073;  -33.375; -376.000; -317.000
253.215;   -6.425;  141.000;  122.000
253.357;  -10.350;   82.000; -153.000
253.499;  -57.350; -374.000; -234.000
253.641;  -96.125; -749.000; -594.000
253.783;  -89.625; -609.000; -527.000
253.925;  -95.025; -586.000; -591.000
254.067; -118.550; -744.000; -667.000
254.209;  -32.175; -391.000; -259.000
254.351; -139.775; -865.000; -883.000
254.493;  -53.600; -441.000; -417.000
254.635; -130.700; -936.000; -818.000
254.777; -101.100; -752.000; -687.000
254.918;  -74.875; -512.000; -430.000
255.060;  -63.250; -551.000; -395.000
255.202;  -58.125; -473.000; -261.000
255.344;  -69.775; -658.000; -455.000
255.486;  -60.350; -471.000; -406.000
255.628; -109.425; -780.000; -781.000
255.770;  -82.450; -676.000; -536.000
255.912;  -80.250; -559.000; -468.000
256.053;  -91.900; -730.000; -508.000
256.195;  152.375; 1008.000;  903.000
256.337; -108.250; -861.000; -595.000
256.479;   57.000;  532.000;  416.000
256.621;  -55.875; -394.000; -212.000
256.762; -108.375; -789.000; -742.000
256.904;   64.925;  485.000;  487.000
257.046;  -42.400; -381.000; -271.000
257.188;  -41.025; -351.000; -264.000
257.329;  -71.825; -525.000; -464.000
257.471; -116.600; -939.000; -807.000
257.613;  -73.375; -584.000; -498.000
257.755; -156.425;-1073.000; -982.000
257.896;   34.250;  286.000;  392.000
258.038;  -65.725; -403.000; -352.000
258.180;  -55.175; -354.000; -279.000
258.321;  -87.425; -581.000; -457.000
258.463;   -4.375;  -71.000;  133.000
258.605;  -86.400; -562.000; -570.000
258.746; -108.975; -886.000; -772.000
258.888; -148.225;-1026.000;-1020.000
259.029;   25.275;  121.000;   -8.000
259.171; -101.075; -614.000; -550.000
259.313;   -9.750;  -49.000;  -47.000
259.454;  -73.300; -536.000; -414.000
259.596;  -56.775; -483.000; -390.000
259.737;  -77.950; -590.000; -474.000
259.879;   48.450;  217.000;  311.000
260.020;   90.675;  901.000;  636.000
260.162;  -31.000; -146.000; -253.000
260.303; -128.850; -768.000; -687.000
260.445;  -92.025; -609.000; -613.000
260.586;   29.100;  392.000;  157.000
260.728;  -45.875; -360.000; -248.000
260.869; -112.350; -350.000; -343.000
261.011;   77.675;  706.000;  537.000
261.152;  -67.500; -479.000; -319.000
261.293;  -87.325; -576.000; -595.000
261.435;  -40.625; -219.000; -184.000
261.576;  -32.025; -455.000; -325.000
261.718;   46.275;  420.000;  470.000
261.859; -128.525; -940.000; -949.000
262.000; -132.300; -951.000;-1016.000
262.142;  -31.050;  -52.000;  -60.000
262.283; -108.650; -808.000; -691.000
262.424;  -85.350; -666.000; -625.000
262.566; -159.175;-1161.000; -983.000
262.707; -137.625; -840.000; -830.000
262.848; -114.600; -769.000; -726.000
262.990;  -56.075; -362.000; -345.000
263.131;   88.500;  650.000;  681.000
263.272;  -11.325;  -61.000;  -41.000
263.413;  -92.450; -589.000; -561.000
263.555;  -67.975; -669.000; -143.000
263.696;  -79.750; -550.000; -641.000
263.837;  -67.950; -449.000; -551.000
263.978;   -1.325;   -5.000;  -77.000
264.119;  -61.700; -283.000; -264.000
264.261; -106.225; -847.000; -630.000
264.402;   -5.650;   33.000;   40.000
264.543;  -78.200; -509.000; -524.000
264.684;   -5.450;   61.000;  -50.000
264.825;  -72.650; -816.000; -538.000
264.966;  -10.325;  -84.000;  -67.000
265.107; -107.625; -646.000; -670.000
265.248; -123.800; -825.000; -812.000
265.390;   -9.475;  152.000;   -9.000
265.531;  -26.825; -238.000; -107.000
265.672;  -92.225; -557.000; -630.000
265.813;   58.150;  563.000;  439.000
265.954; -157.500; -959.000; -940.000
266.095;  -16.725; -372.000; -322.000
266.236;  -95.325; -686.000; -548.000
266.377;  -44.650; -243.000; -297.000
266.518;  -82.675; -619.000; -547.000
266.659;   30.000;  170.000;  268.000
266.800;    6.175;   83.000;   85.000
266.941;  -84.475; -487.000; -478.000
267.082;   32.450;  354.000;   99.000
267.223;  -51.875; -344.000; -273.000
267.364; -120.975; -892.000; -686.000
267.504;  -15.600;    3.000;  135.000
267.645;    3.100;  160.000;   67.000
267.786;  -42.750; -147.000;  -86.000
267.927;  -77.050; -473.000; -379.000
268.068;  -21.400; -186.000;  -61.000
268.209;  -44.825; -175.000; -413.000
268.350;  -59.525; -388.000; -532.000
268.490;  -83.600; -648.000; -521.000
268.631;   28.725;  127.000;  225.000
268.772; -107.625; -874.000; -647.000
268.913;  -46.300; -328.000; -476.000
269.054;  -14.925; -117.000;   12.000
269.194;  -46.325; -418.000; -402.000
269.335; -146.125;-1137.000;-1074.000
269.476;  -19.175;   33.000;  -35.000
269.617;  -44.200; -347.000; -392.000
269.757;  -84.600; -713.000; -646.000
269.898; -108.725; -856.000; -613.000
270.039;  -67.225; -415.000; -405.000
270.180; -144.500; -952.000; -816.000
270.320;  -29.075; -190.000; -250.000
270.461;  -35.700; -277.000; -249.000
270.602;  -28.525; -186.000; -156.000
270.742; -128.175; -868.000; -943.000
270.883;  -60.050; -442.000; -390.000
271.023;  -49.500; -358.000; -357.000
271.164;  -79.575; -607.000; -528.000
271.305;  -96.125; -666.000; -654.000
271.445;  -96.000; -722.000; -683.000
271.586;  -67.800; -462.000; -283.000
271.726;  -52.675; -397.000; -322.000
271.867;  -61.350; -594.000; -534.000
272.008;  179.925; -473.000; -285.000
272.148;  146.050;  462.000;  468.000
272.289;   19.425; -113.000; -181.000
272.429;   25.425;   19.000;  185.000
272.570; -103.125; -633.000; -737.000
272.710;  -99.325; -825.000; -775.000
272.851;  -19.250;  113.000; -130.000
272.991; -167.200;-1173.000;-1077.000
273.131;  -62.650; -419.000; -459.000
273.272; -110.650; -683.000; -723.000
273.412;    9.825; -143.000;  -31.000
273.553;  -55.075; -488.000; -507.000
273.693;  133.900;  913.000;  858.000
273.834; -105.100; -894.000; -692.000
273.974;  -71.825; -664.000; -615.000
274.114; -117.875; -772.000; -560.000
274.255;   84.425;  414.000;  373.000
274.395;   -1.325; -180.000; -125.000
274.535;   50.075;  199.000;  350.000
274.676;   38.525;  225.000;   94.000
274.816;   -0.425;  110.000;   34.000
274.956;  -79.200; -624.000; -690.000
275.097;  -73.250;-1014.000; -922.000
275.237; -115.275; -913.000; -803.000
275.377; -103.750; -778.000; -689.000
275.517; -148.850; -878.000; -937.000
275.658;  -62.750; -590.000; -555.000
275.798;  -63.700; -606.000; -413.000
275.938;   29.350;  215.000;  323.000
276.078;  -81.775; -626.000; -395.000
276.218;    9.350;   99.000;  104.000
276.359;  -97.100;-1026.000;-1024.000
276.499;  -74.550; -605.000; -446.000
276.639;  -35.225; -305.000; -151.000
276.779;  -61.175; -475.000; -357.000
276.919; -108.825; -783.000; -624.000
277.059;   -8.025; -261.000; -212.000
277.199;  -44.525; -357.000; -259.000
277.340;   31.750;  287.000;  175.000
277.480; -111.300; -840.000; -693.000
277.620;   22.225;  192.000;   16.000
277.760; -200.450;-1533.000;-1294.000
277.900;   16.825;  113.000;   33.000
278.040;    5.375;  137.000;  159.000
278.180;   53.750;  270.000;  170.000
278.320;    3.900;   21.000;   56.000
278.460;  -77.425; -443.000; -469.000
278.600;  -95.100; -708.000; -598.000
278.740;   52.250;  448.000;  224.000
278.880;  -57.850; -768.000; -791.000
279.020;  -12.975; -194.000; -144.000
279.160;  -97.725; -672.000; -595.000
279.300; -133.925; -926.000; -873.000
279.440;  -92.950; -709.000; -622.000
279.579;  -21.950;-1014.000; -929.000
279.719;  -44.325; -410.000; -394.000
279.859;   71.450;   -4.000;   41.000
279.999;   26.475; -208.000;  101.000
280.139;  -23.825; -435.000; -387.000
280.279;  -72.350; -708.000; -745.000
280.419;  -20.900; -229.000; -147.000
280.559;  -25.625; -259.000; -180.000
280.698; -102.725; -790.000; -639.000
280.838; -100.350; -778.000; -800.000
280.978; -115.600; -846.000; -790.000
281.118; -110.250; -811.000; -704.000
281.257;    6.375;   24.000;    6.000
281.397; -115.525;-1094.000; -960.000
281.537;  -91.175; -599.000; -712.000
281.677;  -21.400; -150.000; -101.000
281.816;  -99.825; -700.000; -630.000
281.956;  -37.325; -193.000; -257.000
282.096;  -59.900; -539.000; -396.000
282.235;  -99.575; -672.000; -638.000
282.375;  -29.300; -243.000;  -98.000
282.515; -111.875; -715.000; -707.000
282.654;   24.900;   29.000;  106.000
282.794;   33.800;  388.000;  244.000
282.934;  -69.175; -530.000; -491.000
283.073; -128.025;-1030.000; -857.000
283.213;  -62.975; -460.000; -467.000
283.353;  -38.150; -408.000; -349.000
283.492;  -26.800; -264.000; -296.000
283.632;  -42.500; -254.000; -168.000
283.771; -102.800; -859.000; -730.000
283.911;  -51.300; -369.000; -260.000
284.050; -116.650; -794.000; -748.000
284.190; -159.425;-1229.000;-1096.000
284.329; -153.000;-1055.000; -964.000
284.469;  -68.125; -516.000; -591.000
284.608;  -60.050; -559.000; -598.000
284.748;  -86.775; -614.000; -570.000
284.887;   -4.425;  -87.000;  -20.000
285.027; -140.200; -844.000; -892.000
285.166;  -26.125; -192.000; -249.000
285.306;    8.050; -116.000;  -33.000
285.445;  -49.900; -229.000; -343.000
285.584; -107.175; -630.000; -494.000
285.724;  -41.050; -282.000; -322.000
285.863; -118.100; -857.000; -507.000
286.002;  -62.125; -366.000; -276.000
286.142; -111.225; -715.000; -622.000
286.281;  -85.600; -525.000; -493.000
286.420;  -76.875; -554.000; -417.000
286.560;   95.600;  653.000;  623.000
286.699; -147.325; -958.000; -912.000
286.838;  -82.875; -590.000; -591.000
286.978;  -86.850; -533.000; -537.000
287.117; -147.125;-1085.000; -950.000
287.256;  -28.325; -228.000; -211.000
287.395;  -49.375; -197.000; -378.000
287.535;  -44.925; -370.000; -298.000
287.674;  -71.550; -509.000; -484.000
287.813;   52.475;  661.000;  533.000
287.952; -142.725;-1010.000; -871.000
288.091; -151.250;-1049.000; -915.000
288.231;   11.925;   13.000;   15.000
288.370; -173.625;-1217.000;-1200.000
288.509;  -78.825; -728.000; -645.000
288.648;  -93.650; -770.000; -548.000
288.787;  -34.275; -243.000;  -87.000
288.926;  -65.400; -454.000; -475.000
289.065;  136.075;  859.000;  672.000
289.204;  -58.475; -377.000; -217.000
289.344; -104.775; -791.000; -690.000
289.483;   33.750;  416.000;  304.000
289.622;  -26.100; -291.000; -149.000
289.761;   -9.975; -309.000; -166.000
289.900; -103.675; -785.000; -626.000
290.039;  -18.800;  -12.000;  -95.000
290.178;  -42.525; -274.000; -180.000
290.317;  -69.500; -618.000; -479.000
290.456;  -66.550; -463.000; -451.000
290.595; -144.650; -961.000; -833.000
290.734; -147.450; -904.000; -891.000
290.873;  -76.150; -456.000; -420.000
291.011; -108.975; -833.000; -843.000
291.150;  -96.000; -770.000; -682.000
291.289;  -21.125; -343.000; -110.000
291.428;  -98.550; -599.000; -480.000
291.567;  -55.950; -370.000; -442.000
291.706;    6.525;  109.000;  154.000
291.845;  -86.925; -597.000; -505.000
291.984; -174.125;-1234.000;-1061.000
292.122;   68.450;  602.000;  582.000
292.261;   41.300;  620.000;  463.000
292.400;   -2.350; -144.000;  211.000
292.539; -121.225; -959.000; -813.000
292.678;  -38.300; -325.000; -300.000
292.816; -161.500;-1136.000; -965.000
292.955; -101.750; -844.000; -684.000
293.094;  -14.500; -173.000; -337.000
293.233;  -66.375; -556.000; -400.000
293.371;  -21.575; -225.000;  -84.000
293.510; -114.225; -866.000; -780.000
293.649; -119.925; -959.000; -924.000
293.787;  -67.875;-1083.000;-1012.000
293.926;  -16.050; -113.000;  -32.000
294.065;  -40.750; -379.000; -290.000
294.203;   61.350;  298.000;  406.000
294.342;   19.350;   74.000;  156.000
294.481; 6407.325;51180.000; -836.000
294.619;  -28.575; -425.000; -582.000
294.758; -151.050;-1230.000;-1137.000
294.896;   75.250; -125.000;    5.000
295.035; -136.525;-1040.000;-1006.000
295.174; -130.100;-1082.000; -954.000
295.312;  -32.625; -323.000; -203.000
295.451;   -9.550; -307.000; -428.000
295.589;  -63.725; -389.000; -518.000
295.728;    9.825; -292.000; -165.000
295.866;   10.900;  -36.000;  -51.000
296.005;  -56.250; -584.000; -341.000
296.143;  -62.200; -558.000; -596.000
296.282; -105.700; -957.000; -881.000
296.420;  -82.375; -657.000; -557.000
296.559;  -94.600; -892.000; -633.000
296.697;   12.050; -847.000; -665.000
296.835;   62.675;-1141.000;-1002.000
296.974;   41.275;  -23.000;   39.000
297.112;    1.450; -443.000; -504.000
297.251;  -79.225; -815.000; -755.000
297.389;   91.175; -576.000; -438.000
297.527;   32.725; -145.000;  -83.000
297.666;  -59.200; -486.000; -438.000
297.804;  -44.250; -404.000; -264.000
297.942;  -18.150; -136.000; -161.000
298.081;   -6.700; -183.000;   63.000
298.219;   62.275;  -17.000;  -19.000
298.357;   51.075; -144.000;  -71.000
298.495;   31.950; -810.000; -812.000
298.634;   83.425;  245.000;  219.000
298.772;   49.025; -220.000; -338.000
298.910;  -36.250; -309.000; -182.000
299.048;  -17.650; -130.000; -153.000
299.187;  -34.425; -350.000; -250.000
299.325;    5.075;   52.000;  122.000
299.463;   44.975; -389.000; -299.000
299.601;  125.575; -327.000; -271.000
299.739; -110.100; -908.000; -883.000
299.877;  -90.625; -791.000; -703.000
300.016;  -43.875;-1095.000; -935.000
300.154;  157.325;  -19.000; -161.000
300.292;   48.400; -428.000; -348.000
300.430;   23.925; -408.000; -291.000
300.568; -110.675; -940.000; -874.000
300.706;  -38.200; -366.000; -469.000
300.844;  -79.425;-1108.000; -979.000
300.982;  118.700;  246.000;  282.000
301.120; -107.150; -965.000; -866.000
301.258;  -73.650; -812.000; -705.000
301.396;   31.025;  104.000;  -41.000
301.534;   93.025; -218.000; -293.000
301.672;  -12.250; -664.000; -521.000
301.810;   28.825; -613.000; -545.000
301.948;  125.550;   53.000;  149.000
302.086;  613.400; -250.000;  -32.000
302.224;  943.600; -610.000; -585.000
302.362;   26.350; -558.000; -622.000
302.500;  -25.575; -923.000; -893.000
302.638;   98.825;  128.000;  245.000
302.776;   -7.825; -352.000; -408.000
302.913;   47.825;  447.000;  236.000
303.051;   -9.850;  -86.000;  -23.000
303.189;   51.550;   90.000;  118.000
303.327;  -27.775; -341.000; -256.000
303.465;  -89.425; -832.000; -588.000
303.603;  -98.800; -805.000; -604.000
303.740;  103.625;  417.000;  241.000
303.878;    9.050; -800.000; -759.000
304.016;  -92.050; -915.000; -790.000
304.154; -124.000;-1123.000;-1152.000
304.291;  -28.800; -505.000; -554.000
304.429;    1.975;  102.000;   74.000
304.567; -133.800; -908.000; -893.000
304.705;  -60.000; -408.000; -515.000
304.842;   94.875; -616.000; -540.000
304.980;   53.975;  215.000;   35.000
305.118;   38.425; -367.000; -365.000
305.255;  -71.475; -945.000; -927.000
305.393;   62.175;  178.000;  239.000
305.531; -115.675;-1173.000; -956.000
305.668;  -94.800; -663.000; -582.000
305.806;  105.725; -358.000; -439.000
305.943;   95.475; -629.000; -637.000
306.081;   59.925; -378.000; -267.000
306.219;  -94.550; -863.000; -748.000
306.356;    6.350;  158.000;   27.000
306.494;   96.700;  981.000;  761.000
306.631;   -4.150;  -11.000;  -55.000
306.769;    7.575; -613.000; -485.000
306.906;   -5.775; -284.000; -258.000
307.044;  -56.425; -473.000; -488.000
307.181;  -72.875; -410.000; -332.000
307.319;   15.125;  112.000;   87.000
307.456; -169.275;-1191.000;-1153.000
307.594;  -94.075; -980.000; -727.000
307.731;  -21.350; -371.000; -164.000
307.868;   -4.375;  -15.000;   20.000
308.006; -145.675; -961.000; -847.000
308.143;  -73.550; -618.000; -330.000
308.281;  107.650;  -37.000; -254.000
308.418;  -23.575; -748.000; -640.000
308.555;  -70.150; -400.000; -250.000
308.693;  -83.900; -577.000; -573.000
308.830; -110.550; -712.000; -657.000
308.967;  -22.975; -215.000;  -95.000
309.105;  -55.875; -507.000; -396.000
309.242;    9.450; -468.000; -367.000
309.379;  213.925; -577.000; -655.000
309.517;  -78.800; -936.000; -948.000
309.654; -106.700; -910.000; -734.000
309.791;  -78.800; -662.000; -580.000
309.928; -129.675; -977.000; -914.000
310.065;  193.300;  819.000;  697.000
310.203;   -2.250; -825.000; -850.000
310.340;   -8.175; -465.000; -321.000
310.477;  -77.100; -412.000; -516.000
310.614;  -82.425; -383.000; -473.000
310.751;  -82.225; -427.000; -518.000
310.889;  -27.325;    1.000;   11.000
311.026; -160.050;-1161.000; -939.000
311.163;  -56.475; -386.000; -380.000
311.300;  -76.975; -512.000; -479.000
311.437;  -71.225; -658.000; -619.000
311.574; -165.150;-1226.000; -985.000
311.711;  -58.575; -595.000; -433.000
311.848;  -38.725; -380.000; -388.000
311.985;   14.900;  270.000;   93.000
312.122; -115.575; -932.000; -762.000
312.259; -128.775; -941.000; -994.000
312.396;  -83.250; -508.000; -551.000
312.533;  -92.500; -812.000; -790.000
312.670; -135.250;-1070.000; -898.000
312.807;  -33.200; -352.000; -367.000
312.944;  -76.225; -513.000; -611.000
313.081;  -43.425; -150.000; -415.000
313.218; -107.500;-1111.000; -867.000
313.355;   -3.525; -531.000; -449.000
313.492;  -10.650; -455.000; -292.000
313.629;  137.250;  815.000;  735.000
313.766; -166.050;-1176.000;-1008.000
313.902;  -22.100; -186.000;   21.000
314.039;  -53.575; -372.000; -289.000
314.176;   31.725;  286.000;  192.000
314.313;  -84.800; -569.000; -473.000
314.450;  -73.100; -788.000; -684.000
314.587;  -70.625; -468.000; -480.000
314.723;   -1.625;  -78.000;  130.000
314.860;   48.950;  318.000;  332.000
314.997;   38.975;  223.000;  142.000
315.134;  -38.650; -385.000; -368.000
315.270;  -26.375; -480.000; -496.000
315.407; -145.600;-1094.000; -967.000
315.544;  -54.750; -657.000; -538.000
315.681;  -59.275; -681.000; -565.000
315.817;   29.775; -133.000; -176.000
315.954;   14.075; -613.000; -392.000
316.091; -124.500;-1045.000;-1023.000
316.227;  -16.450;  -71.000; -179.000
316.364;   -7.675;   23.000;    6.000
316.500;  -40.125; -113.000; -300.000
316.637;  -35.775; -181.000; -302.000
316.774;  -94.325; -625.000; -358.000
316.910;  -82.075; -598.000; -629.000
317.047;  -65.425; -487.000; -351.000
317.183;  -36.600; -435.000; -566.000
317.320;   -8.000; -367.000; -321.000
317.456;  -85.050; -733.000; -805.000
317.593;  -97.200; -598.000; -641.000
317.729;    1.350;  168.000;  -67.000
317.866; -212.350;-1434.000;-1285.000
318.002;  -94.575; -708.000; -948.000
318.139; -105.925; -883.000; -867.000
318.275; -113.550;-1003.000; -738.000
318.412;  -65.575; -517.000; -336.000
318.548;  -46.025; -751.000; -720.000
318.685; -102.200; -985.000; -888.000
318.821;  -98.550; -762.000; -735.000
318.957;  -10.575;   34.000;  -23.000
319.094;   32.250;  297.000;  154.000
319.230;  -53.625; -756.000; -742.000
319.367;  120.775; -471.000; -520.000
319.503;   39.725; -538.000; -436.000
319.639;  -88.600; -877.000; -793.000
319.775;  -66.050; -750.000; -685.000
319.912;  -53.675; -424.000; -519.000
320.048;  -92.450;-1184.000;-1184.000
320.184;   75.650;   59.000;   70.000
320.321;  -54.975; -497.000; -467.000
320.457;   67.900;  475.000;  662.000
320.593;  -79.600; -375.000; -382.000
320.729; -106.225; -732.000; -734.000
320.866;  -68.600; -577.000; -635.000
321.002;  -82.900; -759.000; -809.000
321.138;  -10.625; -135.000; -211.000
321.274;   68.375; -148.000; -115.000
321.410;  -12.450; -585.000; -353.000
321.546;  -48.125;-1011.000; -911.000
321.683;   50.600;  400.000;  185.000
321.819;   -5.600;  -48.000; -117.000
321.955; -113.800; -743.000; -722.000
322.091;  -42.425; -585.000; -540.000
322.227;   -4.225; -382.000; -202.000
322.363;  -13.875; -320.000; -215.000
322.499;  -50.075; -343.000; -331.000
322.635;  158.850;  636.000;  443.000
322.771;   21.025; -139.000;   12.000
322.907;   79.925;  129.000;  327.000
323.043;  -27.900; -115.000; -206.000
323.179;  -30.325; -394.000; -363.000
323.315;   10.400; -401.000; -371.000
323.451;   84.025; -328.000; -236.000
323.587;   62.350;  -60.000;  -77.000
323.723;   13.425; -682.000; -601.000
323.859;   -9.600; -258.000;  -76.000
323.995;  -34.975; -467.000; -409.000
324.131; -136.400; -967.000; -892.000
324.267;  -32.350; -254.000; -276.000
324.402; -116.850; -960.000; -983.000
324.538;  -18.625; -279.000; -104.000
324.674;   34.825;  164.000;   77.000
324.810;  118.025;  226.000;  308.000
324.946;   -2.525; -810.000; -658.000
325.082;  -78.900; -568.000; -475.000
325.217;   -7.525;  -62.000;   16.000
325.353; -104.650; -764.000; -659.000
325.489;  -96.000; -540.000; -506.000
325.625;  -83.050; -579.000; -525.000
325.760;   70.900;  517.000;  376.000
325.896;  -27.025; -515.000; -702.000
326.032;  -51.250; -403.000; -352.000
326.168;  -60.425; -462.000; -369.000
326.303;  -64.675; -352.000; -461.000
326.439;  -19.400; -336.000; -276.000
326.575;   -5.475; -190.000;  -29.000
326.710;  -15.400; -156.000;  -30.000
326.846;  -14.875;  146.000;  103.000
326.982;  -94.500; -530.000; -548.000
327.117;  -76.275; -481.000; -442.000
327.253;  -93.375; -745.000; -742.000
327.388; -150.875;-1137.000;-1153.000
327.524;  -65.650; -811.000; -578.000
327.659;  -32.925;  -58.000;  -22.000
327.795;  -21.500;   69.000;   45.000
327.931;  -80.450; -723.000; -499.000
328.066;  -26.550; -417.000; -276.000
328.202;  -29.450;   12.000; -129.000
328.337;  109.850;  957.000;  713.000
328.473;   46.400;  -12.000;  -74.000
328.608;  -16.650; -256.000; -267.000
328.743;  -79.400; -799.000; -664.000
328.879;   12.150;  214.000;  114.000
329.014;  -35.600; -102.000; -122.000
329.150;  -83.550; -358.000; -483.000
329.285;  -75.250; -465.000; -466.000
329.421;  -57.225; -548.000; -246.000
329.556;  -25.350;  -36.000;   85.000
329.691; -102.700; -633.000; -615.000
329.827;  -67.575; -626.000; -480.000
329.962;  -36.150;  131.000; -301.000
330.097;  -90.475; -673.000; -585.000
330.233;  -49.675; -410.000; -223.000
330.368; -120.725; -839.000; -628.000
330.503;  -20.200;    3.000;   98.000
330.638;    5.800;  -93.000; -125.000
330.774;  -55.050; -609.000; -530.000
330.909;  -34.900; -434.000; -244.000
331.044; -114.900; -714.000; -708.000
331.179; -167.550;-1217.000;-1109.000
331.315;   16.125;   77.000;   20.000
331.450;    6.550;  157.000;  285.000
331.585;  -99.375; -805.000; -706.000
331.720;  -87.250; -510.000; -460.000
331.855;  -15.425;  -35.000; -102.000
331.990;  263.000;   62.000;  138.000
332.126;  119.525; -110.000;   71.000
332.261;  -16.600; -379.000; -265.000
332.396;   -3.250; -135.000; -242.000
332.531; -110.500;-1074.000;-1031.000
332.666;   29.525; -519.000; -363.000
332.801; -104.050; -726.000; -807.000
332.936;  -28.075; -192.000; -122.000
333.071; -159.225; -870.000; -817.000
333.206;   13.825;  307.000;  379.000
333.341;   31.925;  344.000;  418.000
333.476;  -88.000; -627.000; -623.000
333.611;  -34.875; -251.000; -173.000
333.746;  -46.350; -381.000; -464.000
333.881; -119.700; -973.000; -935.000
334.016; -127.325; -936.000; -917.000
334.151; -122.900; -746.000; -702.000
334.286;   22.650;  152.000;  186.000
334.421;  -23.950; -125.000; -178.000
334.556;  -81.300; -611.000; -567.000
334.690;  -97.875; -631.000; -577.000
334.825;   57.400;  381.000;   83.000
334.960;  -53.925; -285.000; -413.000
335.095;   10.750;  135.000;  -91.000
335.230;  -97.575; -722.000; -738.000
335.365; -130.125;-1084.000; -990.000
335.499; -130.325;-1108.000;-1037.000
335.634;   16.500;    9.000;  534.000
335.769;  -99.750; -755.000; -720.000
335.904;  -67.500; -603.000; -561.000
336.038;  -50.700; -735.000; -657.000
336.173; -116.450;-1206.000;-1194.000
336.308;    2.250; -116.000; -189.000
336.443;   23.300; -544.000; -634.000
336.577;  -75.800; -936.000; -787.000
336.712;   66.200;   -4.000;  -12.000
336.847;  -41.600; -724.000; -607.000
336.981;   64.075; -272.000; -208.000
337.116;  275.450;  615.000;  501.000
337.250;  153.825; -434.000; -421.000
337.385;  261.475; -297.000; -208.000
337.520;   84.275; -632.000; -603.000
337.654;  -33.775; -215.000; -126.000
337.789; -129.425; -989.000; -933.000
337.923;  -36.325; -104.000; -205.000
338.058; -105.450; -673.000; -738.000
338.192;  -39.675; -611.000; -488.000
338.327;   -6.025;  -18.000; -155.000
338.461;  -78.075; -299.000; -469.000
338.596;  -97.900; -780.000; -638.000
338.730;  -96.825; -767.000; -803.000
338.865;   81.800;  -46.000; -140.000
338.999;  -50.050; -846.000; -702.000
339.134;  -22.775; -634.000; -536.000
339.268;   23.950; -741.000; -603.000
339.403;  355.775; -740.000; -775.000
339.537;  118.600; -894.000; -820.000
339.671; -131.675; -829.000; -813.000
339.806;  -59.450; -556.000; -512.000
339.940;   17.400; -261.000; -235.000
340.074;  -92.650; -685.000; -510.000
340.209;  -47.750; -351.000; -230.000
340.343;  -78.850; -517.000; -573.000
340.477;  153.450;  998.000; 1036.000
340.612;  -61.750;-1033.000; -900.000
340.746;  129.275; -199.000; -243.000
340.880;  -77.650; -924.000; -785.000
341.014;  -19.850;  -45.000; -154.000
341.149; -120.850; -756.000; -718.000
341.283; -116.225; -839.000; -754.000
341.417;  -88.275;-1124.000; -938.000
341.551;  122.700; -768.000; -708.000
341.685;  -33.850; -633.000; -611.000
341.820;  -66.450; -562.000; -493.000
341.954;  -58.250; -218.000; -349.000
342.088; -160.175;-1102.000;-1019.000
342.222;   52.550;  565.000;  618.000
342.356;  -66.050; -395.000; -335.000
342.490;  -96.975; -880.000; -841.000
342.624;  -48.900; -339.000; -242.000
342.758;   -2.725; -364.000; -312.000
342.892;  -69.725; -710.000; -585.000
343.026;  -38.975;  -58.000; -116.000
343.160;  -64.825; -426.000; -376.000
343.294;  -72.700; -474.000; -337.000
343.428;  -34.175; -488.000; -448.000
343.562;  -15.150; -172.000;  -23.000
343.696;  -29.600; -385.000; -314.000
343.830;  -10.500; -362.000; -356.000
343.964;   -7.875; -231.000; -168.000
344.098;  921.775;  199.000;   70.000
344.232;  774.300; -266.000; -127.000
344.366;   81.725; -567.000; -453.000
344.500;   48.875; -665.000; -744.000
344.634;   37.175; -324.000; -164.000
344.768;    4.050; -531.000; -341.000
344.902;   40.400;  278.000;  256.000
345.035;  -72.650; -556.000; -496.000
345.169; -128.800; -933.000; -656.000
345.303;  -29.025; -308.000; -482.000
345.437;  -76.800; -826.000; -717.000
345.571;  -72.375; -675.000; -594.000
345.704;  -77.925; -309.000; -532.000
345.838;  -19.125; -331.000; -284.000
345.972;  -35.425; -543.000; -495.000
346.106;  160.025; -179.000; -190.000
346.239;  413.675; -312.000; -243.000
346.373;   12.425; -343.000; -302.000
346.507; -140.275; -950.000; -962.000
346.640;  140.675;  -30.000;   13.000
346.774;  -52.225; -650.000; -797.000
346.908;  -35.550; -138.000;  -11.000
347.041;  -95.025; -646.000; -593.000
347.175;   -4.225;  259.000;   27.000
347.309;  -65.000; -698.000; -628.000
347.442; -113.375; -883.000; -732.000
347.576;  286.925;  670.000;  668.000
347.709;  197.250; -123.000;  -52.000
347.843; -102.875; -933.000; -825.000
347.976;   45.350;  235.000;  294.000
348.110; -182.400;-1268.000;-1186.000
348.243; -108.750; -679.000; -772.000
348.377;    9.450;  -26.000;   60.000
348.510;   44.200;  403.000;  540.000
348.644;  -32.350;  -37.000; -159.000
348.777;    0.050;  180.000;  191.000
348.911;  -45.250; -142.000; -112.000
349.044;  168.725;  471.000;  448.000
349.178;  145.250;-1069.000;-1006.000
349.311;  120.725;  141.000;  255.000
349.444;   -8.450; -927.000; -813.000
349.578;  -16.975; -347.000; -200.000
349.711; -112.500; -959.000; -862.000
349.845;    7.600; -661.000; -591.000
349.978; -144.650;-1224.000;-1137.000
350.111;  -96.025; -546.000; -612.000
350.244;  -85.750; -596.000; -700.000
350.378;    6.475; -392.000; -393.000
350.511;  -84.000; -393.000; -426.000
350.644; -112.025; -808.000; -806.000
350.778;   26.200;  168.000;  104.000
350.911;   18.800;  134.000;  140.000
351.044;  -97.300; -685.000; -615.000
351.177;  -35.350; -321.000; -281.000
351.310;  -12.500;    3.000; -131.000
351.444;  -99.175; -888.000; -788.000
351.577;  115.750;  140.000;   90.000
351.710;  115.475;  593.000;  417.000
351.843;  -30.950; -165.000;  -77.000
351.976;   -1.000;  149.000;  -79.000
352.109; -106.150; -621.000; -612.000
352.242;  -26.800; -464.000; -419.000
352.376;  -76.725; -580.000; -636.000
352.509;  153.250; -437.000; -356.000
352.642;    7.725; -654.000; -604.000
352.775;   60.825; -141.000;  -98.000
352.908; -106.975; -933.000; -904.000
353.041; -109.150; -814.000; -824.000
353.174;  -59.450; -551.000; -424.000
353.307;  -98.350; -753.000; -764.000
353.440;   83.225;  541.000;  453.000
353.573; -112.650; -957.000;-1008.000
353.706;  -55.325; -384.000; -558.000
353.839;  -21.025; -264.000; -220.000
353.971; -100.475; -657.000; -512.000
354.104;  -90.225; -896.000; -835.000
354.237;  -35.100; -627.000; -662.000
354.370;  -81.350; -846.000; -879.000
354.503; -174.850;-1231.000;-1308.000
354.636;  -35.700; -529.000; -348.000
354.769; -134.325; -937.000; -860.000
354.902;  -15.725; -230.000; -139.000
355.034;  -23.225; -164.000; -220.000
355.167;  -23.975; -262.000; -162.000
355.300;  -90.675;-1061.000; -880.000
355.433;  989.275;  -71.000;  -14.000
355.565; 1518.325; -402.000; -384.000
355.698;  367.725; -356.000; -296.000
355.831;    9.125; -882.000; -801.000
355.964;   75.050; -285.000; -170.000
356.096;  -86.825; -856.000; -843.000
356.229;   -7.800; -523.000; -530.000
356.362;  307.325; -373.000; -266.000
356.494;  599.575; -229.000; -162.000
356.627;  469.225;  269.000;  377.000
356.760;  660.725;  120.000;   53.000
356.892;  954.125; -286.000; -601.000
357.025;  649.575;  403.000;  389.000
357.157;  609.125; -167.000; -179.000
357.290;  671.500; -856.000; -713.000
357.423;  188.125; -667.000; -556.000
357.555;  109.825; -217.000; -228.000
357.688;  139.275; -483.000; -364.000
357.820;  469.800; -870.000; -877.000
357.953; 3755.325; -563.000; -589.000
358.085;  792.475; -632.000; -612.000
358.218; 1094.700;-1131.000; -932.000
358.350;  194.475;  -58.000;  312.000
358.483; -119.800;-1300.000;-1187.000
358.615;  -23.525;-1182.000;-1078.000
358.747;  -67.250;-1187.000;-1058.000
358.880;   24.600; -810.000; -744.000
359.012;   -2.800; -376.000; -202.000
359.145;  -32.550; -480.000; -511.000
359.277;   62.475; -962.000; -913.000
359.409; 3092.175;  536.000;  231.000
359.542;  792.925; -738.000; -688.000
359.674;   66.175;   46.000;   13.000
359.806;  -48.800; -565.000; -438.000
359.939;  -38.475; -617.000; -516.000
360.071;  -17.950; -583.000; -579.000
360.203;  -24.150; -411.000; -364.000
360.335;   56.400;  164.000;  -16.000
360.468;  192.125; -249.000; -307.000
360.600; 2494.025; -547.000; -454.000
360.732; 2850.050; -546.000; -423.000
360.864;  386.850;-1216.000;-1044.000
360.996;  267.875; -516.000; -554.000
361.129;   46.050; -389.000; -598.000
361.261;   19.175;  110.000; -113.000
361.393;  -34.325; -252.000; -214.000
361.525;   26.350;   94.000;  244.000
361.657;  -33.925; -821.000; -703.000
361.789;    3.075; -139.000; -155.000
361.921;  212.975; -642.000; -593.000
362.053;  265.125;  524.000;  541.000
362.185;   60.975;  288.000;   72.000
362.318;  -78.400; -709.000; -705.000
362.450;  130.675;  294.000;  444.000
362.582;  104.825; -913.000; -870.000
362.714;  -39.725; -353.000; -332.000
362.846;  -95.325; -606.000; -490.000
362.978; -146.925; -941.000; -811.000
363.109;   40.175; -161.000; -260.000
363.241;  417.325; -739.000; -749.000
363.373;  428.050; -649.000; -564.000
363.505;  673.875; -186.000;  -91.000
363.637;  157.475; -787.000; -601.000
363.769; -114.175;-1067.000;-1080.000
363.901;  -79.875; -596.000; -654.000
364.033; -120.250;-1103.000;-1062.000
364.165;  -13.200; -283.000; -283.000
364.296;   70.300; -316.000; -177.000
364.428;   54.775;-1344.000;-1220.000
364.560;  -76.500; -679.000; -661.000
364.692;  -73.225; -738.000; -835.000
364.824;  262.025; -588.000; -456.000
364.955;  466.025; -402.000; -564.000
365.087;  919.750;-1097.000; -852.000
365.219;   29.750; -686.000; -816.000
365.351;  -62.850; -526.000; -572.000
365.482;   54.025;  300.000;  240.000
365.614;  -53.375; -402.000; -314.000
365.746; -111.025; -729.000; -752.000
365.877;  -91.950; -706.000; -672.000
366.009;  266.975;  -35.000;  -62.000
366.141;  -94.350;-1249.000;-1134.000
366.272; -112.150; -803.000; -719.000
366.404; -124.600;-1005.000; -874.000
366.535;  -21.875; -139.000;  -12.000
366.667; -104.375; -644.000; -649.000
366.799;   40.425;  353.000;  203.000
366.930; -107.825; -862.000; -996.000
367.062;  123.550; -639.000; -613.000
367.193;  151.425; -872.000; -842.000
367.325;  -56.600; -580.000; -684.000
367.456;   49.600; -246.000;   31.000
367.588;  154.700; -371.000; -318.000
367.719;   23.850;  -44.000;  -45.000
367.851;   -9.350; -222.000; -241.000
367.982;  -52.375; -875.000; -732.000
368.113;  108.400; -475.000; -358.000
368.245; -113.525; -960.000; -841.000
368.376;  -34.100; -254.000; -302.000
368.508;  -25.575; -188.000; -263.000
368.639; -141.200;-1166.000;-1034.000
368.770;  -12.125; -670.000; -589.000
368.902;  -64.775; -836.000; -926.000
369.033; -110.925; -906.000; -855.000
369.164;  -40.075; -720.000; -653.000
369.296; -106.475; -452.000; -601.000
369.427;   -7.850; -209.000; -144.000
369.558;  -71.925; -593.000; -377.000
369.689;  -98.100; -721.000; -569.000
369.821; -136.350; -951.000; -845.000
369.952;  -24.800;   42.000; -108.000
370.083;  -52.300; -229.000; -108.000
370.214;  -90.400; -735.000; -650.000
370.345;   -1.850;   65.000;   81.000
370.477;  -86.150; -810.000; -790.000
370.608;  230.350; -328.000; -264.000
370.739;  -59.475;-1233.000;-1292.000
370.870;  -38.275;-1102.000; -923.000
371.001;   79.575; -378.000; -467.000
371.132;  -63.875; -754.000; -735.000
371.263;  -27.700;  -42.000; -148.000
371.394; -131.925; -841.000; -748.000
371.525;   29.400;  345.000;  225.000
371.657;  -89.325; -808.000; -670.000
371.788;   72.525;  103.000;  199.000
371.919;  175.075; -384.000; -304.000
372.050; 3680.275;  -91.000; -156.000
372.181; 1060.050; -188.000; -294.000
372.311;  372.900;   42.000; -127.000
372.442;   35.300; -457.000; -451.000
372.573;  -39.450; -444.000; -340.000
372.704; -127.350;-1008.000; -980.000
372.835;   74.500; -228.000; -289.000
372.966;  -56.750; -646.000; -554.000
373.097;  -77.975; -575.000; -711.000
373.228;  -37.500; -717.000; -542.000
373.359;  134.875; -824.000; -536.000
373.490;  935.700; -881.000; -727.000
373.620; 1145.100;-1001.000; -803.000
373.751; 1805.675; -332.000; -396.000
373.882;  782.600; -663.000; -733.000
374.013;   72.400; -449.000; -262.000
374.143;  -58.000; -581.000; -659.000
374.274; -107.350; -987.000; -908.000
374.405;  160.700; -388.000; -276.000
374.536;  453.075; -526.000; -387.000
374.666; 1108.475; -759.000; -807.000
374.797;  219.575; -817.000; -868.000
374.928;  852.575; -710.000; -560.000
375.058;  884.275; -535.000; -500.000
375.189;   61.500;  -59.000;  -93.000
375.320; -100.875; -928.000;-1034.000
375.450;  -44.775; -625.000; -616.000
375.581;  -47.350; -526.000; -436.000
375.712;  -24.925; -574.000; -250.000
375.842;  322.300; -438.000; -415.000
375.973;  202.000; -554.000; -513.000
376.103;  -54.900; -665.000; -648.000
376.234;  -81.000; -531.000; -552.000
376.364;  -34.525; -944.000; -867.000
376.495;  315.425;  925.000;  529.000
376.625;  -16.550; -472.000; -485.000
376.756;   61.825; -709.000; -678.000
376.886;  -77.900;-1178.000;-1026.000
377.017;   37.600;-1048.000;-1061.000
377.147;  337.650; -786.000; -782.000
377.278;   55.225;  174.000;  228.000
377.408; -119.425; -801.000; -815.000
377.538; -108.950; -707.000; -693.000
377.669;  -82.475; -537.000; -613.000
377.799;  -95.675; -645.000; -635.000
377.929;  -62.400; -610.000; -428.000
378.060; -129.700; -781.000; -847.000
378.190;  -72.850; -726.000; -531.000
378.320;  -53.275; -401.000; -406.000
378.451;   -5.600; -131.000;  -22.000
378.581;   -8.775;  -67.000; -110.000
378.711;  156.325; 1035.000;  866.000
378.841;  -14.875; -533.000; -675.000
378.972;  -76.525; -871.000; -751.000
379.102;  -23.125; -652.000; -579.000
379.232;  -29.725; -126.000;  -73.000
379.362; -101.350;-1001.000; -885.000
379.492;   11.650; -373.000; -424.000
379.623;  106.875;    0.000;  111.000
379.753; -102.625;-1107.000; -974.000
379.883;  198.675;   59.000;  156.000
380.013;   -3.175;-1081.000;-1017.000
380.143; -113.650;-1097.000;-1056.000
380.273;  -94.425; -985.000; -861.000
380.403;   -6.225; -344.000; -257.000
380.533;  -21.450; -651.000; -664.000
380.663;   77.925;  173.000;  128.000
380.793; -108.500;-1027.000;-1074.000
380.923;  -31.100; -103.000;  -34.000
381.053;  -89.675; -613.000; -623.000
381.183;  -51.100; -106.000; -248.000
381.313;   39.550; -656.000; -470.000
381.443;   22.650; -692.000; -473.000
381.573;  186.450; -402.000; -409.000
381.703;  264.100;-1249.000;-1095.000
381.833; -126.400;-1454.000;-1336.000
381.963;  118.275; -134.000;  -87.000
382.093; 1429.450; -925.000; -909.000
382.223;  414.100; -713.000; -602.000
382.353;  -33.075; -801.000; -608.000
382.482;  362.625;-1091.000; -964.000
382.612;  772.875; -872.000; -644.000
382.742;  420.650; -695.000; -622.000
382.872;  254.400; -565.000; -551.000
383.002;   64.350;  347.000; -132.000
383.131;  -14.950; -226.000; -160.000
383.261;  -46.325; -706.000; -768.000
383.391;  293.300; -552.000; -377.000
383.521; 3276.375;  451.000;  263.000
383.650;  719.375; -947.000; -904.000
383.780;  -22.075; -783.000; -656.000
383.910;  112.500;  880.000;  802.000
384.039;   13.975; -794.000; -656.000
384.169;  201.500;-1205.000;-1017.000
384.299;  -27.400; -650.000; -662.000
384.428;  -86.950; -764.000; -680.000
384.558;  -52.475; -308.000; -275.000
384.687;  -59.550; -414.000; -334.000
384.817;    0.450;   75.000;   -2.000
384.947;    8.450; -234.000; -141.000
385.076;  294.375;  982.000;  912.000
385.206;   98.400;  369.000;  480.000
385.335;  -52.400; -549.000; -417.000
385.465;  -81.475; -655.000; -663.000
385.594;  143.450;  -53.000;  -44.000
385.724;  412.225; -868.000; -838.000
385.853;  119.550; -296.000; -270.000
385.982; 1380.400; -743.000; -787.000
386.112; 2103.550;-1052.000; -871.000
386.241;  126.600; -307.000; -312.000
386.371;   21.100; -174.000;  -87.000
386.500;    2.350; -825.000; -789.000
386.629;   12.550; -874.000; -817.000
386.759;   62.375;  -43.000;   68.000
386.888;  -10.075; -170.000; -250.000
387.017;  -72.725; -648.000; -620.000
387.147;  -94.825; -771.000; -798.000
387.276;   -3.975; -410.000; -397.000
387.405;    7.400; -398.000; -342.000
387.535;  -50.850; -452.000; -361.000
387.664;  -76.375; -692.000; -620.000
387.793;   66.525; -198.000; -113.000
387.922;  505.600;  255.000;  200.000
388.052;   14.650; -576.000; -423.000
388.181;    2.625; -342.000; -472.000
388.310;  -16.950; -889.000; -710.000
388.439;  -58.075; -749.000; -742.000
388.568;  201.675;  365.000;  244.000
388.697; 1037.200; -756.000; -653.000
388.826;  194.350; -768.000; -666.000
388.956;   58.400; -285.000; -307.000
389.085;  -30.550; -347.000; -287.000
389.214; -103.925; -842.000; -872.000
389.343;  -67.500; -645.000; -413.000
389.472;  390.425;  126.000;  149.000
389.601;  518.775;   91.000;    0.000
389.730;   -3.850; -568.000; -687.000
389.859;   71.075;  226.000;   46.000
389.988;  165.425; -423.000; -408.000
390.117;  135.550; -168.000; -146.000
390.246;  -20.750; -331.000; -320.000
390.375;   97.575; -673.000; -626.000
390.504;  -70.575; -703.000; -621.000
390.633;  -97.575; -672.000; -726.000
390.761;  -80.025; -732.000; -645.000
390.890;   22.875;   -4.000; -130.000
391.019;  -44.175; -421.000; -441.000
391.148; -114.700; -826.000; -855.000
391.277;  -81.200; -576.000; -493.000
391.406;  -74.450; -821.000; -805.000
391.534;   20.725;  574.000; -301.000
391.663;  -69.825; -583.000; -645.000
391.792;  -83.050; -673.000; -701.000
391.921;  101.000;   -3.000;   15.000
392.050;  183.750; -287.000; -228.000
392.178;  -49.850;-1206.000;-1061.000
392.307;  149.800; -758.000; -712.000
392.436;   64.350; -427.000; -641.000
392.564;   18.775;  166.000;   -6.000
392.693;  -86.200; -860.000; -682.000
392.822;  190.375; -529.000; -534.000
392.950;   85.700; -880.000; -714.000
393.079;  315.950; -188.000; -328.000
393.208;   16.750; -488.000; -511.000
393.336;  -25.150; -170.000; -145.000
393.465;  -55.925; -317.000; -199.000
393.593;   -9.225;   62.000;   79.000
393.722; -154.200;-1121.000; -916.000
393.850;  -42.075; -188.000;  -61.000
393.979; -156.375; -926.000; -805.000
394.107;  -79.050; -517.000; -537.000
394.236;  -27.425; -570.000; -507.000
394.364;  179.050;  383.000;  206.000
394.493;  257.025; -911.000; -767.000
394.621;  -22.575; -955.000; -916.000
394.750;  714.225; -873.000; -923.000
394.878; 2997.400; -247.000; -149.000
395.007; 3959.500; -721.000; -807.000
395.135;  282.725; -790.000; -721.000
395.263;  -85.200;-1038.000;-1040.000
395.392;   -1.500;  -25.000; -107.000
395.520; -142.850; -818.000; -679.000
395.648;  -97.600; -865.000; -915.000
395.777;  -20.275; -366.000; -405.000
395.905;  -70.075; -449.000; -564.000
396.033;   11.775;  217.000;  172.000
396.162;  413.175; -399.000; -453.000
396.290;  382.375;  -17.000;   -2.000
396.418;   83.800; -555.000; -514.000
396.546;  -69.450; -571.000; -466.000
396.674; -109.525; -850.000; -878.000
396.803;   15.750;  -72.000;  -23.000
396.931;   88.775; -179.000; -199.000
397.059;   34.200;-1026.000; -989.000
397.187; -107.000;-1026.000; -975.000
397.315; -147.625; -884.000; -649.000
397.443;  -94.625; -592.000; -443.000
397.572;  -95.475; -578.000; -424.000
397.700;  -24.400; -607.000; -614.000
397.828;    7.825;  120.000;  -90.000
397.956;  -49.775; -508.000; -478.000
398.084;  -62.200; -767.000; -626.000
398.212;   40.675;  137.000;  124.000
398.340;   -2.175;  -56.000;  159.000
398.468;   23.275; -390.000; -169.000
398.596; -152.975; -993.000; -953.000
398.724; -127.250; -762.000; -767.000
398.852; -165.825;-1024.000; -976.000
398.980;  -73.375; -560.000; -560.000
399.108;  -55.800; -982.000; -735.000
399.236;   39.300;   13.000;    8.000
399.363;    9.825;  222.000;  196.000
399.491;  -73.875; -404.000; -398.000
399.619; -127.650; -829.000; -800.000
399.747; -106.350; -859.000; -771.000
399.875;   67.725;  220.000;  234.000
400.003;  -58.775; -359.000; -284.000
400.130;  -91.100; -421.000; -341.000
400.258;  -21.200;  -83.000;   38.000
400.386;  -61.125; -352.000; -168.000
400.514;  -50.050; -526.000; -587.000
400.641;  -91.950; -928.000; -802.000
400.769; -142.475; -979.000; -888.000
400.897; -121.100; -838.000; -793.000
401.025;  -30.725; -166.000; -152.000
401.152;  -10.600;  220.000;   38.000
401.280;  -74.350; -430.000; -429.000
401.408; -109.100; -712.000; -576.000
401.535; -125.350; -735.000; -758.000
401.663; -197.300;-1134.000;-1054.000
401.790;  -99.625; -514.000; -525.000
401.918;   46.150;  436.000;  405.000
402.046;  -22.700;  134.000;  122.000
402.173;  -51.800;  -18.000;    7.000
402.301;  -74.200; -519.000; -397.000
402.428;   34.500;  528.000;  383.000
402.556; -152.000;-1188.000; -913.000
402.683;  -34.600;  -20.000;   -1.000
402.811;  -29.950;  -37.000; -206.000
402.938;  -19.150;   20.000;   27.000
403.066;  195.600; -574.000; -558.000
403.193;  321.850;  299.000;  239.000
403.321;  255.025; -396.000; -574.000
403.448;  312.500;   83.000;   27.000
403.575;  143.375;  -90.000;  -46.000
403.703;  -93.550; -732.000; -557.000
403.830;  -77.050; -531.000; -496.000
403.957; -144.275;-1117.000;-1023.000
404.085;    0.875;  -61.000; -172.000
404.212;  107.025;  -50.000;   63.000
404.339;  261.925; -566.000; -306.000
404.467; 5919.750; -612.000; -524.000
404.594; 3757.450; -287.000; -227.000
404.721;  837.750; -869.000; -764.000
404.848;   78.075; -113.000; -202.000
404.976; -112.175; -856.000; -783.000
405.103;  -16.425;  -14.000;  -82.000
405.230;    8.150;  190.000;  226.000
405.357;   17.575;  117.000;   44.000
405.484;  265.100;  -49.000;    5.000
405.612;   44.225; -548.000; -563.000
405.739;  -69.500; -488.000; -243.000
405.866;   82.625;  669.000;  385.000
405.993;  -57.550; -398.000; -102.000
406.120; -146.600; -801.000; -887.000
406.247;  -67.500; -323.000; -342.000
406.374;  431.550;  540.000;  629.000
406.501;   84.675; -632.000; -702.000
406.628;  -82.625; -621.000; -589.000
406.755;  -94.950; -803.000; -620.000
406.882;  -40.650; -228.000; -277.000
407.009; -117.625; -719.000; -628.000
407.136;   57.575; -480.000; -401.000
407.263;  120.875; -939.000; -829.000
407.390;  -76.150; -692.000; -614.000
407.517; -177.525;-1139.000;-1187.000
407.644;  -66.250; -332.000; -256.000
407.771;  -88.075; -249.000; -287.000
407.898;    8.650;  168.000;  328.000
408.025;  -69.275; -421.000; -313.000
408.151;  -10.625;   82.000;  153.000
408.278;  -74.975; -267.000; -216.000
408.405; -129.150; -931.000; -899.000
408.532;  -77.975; -549.000; -542.000
408.659; -122.950; -677.000; -648.000
408.785; -212.375;-1298.000;-1170.000
408.912;  -66.475; -412.000; -296.000
409.039; -119.575; -610.000; -686.000
409.166;  -97.175; -591.000; -555.000
409.292; -123.975; -571.000; -534.000
409.419; -132.300; -665.000; -649.000
409.546;  -91.000; -431.000; -192.000
409.672; -120.200; -713.000; -545.000
409.799;  -18.750;  -36.000;   34.000
409.926;  -40.550; -180.000; -179.000
410.052; -178.125;-1127.000;-1091.000
410.179;  -69.900; -368.000; -392.000
410.305;  -89.350; -375.000; -493.000
410.432;  -43.900; -220.000; -333.000
410.558; -100.925; -305.000; -380.000
410.685; -122.900; -688.000; -431.000
410.812;  -97.225; -409.000; -588.000
410.938; -148.725; -964.000; -808.000
411.065;  -92.075; -671.000; -645.000
411.191;  -19.000; -189.000; -174.000
411.317; -119.250; -823.000; -742.000
411.444;  -62.600; -317.000; -246.000
411.570;  -79.275; -339.000; -294.000
411.697; -128.475; -758.000; -752.000
411.823; -183.525; -989.000; -999.000
411.949;  -41.775;  -56.000;   17.000
412.076; -109.800; -539.000; -519.000
412.202; -122.450; -758.000; -757.000
412.329; -120.925; -798.000; -752.000
412.455; -118.550; -821.000; -657.000
412.581;  -29.100;  -15.000;  172.000
412.707;  -65.775; -540.000; -457.000
412.834;   22.775;  156.000;  219.000
412.960;  -93.675; -785.000; -784.000
413.086; -108.550; -743.000; -701.000
413.212;  151.900;  604.000;  578.000
413.339;  -76.075; -685.000; -701.000
413.465;  -18.725; -364.000; -310.000
413.591; -102.625; -757.000; -474.000
413.717;  -57.375; -358.000; -366.000
413.843; -148.425; -839.000; -861.000
413.969;  -56.850;  -47.000; -292.000
414.096;  -99.525; -679.000; -679.000
414.222;  -14.150;  -33.000;   85.000
414.348;  -33.725; -652.000; -385.000
414.474;   92.900;   38.000;  -52.000
414.600;  -19.475; -126.000; -144.000
414.726;  -17.275;  -96.000;  -55.000
414.852;  -62.325; -365.000; -342.000
414.978;   33.850;  104.000;  -18.000
415.104;   47.950;   38.000;   80.000
415.230;   27.675; -329.000; -330.000
415.356;   35.100; -409.000; -514.000
415.482;  203.725;   13.000;  -35.000
415.608;  261.375; -247.000; -323.000
415.734;  979.750;   67.000;   38.000
415.860;20471.975; -875.000; -767.000
415.986;14171.050; -685.000; -607.000
416.111; 1179.700; -798.000; -652.000
416.237;  255.850; -424.000; -571.000
416.363; 1157.275; -765.000; -733.000
416.489; 4186.825; -324.000; -251.000
416.615;  411.550; -707.000; -742.000
416.741;  -30.950; -677.000; -784.000
416.866;  -88.650; -673.000; -736.000
416.992; -129.150; -801.000; -818.000
417.118;  -29.075;  -41.000;  -80.000
417.244;  -61.150; -798.000; -531.000
417.369;  -83.775; -801.000; -612.000
417.495;  -27.725; -325.000; -254.000
417.621;  -91.275;-1015.000; -803.000
417.746;    6.500; -579.000; -572.000
417.872;   59.425; -254.000; -144.000
417.998;   51.825; -515.000; -530.000
418.123; 1096.850;-1073.000; -845.000
418.249; 5450.900; -512.000; -601.000
418.374;  737.750; -916.000; -824.000
418.500;  102.225; -383.000; -482.000
418.626;  116.400;   70.000;  -59.000
418.751;  102.000; -549.000; -448.000
418.877;  192.100; -637.000; -643.000
419.002; 1879.950; -688.000; -560.000
419.128;12717.425; -930.000; -721.000
419.253; 2993.650; -967.000; -837.000
419.379;  394.650; -391.000; -338.000
419.504;  392.000;  325.000;  415.000
419.629;  518.575; -393.000; -212.000
419.755; 3729.475; -317.000; -254.000
419.880;21389.225;  -98.000;   67.000
420.006;11641.525; -280.000; -221.000
420.131;29541.675; -662.000; -775.000
420.256; 4075.475; -315.000; -316.000
420.382;  532.375; -665.000; -687.000
420.507;   67.600; -649.000; -778.000
420.632;  137.450; -337.000; -339.000
420.758;  231.225; -251.000; -425.000
420.883;  -85.600; -876.000; -672.000
421.008; -101.900; -775.000; -619.000
421.133;  -76.775; -509.000; -467.000
421.259;  -57.800; -325.000; -259.000
421.384; -119.100; -834.000; -693.000
421.509;  -58.625;-1052.000; -862.000
421.634; 1148.825; -936.000; -820.000
421.759;  469.725; -359.000; -327.000
421.885;  -69.225; -717.000; -656.000
422.010;  -89.025; -673.000; -542.000
422.135; -147.350; -695.000; -727.000
422.260;   27.150;  340.000;  280.000
422.385;  -47.875;   12.000;  -98.000
422.510;    9.150;  151.000;  -26.000
422.635;   25.225;  -87.000;  -43.000
422.760;   87.425; -766.000; -791.000
422.885;   53.100;  -57.000;  -80.000
423.010;  -39.325; -112.000; -169.000
423.135; -100.750; -481.000; -561.000
423.260;   -7.400; -150.000; -245.000
423.385;   65.775;  476.000;  222.000
423.510;   16.925;   71.000;  -22.000
423.635;   73.800;  133.000;   45.000
423.760;   58.625;  383.000;  328.000
423.885;   50.850;  336.000;  391.000
424.010;    9.375;  -68.000;  -13.000
424.135;  -32.350;    5.000;  -33.000
424.259;  -93.875; -654.000; -457.000
424.384;  -62.525; -279.000; -272.000
424.509;  -30.000; -260.000; -186.000
424.634;  -92.050; -761.000; -623.000
424.759;  -28.375; -688.000; -544.000
424.883;  -13.225; -506.000; -527.000
425.008;  172.750; -502.000; -410.000
425.133; 2041.350; -679.000; -653.000
425.258;  903.525; -517.000; -381.000
425.382; 1086.775; -867.000; -774.000
425.507; 2616.875; -487.000; -543.000
425.632;  416.850; -802.000; -663.000
425.756;  473.875; -256.000; -146.000
425.881; 6903.875; -831.000; -857.000
426.006;17915.525; -604.000; -355.000
426.130; 2655.650; -696.000; -508.000
426.255;  338.100; -611.000; -491.000
426.379;  154.950; -189.000; -577.000
426.504;  362.575;  660.000;  544.000
426.629; 4160.525; -519.000; -466.000
426.753; 2729.050;   64.000;  -46.000
426.878;  313.825; -252.000; -288.000
427.002;  171.400; -651.000; -668.000
427.127; 1673.550;  -35.000; -158.000
427.251;11596.775;  372.000;  401.000
427.375; 3144.125; -191.000; -173.000
427.500; 2312.275; -616.000; -610.000
427.624;  740.125; -234.000; -400.000
427.749;   85.675; -216.000; -225.000
427.873;  -37.575; -499.000; -412.000
427.997;  -44.175; -222.000; -230.000
428.122;   54.175;  795.000;  703.000
428.246;   69.950;  433.000;  434.000
428.371; -136.675; -869.000; -773.000
428.495; -104.325; -624.000; -646.000
428.619;  -33.150; -186.000; -117.000
428.743;   19.000;   65.000;  132.000
428.868;   21.225; -732.000; -643.000
428.992; 1440.050; -219.000; -326.000
429.116;  537.625; -329.000; -357.000
429.240;  264.650;  419.000;  426.000
429.365;  -16.725; -454.000; -574.000
429.489;  -48.875; -638.000; -647.000
429.613;   21.450; -236.000; -177.000
429.737;   32.350; -563.000; -432.000
429.861;  261.550; -247.000; -133.000
429.985; 5764.775; -425.000; -305.000
430.109; 6066.775; -770.000; -908.000
430.234;  667.950;   76.000;  -50.000
430.358;   51.450; -250.000; -160.000
430.482;  -77.075; -672.000; -564.000
430.606;  -68.750; -655.000; -375.000
430.730;   -8.575; -437.000; -388.000
430.854;  121.650; -909.000; -835.000
430.978;  -89.100; -795.000; -764.000
431.102;  -94.950; -499.000; -422.000
431.226; -132.975; -874.000; -815.000
431.350;   14.400;  345.000;  422.000
431.474;  -90.400; -661.000; -373.000
431.597; -165.900;-1060.000; -848.000
431.721;  -88.925; -276.000; -267.000
431.845; -126.575; -704.000; -472.000
431.969;  -89.750; -304.000; -349.000
432.093;  -90.875; -395.000; -317.000
432.217;  -11.075;   32.000;   82.000
432.341;  -90.750; -523.000; -518.000
432.464;   -0.500;   96.000;   40.000
432.588;  198.525; -401.000; -329.000
432.712;   91.600;  -52.000;  -52.000
432.836;   43.475;  213.000;  263.000
432.959;  -11.125; -372.000; -311.000
433.083;   74.875;   11.000;    2.000
433.207;  390.225;  285.000;  930.000
433.330; 5259.000; -391.000; -200.000
433.454; 6210.000; -654.000; -638.000
433.578; 3611.175;  583.000;  278.000
433.701;  623.975; -623.000; -675.000
433.825;  129.275; -292.000; -299.000
433.949;  167.550;   28.000;  -72.000
434.072;   47.500; -410.000; -323.000
434.196;  -18.625; -309.000; -117.000
434.319; 3784.575;25482.000;25124.000
434.443;  738.550; -656.000; -603.000
434.566; 2693.125;  281.000;   62.000
434.690;  395.975; -637.000; -383.000
434.813;   33.000; -251.000; -173.000
434.937;  -71.575; -569.000; -696.000
435.060;  -48.750; -423.000; -332.000
435.184;  278.150; -492.000; -217.000
435.307;  141.900;  159.000;  102.000
435.431;  -31.075;  -40.000;   24.000
435.554;  -83.325; -399.000; -240.000
435.677; -100.775; -350.000; -258.000
435.801;  -31.925;  -25.000;   49.000
435.924;  -27.875;    1.000;  -67.000
436.048; -114.575;-1019.000; -732.000
436.171;  -86.100; -240.000;  -66.000
436.294;  -28.700; -248.000; -229.000
436.417;   80.250; -963.000; -849.000
436.541;  -94.375; -814.000; -840.000
436.664;  -50.700; -242.000; -316.000
436.787;  -32.075;   13.000;  113.000
436.910; -120.075; -792.000; -422.000
437.034;    7.425;  142.000;  143.000
437.157;   47.125;  -11.000;    0.000
437.280;  -55.450; -392.000; -292.000
437.403;  -91.225; -982.000; -869.000
437.526;  603.250; -903.000; -865.000
437.649; 2234.325; -505.000; -332.000
437.772;  277.325; -692.000; -540.000
437.896;  114.575;  700.000;  544.000
438.019; -104.525; -758.000; -503.000
438.142;  -90.450; -596.000; -506.000
438.265;  -23.575; -639.000; -670.000
438.388;  537.750; -520.000; -410.000
438.511;   73.300; -597.000; -394.000
438.634;  -63.125; -247.000; -125.000
438.757; -157.800; -693.000; -619.000
438.880;  -28.800;  -34.000;  -57.000
439.003;  -88.325; -417.000; -437.000
439.126;  -79.450; -287.000; -167.000
439.248;  -71.375;  -98.000; -139.000
439.371;  -53.975;    9.000;  -53.000
439.494;   15.575;  510.000;  439.000
439.617;  -53.075;   65.000;  -88.000
439.740; -181.675; -968.000; -816.000
439.863; -157.675; -755.000; -595.000
439.986; -120.475; -476.000; -431.000
440.108;  -64.525; -161.000; -112.000
440.231; -166.275; -950.000; -836.000
440.354;  -52.350;  -64.000; -150.000
440.477;    7.900; -566.000; -542.000
440.599;  -33.200; -200.000; -225.000
440.722; -132.950; -709.000; -586.000
440.845;   59.700;  751.000;  928.000
440.968; -116.300; -415.000; -311.000
441.090;  -73.850; -199.000;  -33.000
441.213; -175.950;-1021.000; -825.000
441.336;  -62.725; -159.000;   -5.000
441.458;  -79.000; -549.000; -396.000
441.581;  -86.975; -628.000; -629.000
441.703;  -68.050; -152.000;   13.000
441.826; -125.725; -557.000; -400.000
441.948;  -51.475;   56.000;   51.000
442.071;   21.425;  555.000;  424.000
442.193; -121.025; -531.000; -485.000
442.316;   19.675;  152.000;   97.000
442.438;   34.900; -233.000;  -10.000
442.561;   83.425;  272.000;  262.000
442.683;  534.700; -809.000; -522.000
442.806; 1116.125;   -8.000;   74.000
442.928;   -0.850; -859.000; -604.000
443.051;  -88.200; -577.000; -373.000
443.173;  -96.975; -341.000; -339.000
443.295; -100.950; -263.000; -371.000
443.418;  -86.600; -321.000;  -29.000
443.540;    0.625; -106.000;   -4.000
443.662; -111.250; -563.000; -465.000
443.785;  -11.975;  335.000;  199.000
443.907; -121.950; -362.000; -208.000
444.029; -140.650; -767.000; -494.000
444.152; -148.200; -644.000; -554.000
444.274;  -39.300;  -18.000;  -24.000
444.396; -117.125; -461.000; -221.000
444.518; -136.450; -691.000; -454.000
444.640; -124.950; -268.000; -111.000
444.763;  -17.550;  388.000;  249.000
444.885; -125.100; -432.000; -392.000
445.007;  -43.175;   35.000;   86.000
445.129; -130.375; -610.000; -515.000
445.251; -115.725; -372.000; -439.000
445.373; -143.775; -537.000; -386.000
445.495;    3.550;  242.000;  350.000
445.617;   61.575;  853.000;  753.000
445.739;  -60.725; -215.000;  -97.000
445.861;  -46.150; -245.000; -112.000
445.984;  -44.625; -267.000; -101.000
446.105;  189.700; -418.000; -251.000
446.227;  595.375; -176.000;  -19.000
446.349;  -16.600; -358.000; -249.000
446.471; -111.100; -615.000; -448.000
446.593;  -66.475; -316.000;   19.000
446.715;   -9.225;  -67.000;   41.000
446.837;   59.475;  697.000;  832.000
446.959; -103.425; -457.000; -478.000
447.081; -130.925; -628.000; -518.000
447.203;   48.975;  862.000;  834.000
447.325;  -93.300; -270.000;   42.000
447.446;  -18.200;  286.000;  530.000
447.568; -166.250; -921.000; -803.000
447.690;  -78.700; -236.000; -245.000
447.812; -148.825; -798.000; -519.000
447.933;  -29.000;  155.000;  127.000
448.055;  -69.200; -306.000; -261.000
448.177;  130.300;   31.000;   79.000
448.299;   63.900; -935.000; -727.000
448.420;   16.225;  -25.000;  159.000
448.542;  -50.800;   -3.000;   33.000
448.664;  -21.125;  109.000;  322.000
448.785;  -36.325;  265.000;   83.000
448.907;  -74.650; -614.000; -353.000
449.028;  -30.725; -771.000; -471.000
449.150;   47.575;  492.000;  589.000
449.272; -186.650;-1044.000; -913.000
449.393;   28.000;  612.000;  694.000
449.515; -151.475; -634.000; -581.000
449.636;  -62.325; -264.000; -155.000
449.758;   60.350;  763.000;  622.000
449.879;  -94.475; -498.000; -396.000
450.001;  -87.375; -149.000;  -49.000
450.122;  -48.850;  -95.000;  162.000
450.244;  -22.075;   37.000;  364.000
450.365; -106.875; -495.000; -301.000
450.486;  -33.875;   80.000;  268.000
450.608;   23.325;  393.000;  326.000
450.729;   73.300;  578.000;  645.000
450.850;   -9.900; -574.000; -466.000
450.972;  785.300; -552.000; -389.000
451.093; 5066.050;  190.000;  588.000
451.214; 2080.650; -516.000; -337.000
451.336;  378.100;  773.000;  579.000
451.457;   64.700;  264.000;  393.000
451.578;  -53.875; -118.000;  -74.000
451.699; -124.150; -546.000; -540.000
451.821;  -71.175; -284.000;  -50.000
451.942;    1.250;  278.000;  285.000
452.063;   29.750;  228.000;  419.000
452.184;  572.200;  -54.000;  -49.000
452.305; 1097.050;  103.000;  170.000
452.427;  117.950; -549.000; -301.000
452.548;  -23.525;   23.000;   79.000
452.669;  -68.900; -257.000;  -89.000
452.790;  -50.575;    3.000;  -18.000
452.911;  -10.700;  195.000;  259.000
453.032;  -73.275; -289.000;  -60.000
453.153;  -42.425;  -29.000;   81.000
453.274;   50.375;  737.000;  868.000
453.395;  -65.775;  -51.000;  175.000
453.516;  134.800; 1317.000; 1388.000
453.637;  -80.675; -205.000; -150.000
453.758;  -54.575;   15.000;   69.000
453.879; -121.200; -462.000; -250.000
454.000;   61.025; 1086.000;  948.000
454.121; -120.400; -554.000; -326.000
454.242; -124.300; -599.000; -383.000
454.362;  -54.400;  -99.000;  114.000
454.483;  -46.700; -309.000; -229.000
454.604;   53.825;  512.000;  580.000
454.725; -137.975; -627.000; -555.000
454.846; -119.675; -474.000; -406.000
454.967;  -24.375;  230.000;  539.000
455.087;  -57.400;  179.000;  153.000
455.208;    1.250;  554.000;  856.000
455.329;  -73.300;  -22.000;   82.000
455.450;   39.850;  473.000;  633.000
455.570;  -77.475; -234.000; -211.000
455.691;  -47.500;  201.000;  407.000
455.812; -105.450; -270.000;  -92.000
455.932;  -62.300;  107.000;  -97.000
456.053;  -82.900;   36.000;   24.000
456.173; -116.150; -433.000; -355.000
456.294; -129.950; -476.000; -303.000
456.415;  -69.875;  -73.000;   70.000
456.535;  -33.900;  297.000;  273.000
456.656;  -41.175;  132.000;  240.000
456.776;  -78.325;    3.000;  298.000
456.897;   -8.675;  308.000;  513.000
457.017;  -83.975; -153.000;   -3.000
457.138; -123.675; -402.000; -249.000
457.258;  -36.175;  263.000;  224.000
457.379;  -25.000;  509.000;  521.000
457.499;  -35.725;  443.000;  432.000
457.620; -135.325; -407.000; -231.000
457.740;  -94.325; -132.000;  -11.000
457.860;  -70.350;   87.000;   44.000
457.981;  -47.325;  132.000;  124.000
458.101;  -83.375;  -89.000;   40.000
458.221;  -25.775;  336.000;  402.000
458.342;  -77.175;   -4.000;  -37.000
458.462;   17.150;  617.000;  352.000
458.582;  -38.100; -302.000; -294.000
458.703;    7.550;  303.000;  154.000
458.823;  -29.725;   22.000;  163.000
458.943;    9.700;  341.000;  467.000
459.063;  -24.050; 1124.000;  192.000
459.183;  -40.300;  328.000;  313.000
459.304;    4.800;  315.000;  517.000
459.424;  -56.950; -246.000;  -89.000
459.544;  342.000;  388.000;  764.000
459.664;  836.150;  499.000;  506.000
459.784;  295.575; 1004.000; 1175.000
459.904;   51.500;  867.000;  744.000
460.024;   51.900;  867.000;  684.000
460.144;   -1.450;  449.000;  554.000
460.264;  -22.775;  515.000;  327.000
460.385;  -98.475; -145.000; -119.000
460.505;   45.500;  905.000;  858.000
460.625;  -98.400;  -17.000;  -68.000
460.745;  -32.575;  396.000;  541.000
460.864;  -59.525;  153.000;  469.000
460.984;   12.825;  499.000;  573.000
461.104;  140.725; 1656.000; 1775.000
461.224;   25.650;  657.000;  650.000
461.344;  -20.625;  431.000;  360.000
461.464;  -41.450;  258.000;  513.000
461.584;  -25.800;  283.000;  466.000
461.704;  -51.075;   58.000;  108.000
461.824;  -57.725;  238.000;  259.000
461.943;  -54.575;  191.000;  130.000
462.063;  -65.450;    2.000;  324.000
462.183;   32.925;  639.000;  717.000
462.303;   97.150; 1678.000; 1230.000
462.422;   25.150;  781.000;  840.000
462.542;  -34.050;  271.000;  391.000
462.662;   33.425;  353.000;  380.000
462.782;  242.325;  833.000;  572.000
462.901;  467.550;  545.000;  717.000
463.021;  289.775; 1702.000; 1638.000
463.141;  -11.325;  337.000;  770.000
463.260;  -12.275;  614.000;  474.000
463.380;    9.075;  902.000;  884.000
463.499;  -42.025;  342.000;  332.000
463.619;  -44.450;  581.000;  559.000
463.738;  111.250; 1644.000;  903.000
463.858;    0.850;  657.000;  811.000
463.978;  -38.900;  542.000;  396.000
464.097;   54.750;  921.000; 1114.000
464.217;  105.400; 1196.000; 1143.000
464.336;  101.225; 1068.000; 1130.000
464.455;  -33.125;  328.000;  659.000
464.575;   36.950;  597.000;  602.000
464.694;  156.725; 1204.000; 1179.000
464.814;  123.275; 1190.000; 1138.000
464.933;   68.425; 1095.000; 1027.000
465.052;  120.125; 1412.000; 1054.000
465.172;   62.375;  922.000;  799.000
465.291;  122.400; 1376.000; 1320.000
465.410;   29.375;  462.000;  735.000
465.530;   79.475; 1355.000; 1310.000
465.649;   54.100; 1209.000; 1273.000
465.768;  138.125; 1673.000; 1508.000
465.888;   45.575;  941.000; 1174.000
466.007;   86.175; 1335.000; 1440.000
466.126;    8.500;  721.000;  641.000
466.245;   28.000; 1176.000; 1187.000
466.364;    5.775;  950.000; 1060.000
466.484;   62.600; 1024.000; 1213.000
466.603;   32.000; 1101.000; 1222.000
466.722;  120.425; 1490.000; 1769.000
466.841;   76.150; 1151.000; 1401.000
466.960;   41.650; 1069.000;  972.000
467.079;  135.275; 1971.000; 1786.000
467.198;   44.775; 1238.000; 1181.000
467.317;   82.250; 1768.000; 1162.000
467.436;   56.825; 1709.000; 1261.000
467.555;  107.375; 1796.000; 1746.000
467.674;   57.975; 1227.000; 1329.000
467.793;   35.250; 1376.000; 1374.000
467.912;   87.800; 1658.000; 1539.000
468.031;  119.300; 2038.000; 1930.000
468.150;  146.425; 1842.000; 1837.000
468.269;  182.950; 2313.000; 2090.000
468.388;  195.675; 2168.000; 2339.000
468.507;  249.500; 2884.000; 2903.000
468.626;  275.100; 2555.000; 2541.000
468.744;  140.325; 2018.000; 2174.000
468.863;  188.250; 2312.000; 2523.000
468.982;   83.100; 1503.000; 1555.000
469.101;  205.075; 2788.000; 2692.000
469.220;  146.600; 2333.000; 2176.000
469.338;  255.075; 2935.000; 3051.000
469.457;  179.750; 2719.000; 2545.000
469.576;  342.975; 3953.000; 3784.000
469.695;  237.400; 2877.000; 3066.000
469.813;  444.400; 4148.000; 4192.000
469.932;  424.700; 4255.000; 4485.000
470.051;  438.525; 4075.000; 4161.000
470.169;  855.250; 4470.000; 4338.000
470.288; 1491.400; 4700.000; 4809.000
470.406;  866.625; 5059.000; 5194.000
470.525;  615.250; 6101.000; 5787.000
470.644;  649.175; 6847.000; 6794.000
470.762;  824.150; 8397.000; 7873.000
470.881;  908.650; 8651.000; 8464.000
470.999; 1056.700; 9685.000; 9151.000
471.118; 1113.825;11174.000;10711.000

