
Integration time [ms]: 100.000
Averaging Nr. [scans]: 40
Smoothing Nr. [pixels]: 0
Data measured with spectrometer [name]: 2101012U2
Wave   ;Sample   ;Dark     ;Reference
[nm]   ;[counts] ;[counts] ;[counts] 

197.733;   64.200;  516.000;  404.000
197.879;  -79.600; -610.000; -634.000
198.025;  -49.000; -475.000; -420.000
198.171;  -60.725; -602.000; -612.000
198.317;  -26.825; -401.000; -316.000
198.463;  -65.275; -655.000; -404.000
198.609;   17.700;  181.000; -137.000
198.755;  -85.475; -644.000; -410.000
198.901;  -59.700; -505.000; -424.000
199.047;  -66.800; -615.000; -488.000
199.193;  -27.550; -230.000; -468.000
199.339;  -45.575; -222.000; -369.000
199.485;   44.825;  330.000;  271.000
199.631;   22.750;  227.000;  310.000
199.777;  -56.175; -466.000; -398.000
199.923;  -76.000; -610.000; -424.000
200.069;  -14.075; -141.000;  -58.000
200.215;   47.800;  128.000;  453.000
200.361;   38.825;  243.000;  477.000
200.507;  -61.200; -600.000; -373.000
200.653;  -28.200; -371.000; -194.000
200.798;  -41.475; -215.000; -125.000
200.944;  -18.975; -146.000;  -41.000
201.090;   26.350;   61.000;  222.000
201.236;  -10.850; -116.000; -158.000
201.382;  120.075;  874.000;  903.000
201.528;    0.125;  -58.000;  -48.000
201.674;  -37.875; -386.000; -293.000
201.819;  -55.675; -540.000; -439.000
201.965;  -78.550; -699.000; -447.000
202.111;  -25.775; -273.000; -226.000
202.257;  -46.750; -250.000; -238.000
202.402;   16.525;   13.000;  -36.000
202.548;  -33.425; -169.000; -116.000
202.694;   94.575;  410.000; -183.000
202.840;  -72.650; -603.000; -531.000
202.985;  -82.300; -681.000; -639.000
203.131;  -99.575; -832.000; -666.000
203.277;  -20.825; -199.000; -262.000
203.423;  -49.675; -434.000; -520.000
203.568;  -37.125; -462.000; -237.000
203.714;  -53.925; -535.000; -542.000
203.860;  -88.750; -682.000; -641.000
204.005;    8.400;  112.000;  167.000
204.151;   83.775;  561.000;  556.000
204.296;  -46.450; -354.000; -221.000
204.442;  -60.175; -600.000; -547.000
204.588;  -74.200; -592.000; -579.000
204.733;   20.775;  178.000;  168.000
204.879; -111.875;-1018.000; -822.000
205.025;   15.100;  -99.000;  126.000
205.170;    8.125;  -17.000;   94.000
205.316;   71.700;  438.000;  661.000
205.461;  -72.375; -698.000; -554.000
205.607;   87.925;  609.000;  665.000
205.752;  -73.700; -626.000; -551.000
205.898;  -62.775; -501.000; -391.000
206.043;  -55.075; -578.000; -506.000
206.189;  -49.825; -243.000; -285.000
206.334;   88.450;  554.000;  606.000
206.480;   73.825;  409.000;  239.000
206.625;  -84.625; -529.000; -552.000
206.771;  -42.250; -451.000; -373.000
206.916;  -33.200; -210.000; -537.000
207.062;  -67.125; -545.000; -591.000
207.207;  -46.825; -546.000; -443.000
207.353;   55.150;  185.000;  460.000
207.498;   18.250;  196.000;   85.000
207.643;  -54.225; -501.000; -370.000
207.789; -126.875;-1069.000; -910.000
207.934;  -81.275; -665.000; -713.000
208.080;  -21.050; -154.000;   66.000
208.225;  -15.000;  -22.000;  -57.000
208.370;  -87.850; -727.000; -619.000
208.516;  -70.375; -741.000; -487.000
208.661;  -30.375; -127.000;  -69.000
208.806;  -29.150; -165.000; -171.000
208.952; -130.050;-1044.000; -731.000
209.097;   76.800;  378.000;  349.000
209.242;  -48.100; -307.000; -382.000
209.387;   64.075;  392.000;  350.000
209.533;  -44.275; -321.000; -350.000
209.678;   81.550;  472.000;  543.000
209.823;  -54.900; -408.000; -310.000
209.969;  -94.050; -860.000; -757.000
210.114; -104.125; -907.000; -719.000
210.259; -110.950; -939.000; -889.000
210.404;  -18.175; -171.000;  103.000
210.549;   16.300;  108.000;    3.000
210.695;   -2.425;   -3.000;  -95.000
210.840;   34.750;   94.000;   67.000
210.985;  -69.675; -484.000; -303.000
211.130;   82.775;  268.000;  406.000
211.275;   11.425;  207.000;  199.000
211.420;  -54.625; -300.000; -289.000
211.566;  -56.175; -536.000; -489.000
211.711;   41.725;  218.000;  157.000
211.856;  -68.025; -545.000; -519.000
212.001;   23.850;  151.000;   44.000
212.146;   33.625;  153.000;   49.000
212.291;  -25.675; -210.000; -186.000
212.436;  -39.950; -280.000;   -6.000
212.581;  -79.675; -685.000; -653.000
212.726;  -79.125; -487.000; -538.000
212.871;  -40.450; -552.000; -217.000
213.016; -138.725;-1172.000;-1029.000
213.161;   63.975;  406.000;  291.000
213.306;  -72.725; -435.000; -577.000
213.451;  -79.700; -778.000; -689.000
213.596;  -53.825; -455.000; -347.000
213.741;  -53.525; -448.000; -538.000
213.886;  -61.125; -498.000; -517.000
214.031;  -25.075; -294.000; -124.000
214.176;  -65.425; -408.000; -341.000
214.321;  -23.200; -296.000; -157.000
214.466;  -20.625; -163.000;  -43.000
214.611;   -4.550;  -61.000;  -10.000
214.756; -122.900; -948.000; -858.000
214.901;  -20.450; -388.000; -226.000
215.046; -113.300; -797.000; -825.000
215.191;   17.825;  128.000;   35.000
215.336;  -14.000; -157.000;  -19.000
215.480;  -56.900; -684.000; -505.000
215.625;  -13.850; -175.000;  -19.000
215.770;  -75.050; -757.000; -662.000
215.915;   -6.400;   -5.000;  -97.000
216.060;    0.150; -113.000;  -21.000
216.205; -110.200; -731.000; -779.000
216.349;  -76.150; -470.000; -533.000
216.494; -121.525; -939.000; -867.000
216.639; -106.125; -823.000; -888.000
216.784; -105.250; -577.000; -525.000
216.929;   47.050;  392.000;  281.000
217.073;   -9.275; -244.000;  -31.000
217.218;   12.500;   78.000;  -47.000
217.363;  -93.350; -656.000; -618.000
217.507;  -84.775; -623.000; -588.000
217.652; -137.200; -845.000; -874.000
217.797;  -80.575; -708.000; -659.000
217.942; -108.650; -856.000; -720.000
218.086;   61.825;  608.000;  539.000
218.231;  -22.900; -174.000;  -26.000
218.376;  -37.325; -337.000; -229.000
218.520;   18.350;  -41.000;   96.000
218.665;  -36.750; -338.000; -204.000
218.810;  -41.425; -275.000; -233.000
218.954;   20.250;  201.000;   35.000
219.099; -114.800; -713.000; -963.000
219.243;  -64.200; -589.000; -554.000
219.388;  -38.050; -264.000; -136.000
219.532;  -26.950; -116.000; -116.000
219.677;  -74.925; -564.000; -521.000
219.822;    0.925;   33.000;   89.000
219.966;   -5.650;   17.000;  -99.000
220.111;  -20.475; -328.000;  -40.000
220.255;  -93.100; -797.000; -750.000
220.400;  -17.800; -180.000; -146.000
220.544;  -71.300; -516.000; -450.000
220.689;  -49.450; -422.000; -451.000
220.833;   -5.500; -123.000;  -58.000
220.978;  -44.225; -393.000; -563.000
221.122;   31.725;  319.000;  307.000
221.267; -115.425; -906.000; -837.000
221.411;  -66.675; -478.000; -394.000
221.555;    2.675; -104.000;  -23.000
221.700;  -34.575; -329.000; -222.000
221.844;   37.600;  255.000;  272.000
221.989;  -35.650; -328.000; -311.000
222.133;  -40.750; -289.000; -307.000
222.277;  -15.100;    5.000;   78.000
222.422;    9.125;  227.000;  113.000
222.566;  -50.000; -381.000; -214.000
222.711;  -57.600; -414.000; -479.000
222.855;  -84.425; -643.000; -586.000
222.999;  -86.575; -642.000; -717.000
223.144;  -15.250; -195.000; -194.000
223.288;   53.850;  423.000;  251.000
223.432;   30.575;  184.000;  230.000
223.576;   23.350;  152.000;  -21.000
223.721;   47.475;  364.000;  273.000
223.865;  -69.650; -472.000; -475.000
224.009;  245.700; 1673.000; 1631.000
224.153;  -78.025; -660.000; -671.000
224.298;  -68.575; -531.000; -489.000
224.442;  -20.075;  -74.000;  -33.000
224.586;    1.600; -169.000; -106.000
224.730;  -80.550; -858.000; -670.000
224.875; -103.300; -739.000; -688.000
225.019;   15.275;  102.000;  188.000
225.163;   54.325;  208.000;  341.000
225.307;   35.675;   97.000;  -91.000
225.451;   46.550;  360.000;  481.000
225.595;   30.925;  264.000;  176.000
225.739;   -8.050; -170.000;  -94.000
225.884;   -1.600;   86.000;    5.000
226.028;  -97.950; -760.000; -626.000
226.172;  -42.125; -260.000; -273.000
226.316; -120.800; -941.000; -902.000
226.460;  -68.025; -645.000; -493.000
226.604;  -49.550; -406.000; -400.000
226.748; -104.000; -836.000; -733.000
226.892;  -33.025; -227.000; -181.000
227.036;  -39.025; -537.000; -447.000
227.180;  -57.850; -551.000; -375.000
227.324;  -53.700; -561.000; -580.000
227.468; -112.475; -819.000; -717.000
227.612;   14.775;  242.000;  -28.000
227.756; -102.725; -845.000; -698.000
227.900;   48.475;  342.000;  441.000
228.044;  -66.575; -509.000; -290.000
228.188;   64.325;  448.000;  568.000
228.332;  -82.275; -546.000; -472.000
228.476;  -16.175; -223.000; -149.000
228.620;  -33.275; -210.000; -150.000
228.764;   63.000;  431.000;  349.000
228.908;  -22.425; -155.000;   30.000
229.052;  -60.500; -615.000; -528.000
229.195;  -11.725; -172.000;   13.000
229.339;  -16.175; -235.000; -305.000
229.483;  -36.500;    5.000; -162.000
229.627;    4.525; -156.000;  139.000
229.771;  -46.725; -218.000; -294.000
229.915;   13.200;  230.000;   79.000
230.059;  -95.200; -648.000; -663.000
230.202;  -39.925; -370.000; -317.000
230.346;   -9.000; -107.000;  107.000
230.490;  -74.425; -489.000; -521.000
230.634; -106.100; -736.000; -553.000
230.777;   83.275;  478.000;  509.000
230.921;  -57.625; -450.000; -359.000
231.065;  -39.600; -246.000; -286.000
231.209;   31.650;  261.000;  265.000
231.352;   15.750;   54.000;   40.000
231.496;   19.250;  568.000;  188.000
231.640;  -69.400; -693.000; -621.000
231.783;   74.200;  546.000;  525.000
231.927;  -43.425; -294.000; -365.000
232.071; -129.450; -962.000; -736.000
232.214; -107.375; -980.000; -764.000
232.358;  -97.575; -683.000; -599.000
232.502;    5.550;  -19.000;    7.000
232.645; -136.450;-1090.000; -927.000
232.789;  -28.650; -257.000; -218.000
232.933;  -38.650; -407.000; -224.000
233.076; -128.150;-1038.000; -897.000
233.220;  -96.075; -752.000; -777.000
233.363;  -62.350; -669.000; -477.000
233.507;   56.250;  371.000;  129.000
233.650;  -93.175; -764.000; -834.000
233.794;   56.775;  438.000;  461.000
233.938;  -66.475; -530.000; -362.000
234.081;   -8.850;  -93.000;   31.000
234.225;  -72.500; -631.000; -539.000
234.368; -111.025; -773.000; -723.000
234.512;  -40.475; -385.000; -299.000
234.655;  -91.500; -582.000; -555.000
234.798;  -56.500; -493.000; -466.000
234.942; -114.350; -884.000;-1002.000
235.085;  -67.425; -651.000; -443.000
235.229;  -67.650; -405.000; -410.000
235.372;  -47.425; -247.000; -191.000
235.516;  -59.000; -397.000; -321.000
235.659;   15.000;   92.000;  121.000
235.802;   -3.775;  -38.000;  -22.000
235.946;   21.675;  335.000;  215.000
236.089;   34.650;  126.000;  250.000
236.233;   42.500;  275.000;  298.000
236.376;  -56.025; -235.000; -378.000
236.519;  -48.100; -297.000; -319.000
236.663;  -19.250; -215.000; -117.000
236.806; -132.650;-1029.000; -999.000
236.949;   53.375;  543.000;  431.000
237.092;   70.425;  412.000;  391.000
237.236;  -90.975; -589.000; -502.000
237.379;   63.925;  352.000;  428.000
237.522; -123.800; -879.000; -768.000
237.666;  -26.325; -271.000;   18.000
237.809; -125.750; -851.000; -823.000
237.952;   31.475;  469.000;  271.000
238.095;  -71.325; -447.000; -442.000
238.238;   88.825;  688.000;  700.000
238.382;    6.000;  166.000;  103.000
238.525;  -76.325; -598.000; -511.000
238.668; -119.275;-1060.000; -985.000
238.811;  -82.800; -638.000; -643.000
238.954;  -56.500; -483.000; -334.000
239.097;   84.775;  617.000;  664.000
239.241;   28.100;  394.000;  326.000
239.384;  -24.075; -254.000; -214.000
239.527;  -54.650; -424.000; -224.000
239.670; -145.100; -994.000;-1091.000
239.813; -111.950; -696.000; -658.000
239.956;   77.225;  579.000;  473.000
240.099; -108.125; -778.000; -725.000
240.242;   53.975;  428.000;  432.000
240.385;   43.725;  466.000;  450.000
240.528;  -70.000; -706.000; -473.000
240.671;   19.875;  189.000;  134.000
240.814;  -46.750; -441.000; -158.000
240.957;  -97.025; -767.000; -578.000
241.100;  -94.725; -779.000; -755.000
241.243; -147.900;-1234.000; -893.000
241.386;  -65.075; -508.000; -379.000
241.529;  -92.325; -735.000; -547.000
241.672;  -60.200; -566.000; -495.000
241.815; -112.350; -832.000; -808.000
241.958;  -33.650; -125.000; -182.000
242.101;  -84.175; -545.000; -390.000
242.244;  -41.100; -270.000; -325.000
242.387;  -29.600; -304.000; -246.000
242.530;   67.325;  470.000;  134.000
242.673;  -51.625; -381.000; -309.000
242.815; -115.500; -925.000; -899.000
242.958;  -69.175; -482.000; -381.000
243.101;   16.925;  132.000;  187.000
243.244;  -97.775; -564.000; -521.000
243.387;  -50.175; -313.000; -316.000
243.530; -105.450; -657.000; -674.000
243.672;   -8.075;   43.000;  -92.000
243.815;  -58.000; -355.000; -283.000
243.958;   -3.625;   98.000;  -26.000
244.101;    3.375;   59.000;  -16.000
244.243;   -1.200;  -47.000;  101.000
244.386; -115.850; -761.000; -630.000
244.529;  -20.650; -132.000; -139.000
244.672; -153.200;-1154.000; -951.000
244.814; -108.400; -621.000; -794.000
244.957;  -62.875; -380.000; -304.000
245.100;  -74.075; -489.000; -489.000
245.242;  -58.075; -387.000; -374.000
245.385;   -4.300;  -59.000;  -39.000
245.528; -108.500; -871.000; -705.000
245.670;   79.700;  612.000;  634.000
245.813;  -92.675; -599.000; -547.000
245.956;  -34.250; -324.000; -275.000
246.098;  -66.700; -508.000; -650.000
246.241;    0.800;  194.000;   48.000
246.383;  -17.375; -119.000;  -73.000
246.526;  -75.500; -454.000; -525.000
246.669; -119.975; -889.000; -780.000
246.811;   14.800;  172.000;   -1.000
246.954;  -74.125; -512.000; -426.000
247.096;  -37.625;  -84.000;   -6.000
247.239;  -72.700; -482.000; -445.000
247.381;  -64.450; -647.000; -488.000
247.524;   84.475;  645.000;  679.000
247.666;  -16.325;   58.000;   11.000
247.809; -122.600; -887.000; -691.000
247.951;   -5.650;  -75.000;  138.000
248.094;   24.025;  432.000;  308.000
248.236; -164.575;-1262.000;-1238.000
248.378;    5.425; -356.000;  -81.000
248.521;  -26.575; -334.000; -337.000
248.663;  -43.425; -236.000; -267.000
248.806;  -10.875; -300.000; -266.000
248.948;  -93.475; -886.000; -763.000
249.090;  -41.950; -428.000; -398.000
249.233;  -46.150; -344.000; -381.000
249.375;  -62.325; -474.000; -451.000
249.518;  -13.975;  -83.000; -133.000
249.660;    2.350; -103.000;    3.000
249.802; -164.325;-1303.000;-1189.000
249.945;  -84.875; -612.000; -540.000
250.087; -115.425; -834.000; -768.000
250.229;  -59.100; -362.000; -480.000
250.371;  -70.000; -494.000; -439.000
250.514;  -46.575; -310.000; -244.000
250.656;    6.500;   69.000;  102.000
250.798; -116.825; -849.000; -800.000
250.940;  -72.150; -322.000; -322.000
251.083;  -31.975; -335.000; -111.000
251.225;   63.450;  338.000;  310.000
251.367;  -35.225; -274.000; -373.000
251.509;  -34.425; -265.000; -210.000
251.651;  -93.750; -731.000; -671.000
251.794;   55.350;  538.000;  632.000
251.936; -105.000; -821.000; -747.000
252.078;  -78.300; -540.000; -461.000
252.220;  -66.375; -645.000; -477.000
252.362;   85.625;  344.000;  462.000
252.504;  -65.700; -677.000; -584.000
252.646; -115.875; -875.000; -722.000
252.788;    1.900;   14.000; -128.000
252.931;  -45.000; -257.000; -253.000
253.073;  -35.750; -376.000; -317.000
253.215;   -0.625;  141.000;  122.000
253.357;    2.575;   82.000; -153.000
253.499;  -45.525; -374.000; -234.000
253.641;  -83.150; -749.000; -594.000
253.783;  -92.300; -609.000; -527.000
253.925;  -91.575; -586.000; -591.000
254.067; -106.625; -744.000; -667.000
254.209;  -22.575; -391.000; -259.000
254.351; -126.825; -865.000; -883.000
254.493;  -68.925; -441.000; -417.000
254.635; -137.500; -936.000; -818.000
254.777;  -88.550; -752.000; -687.000
254.918;  -66.875; -512.000; -430.000
255.060;  -68.525; -551.000; -395.000
255.202;  -59.350; -473.000; -261.000
255.344;  -64.925; -658.000; -455.000
255.486;  -67.675; -471.000; -406.000
255.628; -109.300; -780.000; -781.000
255.770;  -88.350; -676.000; -536.000
255.912;  -61.125; -559.000; -468.000
256.053;  -74.000; -730.000; -508.000
256.195;  152.975; 1008.000;  903.000
256.337; -103.125; -861.000; -595.000
256.479;   63.275;  532.000;  416.000
256.621;  -40.475; -394.000; -212.000
256.762;  -84.825; -789.000; -742.000
256.904;   61.275;  485.000;  487.000
257.046;  -38.350; -381.000; -271.000
257.188;  -48.025; -351.000; -264.000
257.329;  -73.725; -525.000; -464.000
257.471; -121.250; -939.000; -807.000
257.613;  -57.550; -584.000; -498.000
257.755; -142.975;-1073.000; -982.000
257.896;   40.425;  286.000;  392.000
258.038;  -66.500; -403.000; -352.000
258.180;  -29.625; -354.000; -279.000
258.321;  -92.900; -581.000; -457.000
258.463;  -14.900;  -71.000;  133.000
258.605;  -90.700; -562.000; -570.000
258.746; -108.400; -886.000; -772.000
258.888; -165.975;-1026.000;-1020.000
259.029;   34.200;  121.000;   -8.000
259.171;  -84.900; -614.000; -550.000
259.313;   -0.975;  -49.000;  -47.000
259.454;  -77.850; -536.000; -414.000
259.596;  -52.675; -483.000; -390.000
259.737;  -72.450; -590.000; -474.000
259.879;   34.400;  217.000;  311.000
260.020;   84.500;  901.000;  636.000
260.162;  -36.525; -146.000; -253.000
260.303; -113.250; -768.000; -687.000
260.445;  -85.300; -609.000; -613.000
260.586;   33.750;  392.000;  157.000
260.728;  -37.275; -360.000; -248.000
260.869;  -69.400; -350.000; -343.000
261.011;   83.925;  706.000;  537.000
261.152;  -62.950; -479.000; -319.000
261.293;  -87.650; -576.000; -595.000
261.435;  -32.275; -219.000; -184.000
261.576;  -45.050; -455.000; -325.000
261.718;   51.375;  420.000;  470.000
261.859; -131.250; -940.000; -949.000
262.000; -134.325; -951.000;-1016.000
262.142;  -13.800;  -52.000;  -60.000
262.283; -115.300; -808.000; -691.000
262.424;  -86.500; -666.000; -625.000
262.566; -161.800;-1161.000; -983.000
262.707; -122.425; -840.000; -830.000
262.848; -116.275; -769.000; -726.000
262.990;  -53.150; -362.000; -345.000
263.131;   83.175;  650.000;  681.000
263.272;   -1.325;  -61.000;  -41.000
263.413;  -80.450; -589.000; -561.000
263.555;  -67.750; -669.000; -143.000
263.696;  -93.475; -550.000; -641.000
263.837;  -65.625; -449.000; -551.000
263.978;  -10.800;   -5.000;  -77.000
264.119;  -43.025; -283.000; -264.000
264.261;  -99.675; -847.000; -630.000
264.402;   -0.250;   33.000;   40.000
264.543;  -87.400; -509.000; -524.000
264.684;  -11.750;   61.000;  -50.000
264.825;  -79.525; -816.000; -538.000
264.966;   -7.925;  -84.000;  -67.000
265.107; -117.375; -646.000; -670.000
265.248; -123.675; -825.000; -812.000
265.390;   -6.300;  152.000;   -9.000
265.531;  -41.775; -238.000; -107.000
265.672;  -91.550; -557.000; -630.000
265.813;   70.875;  563.000;  439.000
265.954; -145.575; -959.000; -940.000
266.095;  -27.850; -372.000; -322.000
266.236; -106.450; -686.000; -548.000
266.377;  -36.100; -243.000; -297.000
266.518;  -90.000; -619.000; -547.000
266.659;   19.975;  170.000;  268.000
266.800;    4.550;   83.000;   85.000
266.941;  -86.675; -487.000; -478.000
267.082;   31.850;  354.000;   99.000
267.223;  -56.500; -344.000; -273.000
267.364; -123.300; -892.000; -686.000
267.504;  -19.200;    3.000;  135.000
267.645;   -8.275;  160.000;   67.000
267.786;  -41.425; -147.000;  -86.000
267.927;  -86.725; -473.000; -379.000
268.068;  -32.075; -186.000;  -61.000
268.209;  -43.725; -175.000; -413.000
268.350;  -58.550; -388.000; -532.000
268.490;  -78.175; -648.000; -521.000
268.631;   34.300;  127.000;  225.000
268.772; -120.225; -874.000; -647.000
268.913;  -45.875; -328.000; -476.000
269.054;  -22.250; -117.000;   12.000
269.194;  -55.600; -418.000; -402.000
269.335; -151.725;-1137.000;-1074.000
269.476;   -7.725;   33.000;  -35.000
269.617;  -57.200; -347.000; -392.000
269.757;  -92.475; -713.000; -646.000
269.898;  -96.850; -856.000; -613.000
270.039;  -70.025; -415.000; -405.000
270.180; -130.825; -952.000; -816.000
270.320;  -26.400; -190.000; -250.000
270.461;  -57.175; -277.000; -249.000
270.602;  -15.300; -186.000; -156.000
270.742; -113.525; -868.000; -943.000
270.883;  -66.075; -442.000; -390.000
271.023;  -61.925; -358.000; -357.000
271.164;  -65.700; -607.000; -528.000
271.305;  -96.650; -666.000; -654.000
271.445; -104.525; -722.000; -683.000
271.586;  -64.800; -462.000; -283.000
271.726;  -42.325; -397.000; -322.000
271.867;  -53.125; -594.000; -534.000
272.008;  181.650; -473.000; -285.000
272.148;  111.000;  462.000;  468.000
272.289;   12.425; -113.000; -181.000
272.429;   10.400;   19.000;  185.000
272.570;  -93.975; -633.000; -737.000
272.710;  -94.450; -825.000; -775.000
272.851;  -24.050;  113.000; -130.000
272.991; -149.425;-1173.000;-1077.000
273.131;  -68.575; -419.000; -459.000
273.272; -101.050; -683.000; -723.000
273.412;    5.900; -143.000;  -31.000
273.553;  -47.550; -488.000; -507.000
273.693;  124.175;  913.000;  858.000
273.834;  -93.125; -894.000; -692.000
273.974;  -73.750; -664.000; -615.000
274.114; -106.425; -772.000; -560.000
274.255;   86.025;  414.000;  373.000
274.395;   15.125; -180.000; -125.000
274.535;   38.450;  199.000;  350.000
274.676;   35.400;  225.000;   94.000
274.816;    6.925;  110.000;   34.000
274.956;  -83.600; -624.000; -690.000
275.097;  -58.500;-1014.000; -922.000
275.237; -114.975; -913.000; -803.000
275.377;  -85.750; -778.000; -689.000
275.517; -152.650; -878.000; -937.000
275.658;  -59.725; -590.000; -555.000
275.798;  -66.825; -606.000; -413.000
275.938;   17.100;  215.000;  323.000
276.078;  -98.400; -626.000; -395.000
276.218;   16.075;   99.000;  104.000
276.359; -134.050;-1026.000;-1024.000
276.499;  -53.875; -605.000; -446.000
276.639;  -28.175; -305.000; -151.000
276.779;  -46.275; -475.000; -357.000
276.919;  -96.725; -783.000; -624.000
277.059;  -19.000; -261.000; -212.000
277.199;  -54.250; -357.000; -259.000
277.340;   46.100;  287.000;  175.000
277.480; -112.525; -840.000; -693.000
277.620;   14.975;  192.000;   16.000
277.760; -190.575;-1533.000;-1294.000
277.900;   -0.300;  113.000;   33.000
278.040;   28.350;  137.000;  159.000
278.180;   33.450;  270.000;  170.000
278.320;   -5.750;   21.000;   56.000
278.460;  -62.500; -443.000; -469.000
278.600;  -89.800; -708.000; -598.000
278.740;   40.950;  448.000;  224.000
278.880;  -77.575; -768.000; -791.000
279.020;   -3.000; -194.000; -144.000
279.160;  -90.175; -672.000; -595.000
279.300; -119.600; -926.000; -873.000
279.440;  -88.100; -709.000; -622.000
279.579;  -31.475;-1014.000; -929.000
279.719;  -61.000; -410.000; -394.000
279.859;   73.575;   -4.000;   41.000
279.999;   22.350; -208.000;  101.000
280.139;  -21.975; -435.000; -387.000
280.279;  -93.975; -708.000; -745.000
280.419;  -28.775; -229.000; -147.000
280.559;  -27.725; -259.000; -180.000
280.698;  -82.025; -790.000; -639.000
280.838; -108.525; -778.000; -800.000
280.978; -113.125; -846.000; -790.000
281.118; -116.925; -811.000; -704.000
281.257;   10.075;   24.000;    6.000
281.397; -129.100;-1094.000; -960.000
281.537;  -98.500; -599.000; -712.000
281.677;  -29.900; -150.000; -101.000
281.816;  -92.400; -700.000; -630.000
281.956;  -36.075; -193.000; -257.000
282.096;  -65.100; -539.000; -396.000
282.235;  -99.575; -672.000; -638.000
282.375;  -34.675; -243.000;  -98.000
282.515; -114.800; -715.000; -707.000
282.654;   25.600;   29.000;  106.000
282.794;   33.000;  388.000;  244.000
282.934;  -60.675; -530.000; -491.000
283.073; -142.675;-1030.000; -857.000
283.213;  -68.525; -460.000; -467.000
283.353;  -38.650; -408.000; -349.000
283.492;  -41.875; -264.000; -296.000
283.632;  -54.000; -254.000; -168.000
283.771;  -98.700; -859.000; -730.000
283.911;  -38.950; -369.000; -260.000
284.050; -112.000; -794.000; -748.000
284.190; -156.450;-1229.000;-1096.000
284.329; -145.150;-1055.000; -964.000
284.469;  -67.925; -516.000; -591.000
284.608;  -77.525; -559.000; -598.000
284.748;  -85.575; -614.000; -570.000
284.887;  -11.850;  -87.000;  -20.000
285.027; -116.275; -844.000; -892.000
285.166;  -43.850; -192.000; -249.000
285.306;   -7.075; -116.000;  -33.000
285.445;  -44.300; -229.000; -343.000
285.584;  -94.950; -630.000; -494.000
285.724;  -40.175; -282.000; -322.000
285.863; -102.325; -857.000; -507.000
286.002;  -51.125; -366.000; -276.000
286.142; -108.175; -715.000; -622.000
286.281;  -69.975; -525.000; -493.000
286.420;  -65.375; -554.000; -417.000
286.560;  104.850;  653.000;  623.000
286.699; -138.975; -958.000; -912.000
286.838;  -82.500; -590.000; -591.000
286.978;  -89.875; -533.000; -537.000
287.117; -128.450;-1085.000; -950.000
287.256;  -52.150; -228.000; -211.000
287.395;  -42.850; -197.000; -378.000
287.535;  -50.125; -370.000; -298.000
287.674;  -74.525; -509.000; -484.000
287.813;   53.975;  661.000;  533.000
287.952; -130.275;-1010.000; -871.000
288.091; -148.800;-1049.000; -915.000
288.231;   13.325;   13.000;   15.000
288.370; -179.225;-1217.000;-1200.000
288.509;  -96.925; -728.000; -645.000
288.648;  -88.000; -770.000; -548.000
288.787;  -37.450; -243.000;  -87.000
288.926;  -53.625; -454.000; -475.000
289.065;  110.875;  859.000;  672.000
289.204;  -56.550; -377.000; -217.000
289.344;  -90.850; -791.000; -690.000
289.483;   16.450;  416.000;  304.000
289.622;  -29.875; -291.000; -149.000
289.761;  -17.350; -309.000; -166.000
289.900; -113.975; -785.000; -626.000
290.039;   -5.675;  -12.000;  -95.000
290.178;  -51.875; -274.000; -180.000
290.317;  -69.250; -618.000; -479.000
290.456;  -68.725; -463.000; -451.000
290.595; -144.275; -961.000; -833.000
290.734; -141.375; -904.000; -891.000
290.873;  -72.475; -456.000; -420.000
291.011; -118.400; -833.000; -843.000
291.150; -107.725; -770.000; -682.000
291.289;  -23.150; -343.000; -110.000
291.428;  -90.000; -599.000; -480.000
291.567;  -54.725; -370.000; -442.000
291.706;   -5.175;  109.000;  154.000
291.845;  -92.275; -597.000; -505.000
291.984; -171.700;-1234.000;-1061.000
292.122;   63.075;  602.000;  582.000
292.261;   45.800;  620.000;  463.000
292.400;    2.925; -144.000;  211.000
292.539; -125.025; -959.000; -813.000
292.678;  -30.325; -325.000; -300.000
292.816; -158.800;-1136.000; -965.000
292.955;  -91.425; -844.000; -684.000
293.094;  -28.900; -173.000; -337.000
293.233;  -65.075; -556.000; -400.000
293.371;  -29.275; -225.000;  -84.000
293.510; -109.150; -866.000; -780.000
293.649; -141.850; -959.000; -924.000
293.787;  -72.175;-1083.000;-1012.000
293.926;  -17.850; -113.000;  -32.000
294.065;  -46.625; -379.000; -290.000
294.203;   41.250;  298.000;  406.000
294.342;   23.325;   74.000;  156.000
294.481; 5803.050;51180.000; -836.000
294.619;  -39.650; -425.000; -582.000
294.758; -148.625;-1230.000;-1137.000
294.896;   53.775; -125.000;    5.000
295.035; -122.775;-1040.000;-1006.000
295.174; -118.100;-1082.000; -954.000
295.312;  -46.875; -323.000; -203.000
295.451;  -12.025; -307.000; -428.000
295.589;  -51.100; -389.000; -518.000
295.728;   10.375; -292.000; -165.000
295.866;   -5.075;  -36.000;  -51.000
296.005;  -71.100; -584.000; -341.000
296.143;  -79.925; -558.000; -596.000
296.282; -111.125; -957.000; -881.000
296.420;  -88.250; -657.000; -557.000
296.559;  -84.750; -892.000; -633.000
296.697;    4.575; -847.000; -665.000
296.835;   31.900;-1141.000;-1002.000
296.974;   44.250;  -23.000;   39.000
297.112;  -12.675; -443.000; -504.000
297.251;  -89.575; -815.000; -755.000
297.389;   71.725; -576.000; -438.000
297.527;   20.975; -145.000;  -83.000
297.666;  -54.950; -486.000; -438.000
297.804;  -52.850; -404.000; -264.000
297.942;   -8.275; -136.000; -161.000
298.081;   -5.875; -183.000;   63.000
298.219;   57.825;  -17.000;  -19.000
298.357;   31.000; -144.000;  -71.000
298.495;   15.100; -810.000; -812.000
298.634;   56.550;  245.000;  219.000
298.772;   35.000; -220.000; -338.000
298.910;  -51.950; -309.000; -182.000
299.048;   -7.450; -130.000; -153.000
299.187;  -50.900; -350.000; -250.000
299.325;    2.800;   52.000;  122.000
299.463;   19.250; -389.000; -299.000
299.601;   82.925; -327.000; -271.000
299.739; -107.600; -908.000; -883.000
299.877;  -77.750; -791.000; -703.000
300.016;  -63.550;-1095.000; -935.000
300.154;  139.550;  -19.000; -161.000
300.292;   25.725; -428.000; -348.000
300.430;   19.825; -408.000; -291.000
300.568; -105.950; -940.000; -874.000
300.706;  -53.075; -366.000; -469.000
300.844;  -97.675;-1108.000; -979.000
300.982;  107.500;  246.000;  282.000
301.120; -110.175; -965.000; -866.000
301.258;  -78.825; -812.000; -705.000
301.396;   26.225;  104.000;  -41.000
301.534;   45.225; -218.000; -293.000
301.672;  -19.975; -664.000; -521.000
301.810;    0.800; -613.000; -545.000
301.948;   94.150;   53.000;  149.000
302.086;  548.900; -250.000;  -32.000
302.224;  810.500; -610.000; -585.000
302.362;   13.550; -558.000; -622.000
302.500;  -44.200; -923.000; -893.000
302.638;   85.975;  128.000;  245.000
302.776;   -6.150; -352.000; -408.000
302.913;   39.700;  447.000;  236.000
303.051;    2.325;  -86.000;  -23.000
303.189;   44.600;   90.000;  118.000
303.327;  -48.175; -341.000; -256.000
303.465;  -83.225; -832.000; -588.000
303.603;  -97.000; -805.000; -604.000
303.740;   91.150;  417.000;  241.000
303.878;   -4.850; -800.000; -759.000
304.016;  -84.450; -915.000; -790.000
304.154; -127.800;-1123.000;-1152.000
304.291;  -50.200; -505.000; -554.000
304.429;    3.875;  102.000;   74.000
304.567; -136.650; -908.000; -893.000
304.705;  -60.050; -408.000; -515.000
304.842;   70.325; -616.000; -540.000
304.980;   49.775;  215.000;   35.000
305.118;   18.575; -367.000; -365.000
305.255;  -70.450; -945.000; -927.000
305.393;   57.800;  178.000;  239.000
305.531; -114.950;-1173.000; -956.000
305.668;  -79.525; -663.000; -582.000
305.806;   99.250; -358.000; -439.000
305.943;   83.850; -629.000; -637.000
306.081;   43.250; -378.000; -267.000
306.219; -106.000; -863.000; -748.000
306.356;    3.375;  158.000;   27.000
306.494;   89.850;  981.000;  761.000
306.631;   -6.900;  -11.000;  -55.000
306.769;    5.125; -613.000; -485.000
306.906;  -28.675; -284.000; -258.000
307.044;  -68.550; -473.000; -488.000
307.181;  -65.300; -410.000; -332.000
307.319;    9.250;  112.000;   87.000
307.456; -165.375;-1191.000;-1153.000
307.594;  -98.450; -980.000; -727.000
307.731;  -13.250; -371.000; -164.000
307.868;    9.000;  -15.000;   20.000
308.006; -132.725; -961.000; -847.000
308.143;  -75.975; -618.000; -330.000
308.281;  115.575;  -37.000; -254.000
308.418;  -31.075; -748.000; -640.000
308.555;  -80.125; -400.000; -250.000
308.693;  -82.075; -577.000; -573.000
308.830; -113.850; -712.000; -657.000
308.967;  -18.650; -215.000;  -95.000
309.105;  -67.725; -507.000; -396.000
309.242;   -0.800; -468.000; -367.000
309.379;  206.925; -577.000; -655.000
309.517;  -89.100; -936.000; -948.000
309.654; -102.450; -910.000; -734.000
309.791;  -80.900; -662.000; -580.000
309.928; -123.575; -977.000; -914.000
310.065;  158.250;  819.000;  697.000
310.203;  -27.975; -825.000; -850.000
310.340;  -22.175; -465.000; -321.000
310.477;  -78.325; -412.000; -516.000
310.614;  -77.950; -383.000; -473.000
310.751;  -84.850; -427.000; -518.000
310.889;  -22.475;    1.000;   11.000
311.026; -152.075;-1161.000; -939.000
311.163;  -58.075; -386.000; -380.000
311.300;  -77.925; -512.000; -479.000
311.437;  -83.450; -658.000; -619.000
311.574; -161.250;-1226.000; -985.000
311.711;  -60.350; -595.000; -433.000
311.848;  -45.125; -380.000; -388.000
311.985;   10.275;  270.000;   93.000
312.122; -116.200; -932.000; -762.000
312.259; -123.400; -941.000; -994.000
312.396;  -80.575; -508.000; -551.000
312.533;  -98.325; -812.000; -790.000
312.670; -131.900;-1070.000; -898.000
312.807;  -36.925; -352.000; -367.000
312.944;  -83.025; -513.000; -611.000
313.081;  -40.000; -150.000; -415.000
313.218; -101.275;-1111.000; -867.000
313.355;   -9.950; -531.000; -449.000
313.492;   -8.525; -455.000; -292.000
313.629;  125.325;  815.000;  735.000
313.766; -171.325;-1176.000;-1008.000
313.902;  -14.600; -186.000;   21.000
314.039;  -48.475; -372.000; -289.000
314.176;   22.675;  286.000;  192.000
314.313;  -80.000; -569.000; -473.000
314.450;  -79.775; -788.000; -684.000
314.587;  -59.325; -468.000; -480.000
314.723;   -4.725;  -78.000;  130.000
314.860;   19.775;  318.000;  332.000
314.997;   21.125;  223.000;  142.000
315.134;  -45.500; -385.000; -368.000
315.270;  -38.025; -480.000; -496.000
315.407; -129.350;-1094.000; -967.000
315.544;  -52.825; -657.000; -538.000
315.681;  -84.500; -681.000; -565.000
315.817;   14.450; -133.000; -176.000
315.954;   -5.800; -613.000; -392.000
316.091; -140.150;-1045.000;-1023.000
316.227;  -27.250;  -71.000; -179.000
316.364;   -8.825;   23.000;    6.000
316.500;  -46.225; -113.000; -300.000
316.637;  -48.200; -181.000; -302.000
316.774;  -84.975; -625.000; -358.000
316.910;  -83.825; -598.000; -629.000
317.047;  -82.750; -487.000; -351.000
317.183;  -54.950; -435.000; -566.000
317.320;  -14.900; -367.000; -321.000
317.456;  -64.350; -733.000; -805.000
317.593; -107.050; -598.000; -641.000
317.729;    1.525;  168.000;  -67.000
317.866; -199.850;-1434.000;-1285.000
318.002; -100.200; -708.000; -948.000
318.139; -106.875; -883.000; -867.000
318.275; -114.450;-1003.000; -738.000
318.412;  -64.375; -517.000; -336.000
318.548;  -55.725; -751.000; -720.000
318.685;  -99.875; -985.000; -888.000
318.821;  -99.600; -762.000; -735.000
318.957;  -13.875;   34.000;  -23.000
319.094;   30.950;  297.000;  154.000
319.230;  -79.350; -756.000; -742.000
319.367;  107.825; -471.000; -520.000
319.503;   31.875; -538.000; -436.000
319.639; -102.650; -877.000; -793.000
319.775;  -72.000; -750.000; -685.000
319.912;  -76.200; -424.000; -519.000
320.048;  -96.250;-1184.000;-1184.000
320.184;   77.225;   59.000;   70.000
320.321;  -56.675; -497.000; -467.000
320.457;   55.350;  475.000;  662.000
320.593;  -61.300; -375.000; -382.000
320.729; -106.825; -732.000; -734.000
320.866;  -92.300; -577.000; -635.000
321.002;  -93.550; -759.000; -809.000
321.138;  -14.250; -135.000; -211.000
321.274;   61.950; -148.000; -115.000
321.410;  -38.025; -585.000; -353.000
321.546;  -51.950;-1011.000; -911.000
321.683;   53.825;  400.000;  185.000
321.819;   -2.275;  -48.000; -117.000
321.955; -111.750; -743.000; -722.000
322.091;  -44.825; -585.000; -540.000
322.227;  -29.950; -382.000; -202.000
322.363;  -22.300; -320.000; -215.000
322.499;  -52.275; -343.000; -331.000
322.635;  136.650;  636.000;  443.000
322.771;   11.775; -139.000;   12.000
322.907;   95.775;  129.000;  327.000
323.043;  -30.000; -115.000; -206.000
323.179;  -47.375; -394.000; -363.000
323.315;    5.425; -401.000; -371.000
323.451;   75.550; -328.000; -236.000
323.587;   50.025;  -60.000;  -77.000
323.723;  -11.500; -682.000; -601.000
323.859;  -26.700; -258.000;  -76.000
323.995;  -30.250; -467.000; -409.000
324.131; -118.325; -967.000; -892.000
324.267;  -61.400; -254.000; -276.000
324.402; -129.375; -960.000; -983.000
324.538;  -36.100; -279.000; -104.000
324.674;   11.525;  164.000;   77.000
324.810;   88.000;  226.000;  308.000
324.946;  -15.150; -810.000; -658.000
325.082;  -61.800; -568.000; -475.000
325.217;   -7.975;  -62.000;   16.000
325.353; -111.550; -764.000; -659.000
325.489; -113.350; -540.000; -506.000
325.625;  -75.600; -579.000; -525.000
325.760;   59.725;  517.000;  376.000
325.896;  -27.550; -515.000; -702.000
326.032;  -51.800; -403.000; -352.000
326.168;  -65.050; -462.000; -369.000
326.303;  -66.950; -352.000; -461.000
326.439;  -23.800; -336.000; -276.000
326.575;   -3.050; -190.000;  -29.000
326.710;  -16.475; -156.000;  -30.000
326.846;   -3.100;  146.000;  103.000
326.982;  -96.175; -530.000; -548.000
327.117;  -86.825; -481.000; -442.000
327.253;  -89.400; -745.000; -742.000
327.388; -164.625;-1137.000;-1153.000
327.524;  -71.275; -811.000; -578.000
327.659;  -13.175;  -58.000;  -22.000
327.795;  -20.325;   69.000;   45.000
327.931;  -86.500; -723.000; -499.000
328.066;  -34.675; -417.000; -276.000
328.202;  -25.075;   12.000; -129.000
328.337;  101.850;  957.000;  713.000
328.473;   35.300;  -12.000;  -74.000
328.608;  -22.175; -256.000; -267.000
328.743; -104.075; -799.000; -664.000
328.879;   31.500;  214.000;  114.000
329.014;  -37.950; -102.000; -122.000
329.150;  -72.075; -358.000; -483.000
329.285;  -87.450; -465.000; -466.000
329.421;  -58.000; -548.000; -246.000
329.556;  -33.100;  -36.000;   85.000
329.691;  -88.675; -633.000; -615.000
329.827;  -86.450; -626.000; -480.000
329.962;  -54.475;  131.000; -301.000
330.097;  -91.400; -673.000; -585.000
330.233;  -49.350; -410.000; -223.000
330.368; -121.000; -839.000; -628.000
330.503;  -17.750;    3.000;   98.000
330.638;    0.425;  -93.000; -125.000
330.774;  -69.050; -609.000; -530.000
330.909;  -54.175; -434.000; -244.000
331.044;  -95.800; -714.000; -708.000
331.179; -169.700;-1217.000;-1109.000
331.315;    7.300;   77.000;   20.000
331.450;    8.125;  157.000;  285.000
331.585;  -99.850; -805.000; -706.000
331.720;  -76.275; -510.000; -460.000
331.855;  -18.700;  -35.000; -102.000
331.990;  266.775;   62.000;  138.000
332.126;  136.800; -110.000;   71.000
332.261;  -29.400; -379.000; -265.000
332.396;   -3.050; -135.000; -242.000
332.531; -104.475;-1074.000;-1031.000
332.666;   33.725; -519.000; -363.000
332.801; -111.300; -726.000; -807.000
332.936;  -36.225; -192.000; -122.000
333.071; -128.025; -870.000; -817.000
333.206;   13.650;  307.000;  379.000
333.341;   24.375;  344.000;  418.000
333.476;  -92.850; -627.000; -623.000
333.611;  -54.175; -251.000; -173.000
333.746;  -52.150; -381.000; -464.000
333.881; -131.725; -973.000; -935.000
334.016; -138.625; -936.000; -917.000
334.151; -128.250; -746.000; -702.000
334.286;   13.725;  152.000;  186.000
334.421;  -30.775; -125.000; -178.000
334.556;  -90.150; -611.000; -567.000
334.690; -108.175; -631.000; -577.000
334.825;   49.775;  381.000;   83.000
334.960;  -52.825; -285.000; -413.000
335.095;   -3.625;  135.000;  -91.000
335.230; -100.750; -722.000; -738.000
335.365; -145.025;-1084.000; -990.000
335.499; -136.225;-1108.000;-1037.000
335.634;   15.025;    9.000;  534.000
335.769; -105.450; -755.000; -720.000
335.904;  -85.900; -603.000; -561.000
336.038;  -66.600; -735.000; -657.000
336.173; -127.800;-1206.000;-1194.000
336.308;    0.300; -116.000; -189.000
336.443;   17.825; -544.000; -634.000
336.577;  -83.775; -936.000; -787.000
336.712;   46.825;   -4.000;  -12.000
336.847;  -45.675; -724.000; -607.000
336.981;   41.500; -272.000; -208.000
337.116;  247.700;  615.000;  501.000
337.250;  120.600; -434.000; -421.000
337.385;  264.750; -297.000; -208.000
337.520;   86.700; -632.000; -603.000
337.654;  -33.000; -215.000; -126.000
337.789; -133.800; -989.000; -933.000
337.923;  -41.925; -104.000; -205.000
338.058;  -98.700; -673.000; -738.000
338.192;  -40.625; -611.000; -488.000
338.327;   -5.050;  -18.000; -155.000
338.461;  -53.100; -299.000; -469.000
338.596;  -85.225; -780.000; -638.000
338.730; -108.525; -767.000; -803.000
338.865;   93.825;  -46.000; -140.000
338.999;  -38.875; -846.000; -702.000
339.134;  -31.550; -634.000; -536.000
339.268;   10.400; -741.000; -603.000
339.403;  372.325; -740.000; -775.000
339.537;  127.775; -894.000; -820.000
339.671; -116.175; -829.000; -813.000
339.806;  -77.350; -556.000; -512.000
339.940;   14.175; -261.000; -235.000
340.074; -100.375; -685.000; -510.000
340.209;  -49.525; -351.000; -230.000
340.343;  -88.300; -517.000; -573.000
340.477;  145.950;  998.000; 1036.000
340.612;  -55.400;-1033.000; -900.000
340.746;  125.750; -199.000; -243.000
340.880;  -71.875; -924.000; -785.000
341.014;  -12.800;  -45.000; -154.000
341.149; -117.525; -756.000; -718.000
341.283; -123.275; -839.000; -754.000
341.417; -108.750;-1124.000; -938.000
341.551;   89.800; -768.000; -708.000
341.685;  -47.875; -633.000; -611.000
341.820;  -60.675; -562.000; -493.000
341.954;  -59.850; -218.000; -349.000
342.088; -140.025;-1102.000;-1019.000
342.222;   47.375;  565.000;  618.000
342.356;  -78.350; -395.000; -335.000
342.490; -112.375; -880.000; -841.000
342.624;  -52.825; -339.000; -242.000
342.758;  -29.475; -364.000; -312.000
342.892;  -77.700; -710.000; -585.000
343.026;  -40.100;  -58.000; -116.000
343.160;  -67.225; -426.000; -376.000
343.294;  -97.875; -474.000; -337.000
343.428;  -34.525; -488.000; -448.000
343.562;  -26.175; -172.000;  -23.000
343.696;  -35.800; -385.000; -314.000
343.830;  -31.925; -362.000; -356.000
343.964;    9.450; -231.000; -168.000
344.098;  807.925;  199.000;   70.000
344.232;  649.250; -266.000; -127.000
344.366;   63.150; -567.000; -453.000
344.500;   25.275; -665.000; -744.000
344.634;    3.450; -324.000; -164.000
344.768;  -25.975; -531.000; -341.000
344.902;   32.150;  278.000;  256.000
345.035;  -89.200; -556.000; -496.000
345.169; -141.500; -933.000; -656.000
345.303;  -69.750; -308.000; -482.000
345.437;  -80.300; -826.000; -717.000
345.571;  -73.950; -675.000; -594.000
345.704;  -72.225; -309.000; -532.000
345.838;  -26.675; -331.000; -284.000
345.972;  -45.875; -543.000; -495.000
346.106;  156.750; -179.000; -190.000
346.239;  395.675; -312.000; -243.000
346.373;    2.975; -343.000; -302.000
346.507; -145.300; -950.000; -962.000
346.640;  115.725;  -30.000;   13.000
346.774;  -71.400; -650.000; -797.000
346.908;  -27.925; -138.000;  -11.000
347.041;  -96.825; -646.000; -593.000
347.175;   -1.375;  259.000;   27.000
347.309;  -73.500; -698.000; -628.000
347.442; -109.300; -883.000; -732.000
347.576;  228.700;  670.000;  668.000
347.709;  156.675; -123.000;  -52.000
347.843; -102.575; -933.000; -825.000
347.976;   36.700;  235.000;  294.000
348.110; -183.775;-1268.000;-1186.000
348.243; -118.100; -679.000; -772.000
348.377;   18.300;  -26.000;   60.000
348.510;   48.550;  403.000;  540.000
348.644;  -39.775;  -37.000; -159.000
348.777;    0.475;  180.000;  191.000
348.911;  -53.325; -142.000; -112.000
349.044;  136.875;  471.000;  448.000
349.178;  100.650;-1069.000;-1006.000
349.311;  109.050;  141.000;  255.000
349.444;   -8.900; -927.000; -813.000
349.578;  -23.850; -347.000; -200.000
349.711; -107.325; -959.000; -862.000
349.845;  -28.675; -661.000; -591.000
349.978; -145.000;-1224.000;-1137.000
350.111; -102.375; -546.000; -612.000
350.244;  -86.125; -596.000; -700.000
350.378;   -8.975; -392.000; -393.000
350.511;  -75.625; -393.000; -426.000
350.644; -119.425; -808.000; -806.000
350.778;   -1.175;  168.000;  104.000
350.911;   -4.000;  134.000;  140.000
351.044; -102.200; -685.000; -615.000
351.177;  -31.425; -321.000; -281.000
351.310;  -10.600;    3.000; -131.000
351.444;  -92.425; -888.000; -788.000
351.577;   89.025;  140.000;   90.000
351.710;   93.075;  593.000;  417.000
351.843;  -35.025; -165.000;  -77.000
351.976;  -11.200;  149.000;  -79.000
352.109;  -96.475; -621.000; -612.000
352.242;  -43.625; -464.000; -419.000
352.376;  -65.125; -580.000; -636.000
352.509;  140.700; -437.000; -356.000
352.642;  -12.025; -654.000; -604.000
352.775;   42.925; -141.000;  -98.000
352.908; -134.650; -933.000; -904.000
353.041; -105.000; -814.000; -824.000
353.174;  -74.100; -551.000; -424.000
353.307; -103.875; -753.000; -764.000
353.440;   65.200;  541.000;  453.000
353.573; -111.200; -957.000;-1008.000
353.706;  -45.050; -384.000; -558.000
353.839;  -14.875; -264.000; -220.000
353.971; -101.075; -657.000; -512.000
354.104;  -91.400; -896.000; -835.000
354.237;  -38.300; -627.000; -662.000
354.370;  -95.575; -846.000; -879.000
354.503; -194.550;-1231.000;-1308.000
354.636;  -46.275; -529.000; -348.000
354.769; -133.500; -937.000; -860.000
354.902;  -10.725; -230.000; -139.000
355.034;  -27.750; -164.000; -220.000
355.167;  -13.950; -262.000; -162.000
355.300;  -90.875;-1061.000; -880.000
355.433;  973.525;  -71.000;  -14.000
355.565; 1550.800; -402.000; -384.000
355.698;  378.200; -356.000; -296.000
355.831;  -22.650; -882.000; -801.000
355.964;   69.825; -285.000; -170.000
356.096;  -97.925; -856.000; -843.000
356.229;    5.125; -523.000; -530.000
356.362;  330.600; -373.000; -266.000
356.494;  627.000; -229.000; -162.000
356.627;  414.775;  269.000;  377.000
356.760;  662.075;  120.000;   53.000
356.892;  972.125; -286.000; -601.000
357.025;  555.400;  403.000;  389.000
357.157;  501.325; -167.000; -179.000
357.290;  724.700; -856.000; -713.000
357.423;  190.100; -667.000; -556.000
357.555;  113.925; -217.000; -228.000
357.688;  100.475; -483.000; -364.000
357.820;  395.925; -870.000; -877.000
357.953; 3338.175; -563.000; -589.000
358.085;  683.750; -632.000; -612.000
358.218;  870.550;-1131.000; -932.000
358.350;  178.475;  -58.000;  312.000
358.483; -146.700;-1300.000;-1187.000
358.615;  -41.325;-1182.000;-1078.000
358.747;  -78.175;-1187.000;-1058.000
358.880;    6.425; -810.000; -744.000
359.012;  -11.975; -376.000; -202.000
359.145;  -50.025; -480.000; -511.000
359.277;   10.825; -962.000; -913.000
359.409; 2743.225;  536.000;  231.000
359.542;  708.150; -738.000; -688.000
359.674;   67.575;   46.000;   13.000
359.806;  -64.475; -565.000; -438.000
359.939;  -59.275; -617.000; -516.000
360.071;  -23.250; -583.000; -579.000
360.203;  -11.725; -411.000; -364.000
360.335;   56.300;  164.000;  -16.000
360.468;  172.950; -249.000; -307.000
360.600; 2249.525; -547.000; -454.000
360.732; 2929.075; -546.000; -423.000
360.864;  386.550;-1216.000;-1044.000
360.996;  208.375; -516.000; -554.000
361.129;   15.675; -389.000; -598.000
361.261;    7.800;  110.000; -113.000
361.393;  -26.900; -252.000; -214.000
361.525;   26.525;   94.000;  244.000
361.657;  -60.250; -821.000; -703.000
361.789;    2.775; -139.000; -155.000
361.921;  167.750; -642.000; -593.000
362.053;  204.850;  524.000;  541.000
362.185;   39.500;  288.000;   72.000
362.318;  -93.450; -709.000; -705.000
362.450;   94.125;  294.000;  444.000
362.582;   46.100; -913.000; -870.000
362.714;  -50.150; -353.000; -332.000
362.846; -107.375; -606.000; -490.000
362.978; -139.625; -941.000; -811.000
363.109;   23.450; -161.000; -260.000
363.241;  352.825; -739.000; -749.000
363.373;  424.000; -649.000; -564.000
363.505;  695.150; -186.000;  -91.000
363.637;  142.075; -787.000; -601.000
363.769; -130.250;-1067.000;-1080.000
363.901;  -70.850; -596.000; -654.000
364.033; -135.800;-1103.000;-1062.000
364.165;   -1.200; -283.000; -283.000
364.296;   67.275; -316.000; -177.000
364.428;   59.700;-1344.000;-1220.000
364.560;  -83.400; -679.000; -661.000
364.692;  -75.825; -738.000; -835.000
364.824;  193.225; -588.000; -456.000
364.955;  430.950; -402.000; -564.000
365.087;  986.725;-1097.000; -852.000
365.219;   24.600; -686.000; -816.000
365.351;  -75.075; -526.000; -572.000
365.482;   36.350;  300.000;  240.000
365.614;  -52.500; -402.000; -314.000
365.746; -110.750; -729.000; -752.000
365.877; -100.425; -706.000; -672.000
366.009;  265.150;  -35.000;  -62.000
366.141; -106.150;-1249.000;-1134.000
366.272; -109.225; -803.000; -719.000
366.404; -132.400;-1005.000; -874.000
366.535;  -20.500; -139.000;  -12.000
366.667; -103.050; -644.000; -649.000
366.799;   27.950;  353.000;  203.000
366.930; -124.475; -862.000; -996.000
367.062;  109.700; -639.000; -613.000
367.193;  166.625; -872.000; -842.000
367.325;  -61.800; -580.000; -684.000
367.456;   33.900; -246.000;   31.000
367.588;  159.050; -371.000; -318.000
367.719;   23.075;  -44.000;  -45.000
367.851;  -20.500; -222.000; -241.000
367.982;  -67.950; -875.000; -732.000
368.113;   74.975; -475.000; -358.000
368.245; -134.725; -960.000; -841.000
368.376;  -37.825; -254.000; -302.000
368.508;  -51.150; -188.000; -263.000
368.639; -140.625;-1166.000;-1034.000
368.770;  -49.575; -670.000; -589.000
368.902;  -83.600; -836.000; -926.000
369.033; -115.700; -906.000; -855.000
369.164;  -52.500; -720.000; -653.000
369.296; -107.950; -452.000; -601.000
369.427;  -10.150; -209.000; -144.000
369.558;  -61.425; -593.000; -377.000
369.689;  -93.750; -721.000; -569.000
369.821; -124.975; -951.000; -845.000
369.952;  -11.000;   42.000; -108.000
370.083;  -52.175; -229.000; -108.000
370.214;  -95.375; -735.000; -650.000
370.345;  -14.850;   65.000;   81.000
370.477; -101.725; -810.000; -790.000
370.608;  193.525; -328.000; -264.000
370.739;  -77.900;-1233.000;-1292.000
370.870;  -69.800;-1102.000; -923.000
371.001;   54.400; -378.000; -467.000
371.132;  -87.175; -754.000; -735.000
371.263;  -17.025;  -42.000; -148.000
371.394; -134.925; -841.000; -748.000
371.525;   36.250;  345.000;  225.000
371.657;  -92.100; -808.000; -670.000
371.788;   68.600;  103.000;  199.000
371.919;  128.425; -384.000; -304.000
372.050; 3193.325;  -91.000; -156.000
372.181;  943.850; -188.000; -294.000
372.311;  313.050;   42.000; -127.000
372.442;   15.825; -457.000; -451.000
372.573;  -33.800; -444.000; -340.000
372.704; -126.675;-1008.000; -980.000
372.835;   71.675; -228.000; -289.000
372.966;  -65.975; -646.000; -554.000
373.097;  -60.950; -575.000; -711.000
373.228;  -50.800; -717.000; -542.000
373.359;   81.100; -824.000; -536.000
373.490;  770.000; -881.000; -727.000
373.620;  974.200;-1001.000; -803.000
373.751; 1535.575; -332.000; -396.000
373.882;  651.625; -663.000; -733.000
374.013;   37.625; -449.000; -262.000
374.143;  -63.325; -581.000; -659.000
374.274; -112.975; -987.000; -908.000
374.405;  131.275; -388.000; -276.000
374.536;  356.825; -526.000; -387.000
374.666;  911.575; -759.000; -807.000
374.797;  152.225; -817.000; -868.000
374.928;  697.275; -710.000; -560.000
375.058;  760.950; -535.000; -500.000
375.189;   58.575;  -59.000;  -93.000
375.320; -116.350; -928.000;-1034.000
375.450;  -45.150; -625.000; -616.000
375.581;  -64.825; -526.000; -436.000
375.712;  -33.900; -574.000; -250.000
375.842;  235.575; -438.000; -415.000
375.973;  172.775; -554.000; -513.000
376.103;  -74.025; -665.000; -648.000
376.234;  -87.975; -531.000; -552.000
376.364;  -68.400; -944.000; -867.000
376.495;  283.550;  925.000;  529.000
376.625;  -36.875; -472.000; -485.000
376.756;   30.825; -709.000; -678.000
376.886;  -93.525;-1178.000;-1026.000
377.017;   44.100;-1048.000;-1061.000
377.147;  364.150; -786.000; -782.000
377.278;   53.200;  174.000;  228.000
377.408; -121.100; -801.000; -815.000
377.538; -111.750; -707.000; -693.000
377.669;  -92.200; -537.000; -613.000
377.799;  -98.750; -645.000; -635.000
377.929;  -77.075; -610.000; -428.000
378.060; -136.700; -781.000; -847.000
378.190;  -68.575; -726.000; -531.000
378.320;  -54.100; -401.000; -406.000
378.451;  -25.750; -131.000;  -22.000
378.581;  -19.400;  -67.000; -110.000
378.711;  139.125; 1035.000;  866.000
378.841;  -38.300; -533.000; -675.000
378.972; -100.575; -871.000; -751.000
379.102;  -15.550; -652.000; -579.000
379.232;  -24.075; -126.000;  -73.000
379.362; -117.225;-1001.000; -885.000
379.492;   -7.900; -373.000; -424.000
379.623;   76.975;    0.000;  111.000
379.753; -105.625;-1107.000; -974.000
379.883;  168.475;   59.000;  156.000
380.013;  -14.475;-1081.000;-1017.000
380.143; -123.575;-1097.000;-1056.000
380.273; -122.000; -985.000; -861.000
380.403;  -15.100; -344.000; -257.000
380.533;  -56.000; -651.000; -664.000
380.663;   63.200;  173.000;  128.000
380.793; -116.575;-1027.000;-1074.000
380.923;  -31.950; -103.000;  -34.000
381.053; -103.325; -613.000; -623.000
381.183;  -25.925; -106.000; -248.000
381.313;   18.550; -656.000; -470.000
381.443;    3.875; -692.000; -473.000
381.573;  143.275; -402.000; -409.000
381.703;  180.300;-1249.000;-1095.000
381.833; -148.075;-1454.000;-1336.000
381.963;   94.875; -134.000;  -87.000
382.093; 1217.175; -925.000; -909.000
382.223;  358.700; -713.000; -602.000
382.353;  -35.350; -801.000; -608.000
382.482;  282.850;-1091.000; -964.000
382.612;  646.900; -872.000; -644.000
382.742;  355.025; -695.000; -622.000
382.872;  204.200; -565.000; -551.000
383.002;   39.750;  347.000; -132.000
383.131;  -23.775; -226.000; -160.000
383.261;  -47.875; -706.000; -768.000
383.391;  280.575; -552.000; -377.000
383.521; 3352.150;  451.000;  263.000
383.650;  822.825; -947.000; -904.000
383.780;  -21.650; -783.000; -656.000
383.910;   93.625;  880.000;  802.000
384.039;    2.900; -794.000; -656.000
384.169;  126.000;-1205.000;-1017.000
384.299;  -56.550; -650.000; -662.000
384.428;  -83.350; -764.000; -680.000
384.558;  -42.800; -308.000; -275.000
384.687;  -56.150; -414.000; -334.000
384.817;   -7.850;   75.000;   -2.000
384.947;   14.875; -234.000; -141.000
385.076;  263.225;  982.000;  912.000
385.206;   67.625;  369.000;  480.000
385.335;  -54.725; -549.000; -417.000
385.465;  -98.250; -655.000; -663.000
385.594;  124.825;  -53.000;  -44.000
385.724;  325.050; -868.000; -838.000
385.853;   78.350; -296.000; -270.000
385.982; 1172.550; -743.000; -787.000
386.112; 1836.625;-1052.000; -871.000
386.241;  109.825; -307.000; -312.000
386.371;   22.525; -174.000;  -87.000
386.500;  -26.500; -825.000; -789.000
386.629;   10.575; -874.000; -817.000
386.759;   49.425;  -43.000;   68.000
386.888;  -22.225; -170.000; -250.000
387.017;  -93.800; -648.000; -620.000
387.147; -102.675; -771.000; -798.000
387.276;  -22.950; -410.000; -397.000
387.405;    3.500; -398.000; -342.000
387.535;  -65.600; -452.000; -361.000
387.664;  -76.800; -692.000; -620.000
387.793;   36.925; -198.000; -113.000
387.922;  431.625;  255.000;  200.000
388.052;   -9.975; -576.000; -423.000
388.181;  -19.200; -342.000; -472.000
388.310;  -45.625; -889.000; -710.000
388.439;  -68.200; -749.000; -742.000
388.568;  155.975;  365.000;  244.000
388.697;  858.150; -756.000; -653.000
388.826;  162.875; -768.000; -666.000
388.956;   35.725; -285.000; -307.000
389.085;  -34.025; -347.000; -287.000
389.214; -118.075; -842.000; -872.000
389.343;  -76.275; -645.000; -413.000
389.472;  424.650;  126.000;  149.000
389.601;  494.750;   91.000;    0.000
389.730;    4.925; -568.000; -687.000
389.859;   49.175;  226.000;   46.000
389.988;  144.950; -423.000; -408.000
390.117;  120.025; -168.000; -146.000
390.246;  -28.350; -331.000; -320.000
390.375;   58.275; -673.000; -626.000
390.504;  -73.800; -703.000; -621.000
390.633; -103.525; -672.000; -726.000
390.761;  -83.125; -732.000; -645.000
390.890;   -6.125;   -4.000; -130.000
391.019;  -45.475; -421.000; -441.000
391.148; -139.500; -826.000; -855.000
391.277;  -91.825; -576.000; -493.000
391.406;  -92.625; -821.000; -805.000
391.534;    4.125;  574.000; -301.000
391.663;  -97.025; -583.000; -645.000
391.792;  -97.900; -673.000; -701.000
391.921;   70.925;   -3.000;   15.000
392.050;  117.650; -287.000; -228.000
392.178;  -75.500;-1206.000;-1061.000
392.307;   96.875; -758.000; -712.000
392.436;   36.275; -427.000; -641.000
392.564;    1.350;  166.000;   -6.000
392.693; -102.225; -860.000; -682.000
392.822;  157.200; -529.000; -534.000
392.950;   53.300; -880.000; -714.000
393.079;  254.075; -188.000; -328.000
393.208;   -0.875; -488.000; -511.000
393.336;  -20.225; -170.000; -145.000
393.465;  -52.925; -317.000; -199.000
393.593;   -4.750;   62.000;   79.000
393.722; -165.725;-1121.000; -916.000
393.850;  -34.650; -188.000;  -61.000
393.979; -150.625; -926.000; -805.000
394.107;  -66.500; -517.000; -537.000
394.236;  -45.500; -570.000; -507.000
394.364;  172.675;  383.000;  206.000
394.493;  234.400; -911.000; -767.000
394.621;  -38.775; -955.000; -916.000
394.750;  744.350; -873.000; -923.000
394.878; 3020.125; -247.000; -149.000
395.007; 4086.850; -721.000; -807.000
395.135;  306.550; -790.000; -721.000
395.263; -124.375;-1038.000;-1040.000
395.392;   -0.300;  -25.000; -107.000
395.520; -142.500; -818.000; -679.000
395.648;  -97.775; -865.000; -915.000
395.777;  -23.700; -366.000; -405.000
395.905;  -63.350; -449.000; -564.000
396.033;   15.475;  217.000;  172.000
396.162;  412.025; -399.000; -453.000
396.290;  360.050;  -17.000;   -2.000
396.418;   52.925; -555.000; -514.000
396.546;  -89.850; -571.000; -466.000
396.674; -109.625; -850.000; -878.000
396.803;   -4.975;  -72.000;  -23.000
396.931;   53.925; -179.000; -199.000
397.059;   -1.650;-1026.000; -989.000
397.187; -126.450;-1026.000; -975.000
397.315; -143.500; -884.000; -649.000
397.443; -111.575; -592.000; -443.000
397.572;  -84.425; -578.000; -424.000
397.700;  -26.975; -607.000; -614.000
397.828;  -17.925;  120.000;  -90.000
397.956;  -55.500; -508.000; -478.000
398.084;  -64.800; -767.000; -626.000
398.212;   20.200;  137.000;  124.000
398.340;   -9.000;  -56.000;  159.000
398.468;    9.400; -390.000; -169.000
398.596; -148.150; -993.000; -953.000
398.724; -126.350; -762.000; -767.000
398.852; -163.600;-1024.000; -976.000
398.980;  -70.075; -560.000; -560.000
399.108;  -82.450; -982.000; -735.000
399.236;   23.600;   13.000;    8.000
399.363;   -0.325;  222.000;  196.000
399.491;  -77.875; -404.000; -398.000
399.619; -133.300; -829.000; -800.000
399.747; -117.675; -859.000; -771.000
399.875;   66.025;  220.000;  234.000
400.003;  -47.225; -359.000; -284.000
400.130;  -99.825; -421.000; -341.000
400.258;  -32.875;  -83.000;   38.000
400.386;  -60.875; -352.000; -168.000
400.514;  -66.225; -526.000; -587.000
400.641;  -98.550; -928.000; -802.000
400.769; -144.425; -979.000; -888.000
400.897; -133.375; -838.000; -793.000
401.025;  -32.875; -166.000; -152.000
401.152;  -15.100;  220.000;   38.000
401.280;  -86.400; -430.000; -429.000
401.408; -126.050; -712.000; -576.000
401.535; -117.350; -735.000; -758.000
401.663; -191.250;-1134.000;-1054.000
401.790;  -93.225; -514.000; -525.000
401.918;   29.800;  436.000;  405.000
402.046;  -27.100;  134.000;  122.000
402.173;  -42.300;  -18.000;    7.000
402.301;  -63.275; -519.000; -397.000
402.428;   31.100;  528.000;  383.000
402.556; -146.450;-1188.000; -913.000
402.683;  -28.250;  -20.000;   -1.000
402.811;  -31.975;  -37.000; -206.000
402.938;  -11.850;   20.000;   27.000
403.066;  143.600; -574.000; -558.000
403.193;  288.600;  299.000;  239.000
403.321;  206.300; -396.000; -574.000
403.448;  263.275;   83.000;   27.000
403.575;  119.850;  -90.000;  -46.000
403.703; -110.100; -732.000; -557.000
403.830;  -68.175; -531.000; -496.000
403.957; -156.625;-1117.000;-1023.000
404.085;   -7.225;  -61.000; -172.000
404.212;   74.975;  -50.000;   63.000
404.339;  254.950; -566.000; -306.000
404.467; 5982.950; -612.000; -524.000
404.594; 3793.075; -287.000; -227.000
404.721;  827.100; -869.000; -764.000
404.848;   69.700; -113.000; -202.000
404.976; -121.075; -856.000; -783.000
405.103;  -11.825;  -14.000;  -82.000
405.230;  -15.900;  190.000;  226.000
405.357;   22.950;  117.000;   44.000
405.484;  269.825;  -49.000;    5.000
405.612;   49.275; -548.000; -563.000
405.739;  -65.150; -488.000; -243.000
405.866;   80.700;  669.000;  385.000
405.993;  -55.175; -398.000; -102.000
406.120; -137.550; -801.000; -887.000
406.247;  -53.275; -323.000; -342.000
406.374;  346.800;  540.000;  629.000
406.501;   60.450; -632.000; -702.000
406.628;  -87.700; -621.000; -589.000
406.755; -107.425; -803.000; -620.000
406.882;  -53.375; -228.000; -277.000
407.009; -113.700; -719.000; -628.000
407.136;   11.775; -480.000; -401.000
407.263;   68.675; -939.000; -829.000
407.390;  -90.850; -692.000; -614.000
407.517; -195.650;-1139.000;-1187.000
407.644;  -72.050; -332.000; -256.000
407.771; -149.000; -249.000; -287.000
407.898;    2.925;  168.000;  328.000
408.025;  -85.600; -421.000; -313.000
408.151;  -21.025;   82.000;  153.000
408.278;  -71.250; -267.000; -216.000
408.405; -135.675; -931.000; -899.000
408.532;  -84.950; -549.000; -542.000
408.659; -119.725; -677.000; -648.000
408.785; -194.400;-1298.000;-1170.000
408.912;  -60.250; -412.000; -296.000
409.039; -126.075; -610.000; -686.000
409.166; -111.475; -591.000; -555.000
409.292; -120.350; -571.000; -534.000
409.419; -113.325; -665.000; -649.000
409.546;  -81.825; -431.000; -192.000
409.672; -105.075; -713.000; -545.000
409.799;  -35.350;  -36.000;   34.000
409.926;  -61.950; -180.000; -179.000
410.052; -193.600;-1127.000;-1091.000
410.179;  -68.500; -368.000; -392.000
410.305;  -96.825; -375.000; -493.000
410.432;  -46.175; -220.000; -333.000
410.558;  -87.000; -305.000; -380.000
410.685; -118.525; -688.000; -431.000
410.812;  -99.350; -409.000; -588.000
410.938; -131.125; -964.000; -808.000
411.065; -106.525; -671.000; -645.000
411.191;  -28.175; -189.000; -174.000
411.317; -113.975; -823.000; -742.000
411.444;  -55.125; -317.000; -246.000
411.570;  -72.175; -339.000; -294.000
411.697; -128.250; -758.000; -752.000
411.823; -174.850; -989.000; -999.000
411.949;  -42.625;  -56.000;   17.000
412.076; -115.500; -539.000; -519.000
412.202; -111.400; -758.000; -757.000
412.329; -151.300; -798.000; -752.000
412.455; -133.675; -821.000; -657.000
412.581;  -20.575;  -15.000;  172.000
412.707;  -79.975; -540.000; -457.000
412.834;    2.925;  156.000;  219.000
412.960;  -93.450; -785.000; -784.000
413.086; -113.625; -743.000; -701.000
413.212;  118.725;  604.000;  578.000
413.339;  -88.400; -685.000; -701.000
413.465;   -2.050; -364.000; -310.000
413.591; -112.675; -757.000; -474.000
413.717;  -63.925; -358.000; -366.000
413.843; -147.000; -839.000; -861.000
413.969;  -68.175;  -47.000; -292.000
414.096; -103.400; -679.000; -679.000
414.222;  -19.100;  -33.000;   85.000
414.348;  -44.450; -652.000; -385.000
414.474;   78.225;   38.000;  -52.000
414.600;  -22.125; -126.000; -144.000
414.726;  -22.500;  -96.000;  -55.000
414.852;  -53.750; -365.000; -342.000
414.978;   21.900;  104.000;  -18.000
415.104;   47.475;   38.000;   80.000
415.230;   25.375; -329.000; -330.000
415.356;   14.625; -409.000; -514.000
415.482;  178.275;   13.000;  -35.000
415.608;  289.050; -247.000; -323.000
415.734;  970.025;   67.000;   38.000
415.860;20320.750; -875.000; -767.000
415.986;14644.050; -685.000; -607.000
416.111; 1239.750; -798.000; -652.000
416.237;  245.325; -424.000; -571.000
416.363; 1183.750; -765.000; -733.000
416.489; 4318.375; -324.000; -251.000
416.615;  467.200; -707.000; -742.000
416.741;  -30.200; -677.000; -784.000
416.866;  -95.925; -673.000; -736.000
416.992; -123.800; -801.000; -818.000
417.118;  -30.875;  -41.000;  -80.000
417.244;  -89.525; -798.000; -531.000
417.369;  -83.225; -801.000; -612.000
417.495;  -17.800; -325.000; -254.000
417.621;  -90.925;-1015.000; -803.000
417.746;    1.025; -579.000; -572.000
417.872;   31.675; -254.000; -144.000
417.998;   40.175; -515.000; -530.000
418.123; 1095.425;-1073.000; -845.000
418.249; 5578.750; -512.000; -601.000
418.374;  770.225; -916.000; -824.000
418.500;  103.500; -383.000; -482.000
418.626;  113.475;   70.000;  -59.000
418.751;  121.300; -549.000; -448.000
418.877;  188.725; -637.000; -643.000
419.002; 1875.375; -688.000; -560.000
419.128;13036.300; -930.000; -721.000
419.253; 3161.325; -967.000; -837.000
419.379;  415.625; -391.000; -338.000
419.504;  395.250;  325.000;  415.000
419.629;  533.450; -393.000; -212.000
419.755; 3800.900; -317.000; -254.000
419.880;22260.825;  -98.000;   67.000
420.006;11913.050; -280.000; -221.000
420.131;30279.125; -662.000; -775.000
420.256; 4312.975; -315.000; -316.000
420.382;  547.400; -665.000; -687.000
420.507;   62.450; -649.000; -778.000
420.632;   95.625; -337.000; -339.000
420.758;  177.600; -251.000; -425.000
420.883;  -93.900; -876.000; -672.000
421.008; -111.525; -775.000; -619.000
421.133;  -98.500; -509.000; -467.000
421.259;  -62.075; -325.000; -259.000
421.384; -124.375; -834.000; -693.000
421.509;  -69.375;-1052.000; -862.000
421.634;  904.025; -936.000; -820.000
421.759;  379.850; -359.000; -327.000
421.885;  -71.600; -717.000; -656.000
422.010;  -90.000; -673.000; -542.000
422.135; -147.900; -695.000; -727.000
422.260;   23.100;  340.000;  280.000
422.385;  -46.875;   12.000;  -98.000
422.510;   -6.025;  151.000;  -26.000
422.635;    2.325;  -87.000;  -43.000
422.760;   75.150; -766.000; -791.000
422.885;   47.525;  -57.000;  -80.000
423.010;  -43.050; -112.000; -169.000
423.135; -102.100; -481.000; -561.000
423.260;  -24.925; -150.000; -245.000
423.385;   57.400;  476.000;  222.000
423.510;   31.600;   71.000;  -22.000
423.635;   54.000;  133.000;   45.000
423.760;   49.950;  383.000;  328.000
423.885;   44.150;  336.000;  391.000
424.010;   -7.875;  -68.000;  -13.000
424.135;  -18.150;    5.000;  -33.000
424.259; -103.075; -654.000; -457.000
424.384;  -62.200; -279.000; -272.000
424.509;  -34.125; -260.000; -186.000
424.634; -105.625; -761.000; -623.000
424.759;  -23.125; -688.000; -544.000
424.883;  -12.700; -506.000; -527.000
425.008;  155.600; -502.000; -410.000
425.133; 2037.225; -679.000; -653.000
425.258;  930.475; -517.000; -381.000
425.382;  897.525; -867.000; -774.000
425.507; 2304.025; -487.000; -543.000
425.632;  381.750; -802.000; -663.000
425.756;  478.875; -256.000; -146.000
425.881; 7018.600; -831.000; -857.000
426.006;18913.800; -604.000; -355.000
426.130; 2875.900; -696.000; -508.000
426.255;  360.900; -611.000; -491.000
426.379;  169.125; -189.000; -577.000
426.504;  392.850;  660.000;  544.000
426.629; 4073.550; -519.000; -466.000
426.753; 2811.025;   64.000;  -46.000
426.878;  322.200; -252.000; -288.000
427.002;  141.275; -651.000; -668.000
427.127; 1632.725;  -35.000; -158.000
427.251;11821.025;  372.000;  401.000
427.375; 3285.450; -191.000; -173.000
427.500; 2044.025; -616.000; -610.000
427.624;  676.975; -234.000; -400.000
427.749;   73.775; -216.000; -225.000
427.873;  -47.150; -499.000; -412.000
427.997;  -50.675; -222.000; -230.000
428.122;   83.225;  795.000;  703.000
428.246;   51.300;  433.000;  434.000
428.371; -139.425; -869.000; -773.000
428.495; -115.450; -624.000; -646.000
428.619;  -48.375; -186.000; -117.000
428.743;    8.900;   65.000;  132.000
428.868;  -22.025; -732.000; -643.000
428.992; 1213.850; -219.000; -326.000
429.116;  467.725; -329.000; -357.000
429.240;  208.650;  419.000;  426.000
429.365;  -39.400; -454.000; -574.000
429.489;  -52.200; -638.000; -647.000
429.613;   19.850; -236.000; -177.000
429.737;   28.125; -563.000; -432.000
429.861;  258.050; -247.000; -133.000
429.985; 5719.125; -425.000; -305.000
430.109; 6281.525; -770.000; -908.000
430.234;  696.450;   76.000;  -50.000
430.358;   58.350; -250.000; -160.000
430.482;  -59.525; -672.000; -564.000
430.606;  -77.025; -655.000; -375.000
430.730;   -8.350; -437.000; -388.000
430.854;   67.000; -909.000; -835.000
430.978;  -82.500; -795.000; -764.000
431.102;  -86.750; -499.000; -422.000
431.226; -122.725; -874.000; -815.000
431.350;   20.975;  345.000;  422.000
431.474;  -82.175; -661.000; -373.000
431.597; -159.025;-1060.000; -848.000
431.721;  -80.875; -276.000; -267.000
431.845; -137.725; -704.000; -472.000
431.969;  -92.975; -304.000; -349.000
432.093; -102.250; -395.000; -317.000
432.217;  -19.275;   32.000;   82.000
432.341;  -99.100; -523.000; -518.000
432.464;   -3.075;   96.000;   40.000
432.588;  127.100; -401.000; -329.000
432.712;   74.775;  -52.000;  -52.000
432.836;   37.300;  213.000;  263.000
432.959;  -14.450; -372.000; -311.000
433.083;   82.825;   11.000;    2.000
433.207;  375.850;  285.000;  930.000
433.330; 5307.725; -391.000; -200.000
433.454; 6456.800; -654.000; -638.000
433.578; 3713.425;  583.000;  278.000
433.701;  666.075; -623.000; -675.000
433.825;  128.250; -292.000; -299.000
433.949;  107.625;   28.000;  -72.000
434.072;   12.475; -410.000; -323.000
434.196;  -21.975; -309.000; -117.000
434.319; 3748.650;25482.000;25124.000
434.443;  720.550; -656.000; -603.000
434.566; 2719.950;  281.000;   62.000
434.690;  450.000; -637.000; -383.000
434.813;   47.225; -251.000; -173.000
434.937;  -97.100; -569.000; -696.000
435.060;  -53.825; -423.000; -332.000
435.184;  184.825; -492.000; -217.000
435.307;  128.875;  159.000;  102.000
435.431;  -22.875;  -40.000;   24.000
435.554;  -84.375; -399.000; -240.000
435.677;  -81.600; -350.000; -258.000
435.801;  -56.300;  -25.000;   49.000
435.924;  -16.350;    1.000;  -67.000
436.048; -135.475;-1019.000; -732.000
436.171;  -71.275; -240.000;  -66.000
436.294;  -26.375; -248.000; -229.000
436.417;   93.300; -963.000; -849.000
436.541;  -89.000; -814.000; -840.000
436.664;  -57.100; -242.000; -316.000
436.787;  -42.600;   13.000;  113.000
436.910; -127.825; -792.000; -422.000
437.034;   -0.325;  142.000;  143.000
437.157;   32.125;  -11.000;    0.000
437.280;  -64.675; -392.000; -292.000
437.403; -113.450; -982.000; -869.000
437.526;  448.525; -903.000; -865.000
437.649; 1737.500; -505.000; -332.000
437.772;  229.725; -692.000; -540.000
437.896;  107.750;  700.000;  544.000
438.019; -105.575; -758.000; -503.000
438.142;  -94.250; -596.000; -506.000
438.265;  -52.750; -639.000; -670.000
438.388;  421.925; -520.000; -410.000
438.511;   34.775; -597.000; -394.000
438.634;  -49.575; -247.000; -125.000
438.757; -131.525; -693.000; -619.000
438.880;  -40.475;  -34.000;  -57.000
439.003;  -91.375; -417.000; -437.000
439.126;  -72.575; -287.000; -167.000
439.248;  -95.025;  -98.000; -139.000
439.371;  -50.875;    9.000;  -53.000
439.494;   34.200;  510.000;  439.000
439.617;  -45.325;   65.000;  -88.000
439.740; -179.175; -968.000; -816.000
439.863; -147.625; -755.000; -595.000
439.986; -132.700; -476.000; -431.000
440.108;  -65.325; -161.000; -112.000
440.231; -167.050; -950.000; -836.000
440.354;  -43.925;  -64.000; -150.000
440.477;   -1.825; -566.000; -542.000
440.599;  -33.125; -200.000; -225.000
440.722; -137.925; -709.000; -586.000
440.845;   54.025;  751.000;  928.000
440.968; -122.650; -415.000; -311.000
441.090;  -68.650; -199.000;  -33.000
441.213; -178.175;-1021.000; -825.000
441.336;  -50.575; -159.000;   -5.000
441.458;  -85.750; -549.000; -396.000
441.581;  -98.350; -628.000; -629.000
441.703;  -74.550; -152.000;   13.000
441.826; -120.900; -557.000; -400.000
441.948;  -54.600;   56.000;   51.000
442.071;   19.750;  555.000;  424.000
442.193; -116.625; -531.000; -485.000
442.316;   18.550;  152.000;   97.000
442.438;   37.650; -233.000;  -10.000
442.561;   48.425;  272.000;  262.000
442.683;  401.675; -809.000; -522.000
442.806;  887.450;   -8.000;   74.000
442.928;  -22.925; -859.000; -604.000
443.051;  -88.825; -577.000; -373.000
443.173; -103.500; -341.000; -339.000
443.295;  -98.525; -263.000; -371.000
443.418;  -63.450; -321.000;  -29.000
443.540;  -24.250; -106.000;   -4.000
443.662; -118.775; -563.000; -465.000
443.785;  -15.275;  335.000;  199.000
443.907;  -93.850; -362.000; -208.000
444.029; -139.775; -767.000; -494.000
444.152; -148.350; -644.000; -554.000
444.274;  -44.025;  -18.000;  -24.000
444.396; -120.175; -461.000; -221.000
444.518; -121.900; -691.000; -454.000
444.640; -100.450; -268.000; -111.000
444.763;  -21.700;  388.000;  249.000
444.885; -133.175; -432.000; -392.000
445.007;  -38.500;   35.000;   86.000
445.129; -126.450; -610.000; -515.000
445.251; -106.900; -372.000; -439.000
445.373; -145.225; -537.000; -386.000
445.495;    2.550;  242.000;  350.000
445.617;   42.750;  853.000;  753.000
445.739;  -63.350; -215.000;  -97.000
445.861;  -33.900; -245.000; -112.000
445.984;  -49.550; -267.000; -101.000
446.105;  131.075; -418.000; -251.000
446.227;  477.500; -176.000;  -19.000
446.349;  -18.700; -358.000; -249.000
446.471; -109.525; -615.000; -448.000
446.593;  -72.250; -316.000;   19.000
446.715;  -21.400;  -67.000;   41.000
446.837;   45.725;  697.000;  832.000
446.959; -109.825; -457.000; -478.000
447.081; -127.350; -628.000; -518.000
447.203;   45.750;  862.000;  834.000
447.325;  -87.825; -270.000;   42.000
447.446;   -5.075;  286.000;  530.000
447.568; -145.775; -921.000; -803.000
447.690;  -91.800; -236.000; -245.000
447.812; -156.100; -798.000; -519.000
447.933;  -35.325;  155.000;  127.000
448.055;  -76.225; -306.000; -261.000
448.177;  108.500;   31.000;   79.000
448.299;   27.300; -935.000; -727.000
448.420;    2.375;  -25.000;  159.000
448.542;  -52.950;   -3.000;   33.000
448.664;  -36.300;  109.000;  322.000
448.785;  -33.825;  265.000;   83.000
448.907;  -95.750; -614.000; -353.000
449.028;  -64.750; -771.000; -471.000
449.150;   50.300;  492.000;  589.000
449.272; -179.150;-1044.000; -913.000
449.393;   11.250;  612.000;  694.000
449.515; -145.250; -634.000; -581.000
449.636;  -70.725; -264.000; -155.000
449.758;   66.250;  763.000;  622.000
449.879;  -96.725; -498.000; -396.000
450.001;  -84.050; -149.000;  -49.000
450.122;  -54.625;  -95.000;  162.000
450.244;  -29.325;   37.000;  364.000
450.365; -107.575; -495.000; -301.000
450.486;  -38.175;   80.000;  268.000
450.608;   36.450;  393.000;  326.000
450.729;   73.775;  578.000;  645.000
450.850;    6.250; -574.000; -466.000
450.972;  787.925; -552.000; -389.000
451.093; 5177.800;  190.000;  588.000
451.214; 2237.350; -516.000; -337.000
451.336;  394.450;  773.000;  579.000
451.457;   66.900;  264.000;  393.000
451.578;  -38.400; -118.000;  -74.000
451.699; -127.450; -546.000; -540.000
451.821;  -81.375; -284.000;  -50.000
451.942;    3.100;  278.000;  285.000
452.063;   32.550;  228.000;  419.000
452.184;  572.500;  -54.000;  -49.000
452.305; 1131.275;  103.000;  170.000
452.427;  140.250; -549.000; -301.000
452.548;  -29.225;   23.000;   79.000
452.669;  -57.775; -257.000;  -89.000
452.790;  -53.175;    3.000;  -18.000
452.911;   -5.050;  195.000;  259.000
453.032;  -77.725; -289.000;  -60.000
453.153;  -46.450;  -29.000;   81.000
453.274;   57.025;  737.000;  868.000
453.395;  -56.650;  -51.000;  175.000
453.516;  111.725; 1317.000; 1388.000
453.637;  -81.025; -205.000; -150.000
453.758;  -59.475;   15.000;   69.000
453.879; -126.400; -462.000; -250.000
454.000;   73.775; 1086.000;  948.000
454.121; -133.050; -554.000; -326.000
454.242; -121.950; -599.000; -383.000
454.362;  -64.450;  -99.000;  114.000
454.483;  -32.475; -309.000; -229.000
454.604;   55.950;  512.000;  580.000
454.725; -135.600; -627.000; -555.000
454.846; -134.075; -474.000; -406.000
454.967;  -19.325;  230.000;  539.000
455.087;  -43.200;  179.000;  153.000
455.208;   13.525;  554.000;  856.000
455.329;  -60.650;  -22.000;   82.000
455.450;   45.775;  473.000;  633.000
455.570;  -94.325; -234.000; -211.000
455.691;  -45.550;  201.000;  407.000
455.812;  -98.625; -270.000;  -92.000
455.932;  -61.625;  107.000;  -97.000
456.053;  -71.475;   36.000;   24.000
456.173; -105.675; -433.000; -355.000
456.294; -128.350; -476.000; -303.000
456.415;  -73.975;  -73.000;   70.000
456.535;  -50.325;  297.000;  273.000
456.656;  -53.400;  132.000;  240.000
456.776;  -75.875;    3.000;  298.000
456.897;  -12.550;  308.000;  513.000
457.017;  -80.025; -153.000;   -3.000
457.138; -111.425; -402.000; -249.000
457.258;  -45.950;  263.000;  224.000
457.379;  -13.550;  509.000;  521.000
457.499;  -32.950;  443.000;  432.000
457.620; -117.775; -407.000; -231.000
457.740; -100.400; -132.000;  -11.000
457.860;  -62.600;   87.000;   44.000
457.981;  -41.525;  132.000;  124.000
458.101;  -87.625;  -89.000;   40.000
458.221;  -27.800;  336.000;  402.000
458.342;  -70.350;   -4.000;  -37.000
458.462;   22.550;  617.000;  352.000
458.582;  -42.500; -302.000; -294.000
458.703;   11.675;  303.000;  154.000
458.823;  -22.850;   22.000;  163.000
458.943;   21.325;  341.000;  467.000
459.063;  -14.400; 1124.000;  192.000
459.183;  -19.850;  328.000;  313.000
459.304;   -3.900;  315.000;  517.000
459.424;  -76.500; -246.000;  -89.000
459.544;  334.575;  388.000;  764.000
459.664;  864.325;  499.000;  506.000
459.784;  333.150; 1004.000; 1175.000
459.904;   41.750;  867.000;  744.000
460.024;   56.425;  867.000;  684.000
460.144;   15.675;  449.000;  554.000
460.264;  -17.575;  515.000;  327.000
460.385; -101.000; -145.000; -119.000
460.505;   30.550;  905.000;  858.000
460.625; -100.150;  -17.000;  -68.000
460.745;  -19.175;  396.000;  541.000
460.864;  -55.750;  153.000;  469.000
460.984;    4.825;  499.000;  573.000
461.104;  131.875; 1656.000; 1775.000
461.224;   -0.450;  657.000;  650.000
461.344;  -37.825;  431.000;  360.000
461.464;  -42.700;  258.000;  513.000
461.584;  -32.125;  283.000;  466.000
461.704;  -59.275;   58.000;  108.000
461.824;  -84.750;  238.000;  259.000
461.943;  -45.925;  191.000;  130.000
462.063;  -83.500;    2.000;  324.000
462.183;   26.975;  639.000;  717.000
462.303;  100.825; 1678.000; 1230.000
462.422;   24.150;  781.000;  840.000
462.542;  -39.375;  271.000;  391.000
462.662;   40.950;  353.000;  380.000
462.782;  254.675;  833.000;  572.000
462.901;  476.075;  545.000;  717.000
463.021;  287.425; 1702.000; 1638.000
463.141;   -5.925;  337.000;  770.000
463.260;   -7.475;  614.000;  474.000
463.380;   11.725;  902.000;  884.000
463.499;  -36.400;  342.000;  332.000
463.619;  -45.175;  581.000;  559.000
463.738;  103.600; 1644.000;  903.000
463.858;    4.950;  657.000;  811.000
463.978;  -41.300;  542.000;  396.000
464.097;   46.625;  921.000; 1114.000
464.217;  132.675; 1196.000; 1143.000
464.336;  128.800; 1068.000; 1130.000
464.455;  -35.850;  328.000;  659.000
464.575;   42.950;  597.000;  602.000
464.694;  146.475; 1204.000; 1179.000
464.814;  133.675; 1190.000; 1138.000
464.933;   54.100; 1095.000; 1027.000
465.052;  104.050; 1412.000; 1054.000
465.172;   76.750;  922.000;  799.000
465.291;  130.775; 1376.000; 1320.000
465.410;    7.475;  462.000;  735.000
465.530;   65.300; 1355.000; 1310.000
465.649;   52.375; 1209.000; 1273.000
465.768;  122.550; 1673.000; 1508.000
465.888;   51.200;  941.000; 1174.000
466.007;  101.550; 1335.000; 1440.000
466.126;    0.025;  721.000;  641.000
466.245;   45.100; 1176.000; 1187.000
466.364;   18.725;  950.000; 1060.000
466.484;   45.350; 1024.000; 1213.000
466.603;   19.025; 1101.000; 1222.000
466.722;  115.325; 1490.000; 1769.000
466.841;   67.775; 1151.000; 1401.000
466.960;   41.250; 1069.000;  972.000
467.079;  134.625; 1971.000; 1786.000
467.198;   46.675; 1238.000; 1181.000
467.317;   75.025; 1768.000; 1162.000
467.436;   70.525; 1709.000; 1261.000
467.555;  133.950; 1796.000; 1746.000
467.674;   60.525; 1227.000; 1329.000
467.793;   45.775; 1376.000; 1374.000
467.912;   69.975; 1658.000; 1539.000
468.031;  141.825; 2038.000; 1930.000
468.150;  139.000; 1842.000; 1837.000
468.269;  186.850; 2313.000; 2090.000
468.388;  173.775; 2168.000; 2339.000
468.507;  236.350; 2884.000; 2903.000
468.626;  218.725; 2555.000; 2541.000
468.744;  134.525; 2018.000; 2174.000
468.863;  199.950; 2312.000; 2523.000
468.982;   88.975; 1503.000; 1555.000
469.101;  230.275; 2788.000; 2692.000
469.220;  127.525; 2333.000; 2176.000
469.338;  259.250; 2935.000; 3051.000
469.457;  188.825; 2719.000; 2545.000
469.576;  354.425; 3953.000; 3784.000
469.695;  244.900; 2877.000; 3066.000
469.813;  422.050; 4148.000; 4192.000
469.932;  399.975; 4255.000; 4485.000
470.051;  421.700; 4075.000; 4161.000
470.169;  883.825; 4470.000; 4338.000
470.288; 1503.300; 4700.000; 4809.000
470.406;  887.550; 5059.000; 5194.000
470.525;  620.575; 6101.000; 5787.000
470.644;  641.950; 6847.000; 6794.000
470.762;  825.425; 8397.000; 7873.000
470.881;  905.075; 8651.000; 8464.000
470.999; 1034.450; 9685.000; 9151.000
471.118; 1100.550;11174.000;10711.000

