
Integration time [ms]: 100.000
Averaging Nr. [scans]: 40
Smoothing Nr. [pixels]: 0
Data measured with spectrometer [name]: 2101012U2
Wave   ;Sample   ;Dark     ;Reference
[nm]   ;[counts] ;[counts] ;[counts] 

197.733;   64.300;  516.000;  404.000
197.879;  -76.650; -610.000; -634.000
198.025;  -44.975; -475.000; -420.000
198.171;  -66.000; -602.000; -612.000
198.317;  -40.100; -401.000; -316.000
198.463;  -55.350; -655.000; -404.000
198.609;   38.025;  181.000; -137.000
198.755;  -84.525; -644.000; -410.000
198.901;  -66.775; -505.000; -424.000
199.047;  -71.250; -615.000; -488.000
199.193;  -30.525; -230.000; -468.000
199.339;  -41.850; -222.000; -369.000
199.485;   37.500;  330.000;  271.000
199.631;   19.250;  227.000;  310.000
199.777;  -44.925; -466.000; -398.000
199.923;  -55.625; -610.000; -424.000
200.069;   -0.075; -141.000;  -58.000
200.215;   60.550;  128.000;  453.000
200.361;   38.925;  243.000;  477.000
200.507;  -55.100; -600.000; -373.000
200.653;  -22.325; -371.000; -194.000
200.798;  -49.050; -215.000; -125.000
200.944;    3.750; -146.000;  -41.000
201.090;   39.775;   61.000;  222.000
201.236;    2.500; -116.000; -158.000
201.382;  131.525;  874.000;  903.000
201.528;   14.850;  -58.000;  -48.000
201.674;  -45.200; -386.000; -293.000
201.819;  -62.775; -540.000; -439.000
201.965;  -78.600; -699.000; -447.000
202.111;  -24.125; -273.000; -226.000
202.257;  -35.500; -250.000; -238.000
202.402;    8.600;   13.000;  -36.000
202.548;  -19.800; -169.000; -116.000
202.694;   92.150;  410.000; -183.000
202.840;  -79.800; -603.000; -531.000
202.985;  -71.875; -681.000; -639.000
203.131; -111.800; -832.000; -666.000
203.277;  -15.875; -199.000; -262.000
203.423;  -38.300; -434.000; -520.000
203.568;  -29.150; -462.000; -237.000
203.714;  -53.050; -535.000; -542.000
203.860;  -67.625; -682.000; -641.000
204.005;   22.250;  112.000;  167.000
204.151;   85.050;  561.000;  556.000
204.296;  -36.875; -354.000; -221.000
204.442;  -72.450; -600.000; -547.000
204.588;  -77.800; -592.000; -579.000
204.733;   21.975;  178.000;  168.000
204.879; -120.125;-1018.000; -822.000
205.025;    7.050;  -99.000;  126.000
205.170;   11.325;  -17.000;   94.000
205.316;   80.575;  438.000;  661.000
205.461;  -91.550; -698.000; -554.000
205.607;   84.250;  609.000;  665.000
205.752;  -74.000; -626.000; -551.000
205.898;  -38.300; -501.000; -391.000
206.043;  -52.775; -578.000; -506.000
206.189;  -38.475; -243.000; -285.000
206.334;   87.475;  554.000;  606.000
206.480;   99.075;  409.000;  239.000
206.625;  -81.800; -529.000; -552.000
206.771;  -40.300; -451.000; -373.000
206.916;  -36.650; -210.000; -537.000
207.062;  -70.125; -545.000; -591.000
207.207;  -70.175; -546.000; -443.000
207.353;   63.750;  185.000;  460.000
207.498;   29.725;  196.000;   85.000
207.643;  -45.900; -501.000; -370.000
207.789; -125.575;-1069.000; -910.000
207.934;  -89.250; -665.000; -713.000
208.080;  -27.750; -154.000;   66.000
208.225;  -16.900;  -22.000;  -57.000
208.370;  -67.625; -727.000; -619.000
208.516;  -73.750; -741.000; -487.000
208.661;  -25.775; -127.000;  -69.000
208.806;  -19.075; -165.000; -171.000
208.952; -121.800;-1044.000; -731.000
209.097;   76.200;  378.000;  349.000
209.242;  -54.200; -307.000; -382.000
209.387;   68.575;  392.000;  350.000
209.533;  -42.300; -321.000; -350.000
209.678;   80.950;  472.000;  543.000
209.823;  -55.700; -408.000; -310.000
209.969; -100.725; -860.000; -757.000
210.114;  -99.750; -907.000; -719.000
210.259; -126.325; -939.000; -889.000
210.404;  -14.100; -171.000;  103.000
210.549;    9.600;  108.000;    3.000
210.695;   -5.175;   -3.000;  -95.000
210.840;   25.325;   94.000;   67.000
210.985;  -53.900; -484.000; -303.000
211.130;   73.175;  268.000;  406.000
211.275;   27.025;  207.000;  199.000
211.420;  -40.975; -300.000; -289.000
211.566;  -65.950; -536.000; -489.000
211.711;   12.950;  218.000;  157.000
211.856;  -59.850; -545.000; -519.000
212.001;   18.600;  151.000;   44.000
212.146;   24.525;  153.000;   49.000
212.291;  -17.075; -210.000; -186.000
212.436;  -33.400; -280.000;   -6.000
212.581;  -86.825; -685.000; -653.000
212.726;  -77.575; -487.000; -538.000
212.871;  -43.250; -552.000; -217.000
213.016; -146.050;-1172.000;-1029.000
213.161;   64.325;  406.000;  291.000
213.306;  -63.175; -435.000; -577.000
213.451;  -85.875; -778.000; -689.000
213.596;  -41.300; -455.000; -347.000
213.741;  -48.150; -448.000; -538.000
213.886;  -76.475; -498.000; -517.000
214.031;  -22.625; -294.000; -124.000
214.176;  -49.925; -408.000; -341.000
214.321;  -23.650; -296.000; -157.000
214.466;  -20.225; -163.000;  -43.000
214.611;   -4.775;  -61.000;  -10.000
214.756; -127.900; -948.000; -858.000
214.901;  -30.725; -388.000; -226.000
215.046; -135.350; -797.000; -825.000
215.191;   30.500;  128.000;   35.000
215.336;  -23.900; -157.000;  -19.000
215.480;  -66.675; -684.000; -505.000
215.625;   -7.025; -175.000;  -19.000
215.770;  -79.700; -757.000; -662.000
215.915;    4.175;   -5.000;  -97.000
216.060;    4.450; -113.000;  -21.000
216.205; -119.400; -731.000; -779.000
216.349;  -69.900; -470.000; -533.000
216.494; -138.400; -939.000; -867.000
216.639; -116.925; -823.000; -888.000
216.784;  -84.050; -577.000; -525.000
216.929;   54.375;  392.000;  281.000
217.073;  -10.575; -244.000;  -31.000
217.218;    9.475;   78.000;  -47.000
217.363;  -83.500; -656.000; -618.000
217.507;  -85.125; -623.000; -588.000
217.652; -116.975; -845.000; -874.000
217.797;  -87.150; -708.000; -659.000
217.942; -105.175; -856.000; -720.000
218.086;   68.800;  608.000;  539.000
218.231;  -23.400; -174.000;  -26.000
218.376;  -36.900; -337.000; -229.000
218.520;   -5.200;  -41.000;   96.000
218.665;  -27.275; -338.000; -204.000
218.810;  -42.850; -275.000; -233.000
218.954;   16.200;  201.000;   35.000
219.099; -104.125; -713.000; -963.000
219.243;  -76.625; -589.000; -554.000
219.388;  -32.825; -264.000; -136.000
219.532;   -1.475; -116.000; -116.000
219.677;  -77.825; -564.000; -521.000
219.822;   21.825;   33.000;   89.000
219.966;    8.825;   17.000;  -99.000
220.111;  -42.425; -328.000;  -40.000
220.255;  -90.825; -797.000; -750.000
220.400;   -9.575; -180.000; -146.000
220.544;  -69.300; -516.000; -450.000
220.689;  -51.750; -422.000; -451.000
220.833;  -16.025; -123.000;  -58.000
220.978;  -35.750; -393.000; -563.000
221.122;   28.425;  319.000;  307.000
221.267; -124.225; -906.000; -837.000
221.411;  -61.425; -478.000; -394.000
221.555;    4.775; -104.000;  -23.000
221.700;  -42.425; -329.000; -222.000
221.844;   32.825;  255.000;  272.000
221.989;  -37.475; -328.000; -311.000
222.133;  -30.750; -289.000; -307.000
222.277;   -5.725;    5.000;   78.000
222.422;   29.125;  227.000;  113.000
222.566;  -27.700; -381.000; -214.000
222.711;  -54.400; -414.000; -479.000
222.855;  -70.675; -643.000; -586.000
222.999;  -86.350; -642.000; -717.000
223.144;  -32.625; -195.000; -194.000
223.288;   58.750;  423.000;  251.000
223.432;   13.025;  184.000;  230.000
223.576;   21.250;  152.000;  -21.000
223.721;   54.000;  364.000;  273.000
223.865;  -60.775; -472.000; -475.000
224.009;  251.675; 1673.000; 1631.000
224.153;  -76.650; -660.000; -671.000
224.298;  -63.700; -531.000; -489.000
224.442;   -9.050;  -74.000;  -33.000
224.586;  -22.450; -169.000; -106.000
224.730;  -94.050; -858.000; -670.000
224.875; -106.275; -739.000; -688.000
225.019;   16.050;  102.000;  188.000
225.163;   60.075;  208.000;  341.000
225.307;   18.925;   97.000;  -91.000
225.451;   64.825;  360.000;  481.000
225.595;   37.850;  264.000;  176.000
225.739;  -11.625; -170.000;  -94.000
225.884;   13.925;   86.000;    5.000
226.028;  -94.225; -760.000; -626.000
226.172;  -42.700; -260.000; -273.000
226.316; -110.750; -941.000; -902.000
226.460;  -66.475; -645.000; -493.000
226.604;  -61.950; -406.000; -400.000
226.748; -105.975; -836.000; -733.000
226.892;  -39.675; -227.000; -181.000
227.036;  -50.800; -537.000; -447.000
227.180;  -44.400; -551.000; -375.000
227.324;  -67.300; -561.000; -580.000
227.468; -111.850; -819.000; -717.000
227.612;   20.975;  242.000;  -28.000
227.756;  -92.275; -845.000; -698.000
227.900;   55.950;  342.000;  441.000
228.044;  -40.550; -509.000; -290.000
228.188;   77.100;  448.000;  568.000
228.332;  -83.950; -546.000; -472.000
228.476;  -23.000; -223.000; -149.000
228.620;  -18.850; -210.000; -150.000
228.764;   64.375;  431.000;  349.000
228.908;  -23.075; -155.000;   30.000
229.052;  -55.650; -615.000; -528.000
229.195;  -14.400; -172.000;   13.000
229.339;  -20.325; -235.000; -305.000
229.483;  -23.200;    5.000; -162.000
229.627;    4.900; -156.000;  139.000
229.771;  -44.625; -218.000; -294.000
229.915;    9.975;  230.000;   79.000
230.059;  -99.275; -648.000; -663.000
230.202;  -35.750; -370.000; -317.000
230.346;  -13.200; -107.000;  107.000
230.490;  -64.025; -489.000; -521.000
230.634; -110.375; -736.000; -553.000
230.777;   75.225;  478.000;  509.000
230.921;  -52.100; -450.000; -359.000
231.065;  -49.000; -246.000; -286.000
231.209;   24.050;  261.000;  265.000
231.352;   30.525;   54.000;   40.000
231.496;   31.475;  568.000;  188.000
231.640;  -81.750; -693.000; -621.000
231.783;   66.225;  546.000;  525.000
231.927;  -45.225; -294.000; -365.000
232.071; -118.250; -962.000; -736.000
232.214; -122.050; -980.000; -764.000
232.358; -110.550; -683.000; -599.000
232.502;   14.750;  -19.000;    7.000
232.645; -130.925;-1090.000; -927.000
232.789;  -20.650; -257.000; -218.000
232.933;  -44.525; -407.000; -224.000
233.076; -120.125;-1038.000; -897.000
233.220; -105.700; -752.000; -777.000
233.363;  -75.625; -669.000; -477.000
233.507;   63.500;  371.000;  129.000
233.650;  -91.150; -764.000; -834.000
233.794;   44.600;  438.000;  461.000
233.938;  -63.225; -530.000; -362.000
234.081;  -13.100;  -93.000;   31.000
234.225;  -57.625; -631.000; -539.000
234.368; -107.050; -773.000; -723.000
234.512;  -26.975; -385.000; -299.000
234.655;  -85.600; -582.000; -555.000
234.798;  -66.700; -493.000; -466.000
234.942; -123.325; -884.000;-1002.000
235.085;  -72.300; -651.000; -443.000
235.229;  -68.375; -405.000; -410.000
235.372;  -47.975; -247.000; -191.000
235.516;  -58.350; -397.000; -321.000
235.659;   18.650;   92.000;  121.000
235.802;   -7.050;  -38.000;  -22.000
235.946;   22.350;  335.000;  215.000
236.089;   27.250;  126.000;  250.000
236.233;   56.350;  275.000;  298.000
236.376;  -48.625; -235.000; -378.000
236.519;  -44.800; -297.000; -319.000
236.663;  -33.700; -215.000; -117.000
236.806; -131.550;-1029.000; -999.000
236.949;   80.150;  543.000;  431.000
237.092;   70.775;  412.000;  391.000
237.236;  -81.025; -589.000; -502.000
237.379;   66.725;  352.000;  428.000
237.522; -121.500; -879.000; -768.000
237.666;  -24.725; -271.000;   18.000
237.809; -111.550; -851.000; -823.000
237.952;   38.550;  469.000;  271.000
238.095;  -67.975; -447.000; -442.000
238.238;   85.150;  688.000;  700.000
238.382;   11.500;  166.000;  103.000
238.525;  -70.700; -598.000; -511.000
238.668; -141.375;-1060.000; -985.000
238.811;  -86.775; -638.000; -643.000
238.954;  -53.350; -483.000; -334.000
239.097;  106.250;  617.000;  664.000
239.241;   31.825;  394.000;  326.000
239.384;  -37.150; -254.000; -214.000
239.527;  -68.300; -424.000; -224.000
239.670; -147.950; -994.000;-1091.000
239.813; -107.575; -696.000; -658.000
239.956;   83.525;  579.000;  473.000
240.099; -117.375; -778.000; -725.000
240.242;   64.625;  428.000;  432.000
240.385;   59.350;  466.000;  450.000
240.528;  -74.925; -706.000; -473.000
240.671;   15.500;  189.000;  134.000
240.814;  -43.650; -441.000; -158.000
240.957;  -88.850; -767.000; -578.000
241.100;  -83.450; -779.000; -755.000
241.243; -148.375;-1234.000; -893.000
241.386;  -73.200; -508.000; -379.000
241.529;  -81.975; -735.000; -547.000
241.672;  -66.625; -566.000; -495.000
241.815; -126.850; -832.000; -808.000
241.958;  -12.275; -125.000; -182.000
242.101;  -69.475; -545.000; -390.000
242.244;  -39.075; -270.000; -325.000
242.387;  -34.225; -304.000; -246.000
242.530;   77.300;  470.000;  134.000
242.673;  -41.375; -381.000; -309.000
242.815; -129.425; -925.000; -899.000
242.958;  -66.800; -482.000; -381.000
243.101;   20.775;  132.000;  187.000
243.244;  -86.100; -564.000; -521.000
243.387;  -38.250; -313.000; -316.000
243.530;  -93.750; -657.000; -674.000
243.672;   10.050;   43.000;  -92.000
243.815;  -52.650; -355.000; -283.000
243.958;    9.450;   98.000;  -26.000
244.101;    6.850;   59.000;  -16.000
244.243;    3.350;  -47.000;  101.000
244.386; -126.200; -761.000; -630.000
244.529;  -12.050; -132.000; -139.000
244.672; -154.600;-1154.000; -951.000
244.814;  -94.150; -621.000; -794.000
244.957;  -39.125; -380.000; -304.000
245.100;  -81.250; -489.000; -489.000
245.242;  -61.175; -387.000; -374.000
245.385;    0.725;  -59.000;  -39.000
245.528; -121.125; -871.000; -705.000
245.670;  104.025;  612.000;  634.000
245.813;  -89.375; -599.000; -547.000
245.956;  -34.450; -324.000; -275.000
246.098;  -76.825; -508.000; -650.000
246.241;    1.650;  194.000;   48.000
246.383;   -6.750; -119.000;  -73.000
246.526;  -75.250; -454.000; -525.000
246.669; -117.400; -889.000; -780.000
246.811;   24.050;  172.000;   -1.000
246.954;  -69.075; -512.000; -426.000
247.096;  -21.850;  -84.000;   -6.000
247.239;  -70.975; -482.000; -445.000
247.381;  -58.850; -647.000; -488.000
247.524;   82.475;  645.000;  679.000
247.666;   -7.250;   58.000;   11.000
247.809; -117.625; -887.000; -691.000
247.951;   14.200;  -75.000;  138.000
248.094;   40.800;  432.000;  308.000
248.236; -165.300;-1262.000;-1238.000
248.378;   -2.400; -356.000;  -81.000
248.521;   -4.500; -334.000; -337.000
248.663;  -23.300; -236.000; -267.000
248.806;  -16.150; -300.000; -266.000
248.948;  -90.875; -886.000; -763.000
249.090;  -43.875; -428.000; -398.000
249.233;  -41.075; -344.000; -381.000
249.375;  -71.475; -474.000; -451.000
249.518;   -9.275;  -83.000; -133.000
249.660;   -7.775; -103.000;    3.000
249.802; -159.475;-1303.000;-1189.000
249.945;  -89.800; -612.000; -540.000
250.087; -110.400; -834.000; -768.000
250.229;  -39.050; -362.000; -480.000
250.371;  -77.000; -494.000; -439.000
250.514;  -45.225; -310.000; -244.000
250.656;  -60.550;   69.000;  102.000
250.798; -118.025; -849.000; -800.000
250.940;  -59.050; -322.000; -322.000
251.083;  -14.725; -335.000; -111.000
251.225;   70.925;  338.000;  310.000
251.367;  -31.925; -274.000; -373.000
251.509;  -38.325; -265.000; -210.000
251.651;  -97.900; -731.000; -671.000
251.794;   90.825;  538.000;  632.000
251.936; -100.850; -821.000; -747.000
252.078;  -66.850; -540.000; -461.000
252.220;  -78.875; -645.000; -477.000
252.362;   72.000;  344.000;  462.000
252.504;  -74.150; -677.000; -584.000
252.646; -103.275; -875.000; -722.000
252.788;   -3.150;   14.000; -128.000
252.931;  -25.475; -257.000; -253.000
253.073;  -38.575; -376.000; -317.000
253.215;  -12.200;  141.000;  122.000
253.357;   -7.975;   82.000; -153.000
253.499;  -50.375; -374.000; -234.000
253.641;  -83.625; -749.000; -594.000
253.783;  -95.375; -609.000; -527.000
253.925;  -84.025; -586.000; -591.000
254.067; -112.250; -744.000; -667.000
254.209;  -24.675; -391.000; -259.000
254.351; -140.325; -865.000; -883.000
254.493;  -68.825; -441.000; -417.000
254.635; -115.775; -936.000; -818.000
254.777;  -98.625; -752.000; -687.000
254.918;  -67.625; -512.000; -430.000
255.060;  -55.075; -551.000; -395.000
255.202;  -61.725; -473.000; -261.000
255.344;  -74.250; -658.000; -455.000
255.486;  -63.275; -471.000; -406.000
255.628; -100.900; -780.000; -781.000
255.770;  -91.025; -676.000; -536.000
255.912;  -62.150; -559.000; -468.000
256.053; -100.150; -730.000; -508.000
256.195;  158.900; 1008.000;  903.000
256.337;  -95.225; -861.000; -595.000
256.479;   67.600;  532.000;  416.000
256.621;  -44.375; -394.000; -212.000
256.762;  -88.775; -789.000; -742.000
256.904;   63.525;  485.000;  487.000
257.046;  -24.300; -381.000; -271.000
257.188;  -40.850; -351.000; -264.000
257.329;  -61.450; -525.000; -464.000
257.471; -114.025; -939.000; -807.000
257.613;  -66.225; -584.000; -498.000
257.755; -137.625;-1073.000; -982.000
257.896;   32.300;  286.000;  392.000
258.038;  -76.225; -403.000; -352.000
258.180;  -34.750; -354.000; -279.000
258.321;  -97.475; -581.000; -457.000
258.463;  -10.475;  -71.000;  133.000
258.605;  -80.075; -562.000; -570.000
258.746; -109.875; -886.000; -772.000
258.888; -153.050;-1026.000;-1020.000
259.029;   23.175;  121.000;   -8.000
259.171;  -86.275; -614.000; -550.000
259.313;   11.425;  -49.000;  -47.000
259.454;  -76.850; -536.000; -414.000
259.596;  -54.650; -483.000; -390.000
259.737;  -72.500; -590.000; -474.000
259.879;   37.100;  217.000;  311.000
260.020;  106.150;  901.000;  636.000
260.162;  -17.875; -146.000; -253.000
260.303; -113.050; -768.000; -687.000
260.445;  -80.025; -609.000; -613.000
260.586;   33.650;  392.000;  157.000
260.728;  -39.125; -360.000; -248.000
260.869; -109.150; -350.000; -343.000
261.011;   86.475;  706.000;  537.000
261.152;  -62.175; -479.000; -319.000
261.293;  -80.775; -576.000; -595.000
261.435;  -30.700; -219.000; -184.000
261.576;  -51.900; -455.000; -325.000
261.718;   52.250;  420.000;  470.000
261.859; -131.100; -940.000; -949.000
262.000; -129.800; -951.000;-1016.000
262.142;  -31.750;  -52.000;  -60.000
262.283; -128.675; -808.000; -691.000
262.424;  -83.625; -666.000; -625.000
262.566; -145.050;-1161.000; -983.000
262.707; -111.875; -840.000; -830.000
262.848; -122.050; -769.000; -726.000
262.990;  -55.000; -362.000; -345.000
263.131;   85.025;  650.000;  681.000
263.272;   -7.175;  -61.000;  -41.000
263.413;  -98.625; -589.000; -561.000
263.555;  -60.625; -669.000; -143.000
263.696;  -88.850; -550.000; -641.000
263.837;  -61.075; -449.000; -551.000
263.978;    7.850;   -5.000;  -77.000
264.119;  -43.325; -283.000; -264.000
264.261; -112.775; -847.000; -630.000
264.402;    8.025;   33.000;   40.000
264.543;  -78.700; -509.000; -524.000
264.684;  -17.525;   61.000;  -50.000
264.825;  -63.350; -816.000; -538.000
264.966;   -1.350;  -84.000;  -67.000
265.107; -104.875; -646.000; -670.000
265.248; -122.050; -825.000; -812.000
265.390;  -12.600;  152.000;   -9.000
265.531;   -9.625; -238.000; -107.000
265.672;  -95.475; -557.000; -630.000
265.813;   67.550;  563.000;  439.000
265.954; -146.450; -959.000; -940.000
266.095;  -14.550; -372.000; -322.000
266.236; -103.825; -686.000; -548.000
266.377;  -27.975; -243.000; -297.000
266.518;  -69.150; -619.000; -547.000
266.659;   28.550;  170.000;  268.000
266.800;    4.600;   83.000;   85.000
266.941;  -77.250; -487.000; -478.000
267.082;    0.200;  354.000;   99.000
267.223;  -55.725; -344.000; -273.000
267.364; -117.225; -892.000; -686.000
267.504;  -12.725;    3.000;  135.000
267.645;   -3.750;  160.000;   67.000
267.786;  -24.500; -147.000;  -86.000
267.927;  -63.000; -473.000; -379.000
268.068;  -27.250; -186.000;  -61.000
268.209;  -40.625; -175.000; -413.000
268.350;  -64.650; -388.000; -532.000
268.490;  -82.025; -648.000; -521.000
268.631;   40.450;  127.000;  225.000
268.772; -105.150; -874.000; -647.000
268.913;  -45.750; -328.000; -476.000
269.054;  -10.450; -117.000;   12.000
269.194;  -52.275; -418.000; -402.000
269.335; -153.000;-1137.000;-1074.000
269.476;  -10.725;   33.000;  -35.000
269.617;  -49.875; -347.000; -392.000
269.757;  -87.575; -713.000; -646.000
269.898; -113.900; -856.000; -613.000
270.039;  -63.250; -415.000; -405.000
270.180; -138.775; -952.000; -816.000
270.320;  -23.375; -190.000; -250.000
270.461;  -32.100; -277.000; -249.000
270.602;  -18.975; -186.000; -156.000
270.742; -126.500; -868.000; -943.000
270.883;  -67.625; -442.000; -390.000
271.023;  -62.950; -358.000; -357.000
271.164;  -72.400; -607.000; -528.000
271.305;  -79.250; -666.000; -654.000
271.445;  -90.750; -722.000; -683.000
271.586;  -58.500; -462.000; -283.000
271.726;  -36.475; -397.000; -322.000
271.867;  -59.875; -594.000; -534.000
272.008;  181.425; -473.000; -285.000
272.148;  139.875;  462.000;  468.000
272.289;   26.975; -113.000; -181.000
272.429;   18.575;   19.000;  185.000
272.570;  -91.425; -633.000; -737.000
272.710; -105.575; -825.000; -775.000
272.851;  -12.325;  113.000; -130.000
272.991; -155.450;-1173.000;-1077.000
273.131;  -63.375; -419.000; -459.000
273.272;  -98.425; -683.000; -723.000
273.412;   10.275; -143.000;  -31.000
273.553;  -45.025; -488.000; -507.000
273.693;  152.500;  913.000;  858.000
273.834;  -81.350; -894.000; -692.000
273.974;  -78.875; -664.000; -615.000
274.114;  -98.600; -772.000; -560.000
274.255;   77.850;  414.000;  373.000
274.395;    6.700; -180.000; -125.000
274.535;   37.500;  199.000;  350.000
274.676;   28.725;  225.000;   94.000
274.816;    3.875;  110.000;   34.000
274.956;  -76.200; -624.000; -690.000
275.097;  -59.475;-1014.000; -922.000
275.237; -101.575; -913.000; -803.000
275.377; -103.100; -778.000; -689.000
275.517; -146.675; -878.000; -937.000
275.658;  -59.200; -590.000; -555.000
275.798;  -70.725; -606.000; -413.000
275.938;   23.300;  215.000;  323.000
276.078;  -70.250; -626.000; -395.000
276.218;    2.400;   99.000;  104.000
276.359; -132.475;-1026.000;-1024.000
276.499;  -60.025; -605.000; -446.000
276.639;  -27.825; -305.000; -151.000
276.779;  -43.025; -475.000; -357.000
276.919;  -88.250; -783.000; -624.000
277.059;  -23.700; -261.000; -212.000
277.199;  -34.925; -357.000; -259.000
277.340;   52.650;  287.000;  175.000
277.480; -105.000; -840.000; -693.000
277.620;   18.000;  192.000;   16.000
277.760; -193.350;-1533.000;-1294.000
277.900;   26.025;  113.000;   33.000
278.040;   27.625;  137.000;  159.000
278.180;   42.750;  270.000;  170.000
278.320;   -9.475;   21.000;   56.000
278.460;  -58.450; -443.000; -469.000
278.600;  -78.375; -708.000; -598.000
278.740;   65.825;  448.000;  224.000
278.880;  -46.900; -768.000; -791.000
279.020;    9.325; -194.000; -144.000
279.160;  -79.675; -672.000; -595.000
279.300; -112.175; -926.000; -873.000
279.440;  -76.300; -709.000; -622.000
279.579;  -18.625;-1014.000; -929.000
279.719;  -58.800; -410.000; -394.000
279.859;   78.200;   -4.000;   41.000
279.999;   29.300; -208.000;  101.000
280.139;  -17.225; -435.000; -387.000
280.279;  -68.625; -708.000; -745.000
280.419;   -2.750; -229.000; -147.000
280.559;  -22.675; -259.000; -180.000
280.698;  -71.825; -790.000; -639.000
280.838;  -96.025; -778.000; -800.000
280.978; -108.625; -846.000; -790.000
281.118; -112.950; -811.000; -704.000
281.257;    3.900;   24.000;    6.000
281.397; -117.475;-1094.000; -960.000
281.537;  -88.525; -599.000; -712.000
281.677;  -20.700; -150.000; -101.000
281.816;  -89.500; -700.000; -630.000
281.956;  -31.375; -193.000; -257.000
282.096;  -57.550; -539.000; -396.000
282.235; -103.775; -672.000; -638.000
282.375;  -18.675; -243.000;  -98.000
282.515;  -96.150; -715.000; -707.000
282.654;   36.300;   29.000;  106.000
282.794;   33.900;  388.000;  244.000
282.934;  -46.550; -530.000; -491.000
283.073; -123.850;-1030.000; -857.000
283.213;  -52.175; -460.000; -467.000
283.353;  -27.650; -408.000; -349.000
283.492;  -39.250; -264.000; -296.000
283.632;  -45.925; -254.000; -168.000
283.771;  -88.750; -859.000; -730.000
283.911;  -46.350; -369.000; -260.000
284.050; -115.150; -794.000; -748.000
284.190; -157.750;-1229.000;-1096.000
284.329; -132.975;-1055.000; -964.000
284.469;  -61.925; -516.000; -591.000
284.608;  -56.825; -559.000; -598.000
284.748;  -78.075; -614.000; -570.000
284.887;  -14.125;  -87.000;  -20.000
285.027; -120.425; -844.000; -892.000
285.166;  -33.900; -192.000; -249.000
285.306;   11.750; -116.000;  -33.000
285.445;  -29.950; -229.000; -343.000
285.584;  -86.825; -630.000; -494.000
285.724;  -36.875; -282.000; -322.000
285.863; -108.000; -857.000; -507.000
286.002;  -42.250; -366.000; -276.000
286.142; -103.025; -715.000; -622.000
286.281;  -57.625; -525.000; -493.000
286.420;  -85.075; -554.000; -417.000
286.560;  104.500;  653.000;  623.000
286.699; -125.575; -958.000; -912.000
286.838;  -77.600; -590.000; -591.000
286.978;  -87.375; -533.000; -537.000
287.117; -125.125;-1085.000; -950.000
287.256;  -32.975; -228.000; -211.000
287.395;  -50.625; -197.000; -378.000
287.535;  -53.000; -370.000; -298.000
287.674;  -76.875; -509.000; -484.000
287.813;   61.125;  661.000;  533.000
287.952; -129.400;-1010.000; -871.000
288.091; -141.825;-1049.000; -915.000
288.231;   15.675;   13.000;   15.000
288.370; -177.950;-1217.000;-1200.000
288.509; -103.125; -728.000; -645.000
288.648;  -96.950; -770.000; -548.000
288.787;  -30.625; -243.000;  -87.000
288.926;  -56.375; -454.000; -475.000
289.065;  118.175;  859.000;  672.000
289.204;  -43.225; -377.000; -217.000
289.344;  -88.925; -791.000; -690.000
289.483;   36.950;  416.000;  304.000
289.622;  -40.225; -291.000; -149.000
289.761;   -6.025; -309.000; -166.000
289.900; -115.125; -785.000; -626.000
290.039;   -5.650;  -12.000;  -95.000
290.178;  -26.800; -274.000; -180.000
290.317;  -82.600; -618.000; -479.000
290.456;  -57.150; -463.000; -451.000
290.595; -136.250; -961.000; -833.000
290.734; -117.750; -904.000; -891.000
290.873;  -63.125; -456.000; -420.000
291.011; -102.150; -833.000; -843.000
291.150;  -96.925; -770.000; -682.000
291.289;  -23.550; -343.000; -110.000
291.428;  -95.275; -599.000; -480.000
291.567;  -51.100; -370.000; -442.000
291.706;    3.400;  109.000;  154.000
291.845;  -82.925; -597.000; -505.000
291.984; -171.775;-1234.000;-1061.000
292.122;   75.575;  602.000;  582.000
292.261;   40.575;  620.000;  463.000
292.400;   14.000; -144.000;  211.000
292.539; -111.800; -959.000; -813.000
292.678;  -34.650; -325.000; -300.000
292.816; -161.725;-1136.000; -965.000
292.955;  -88.625; -844.000; -684.000
293.094;  -16.050; -173.000; -337.000
293.233;  -42.875; -556.000; -400.000
293.371;  -33.600; -225.000;  -84.000
293.510; -100.850; -866.000; -780.000
293.649; -129.575; -959.000; -924.000
293.787;  -58.300;-1083.000;-1012.000
293.926;    6.700; -113.000;  -32.000
294.065;  -36.550; -379.000; -290.000
294.203;   63.100;  298.000;  406.000
294.342;   37.825;   74.000;  156.000
294.481; 5886.350;51180.000; -836.000
294.619;  -19.475; -425.000; -582.000
294.758; -143.925;-1230.000;-1137.000
294.896;   84.250; -125.000;    5.000
295.035; -118.000;-1040.000;-1006.000
295.174; -100.825;-1082.000; -954.000
295.312;  -38.925; -323.000; -203.000
295.451;   -3.175; -307.000; -428.000
295.589;  -50.450; -389.000; -518.000
295.728;   37.325; -292.000; -165.000
295.866;   13.500;  -36.000;  -51.000
296.005;  -49.675; -584.000; -341.000
296.143;  -53.175; -558.000; -596.000
296.282;  -98.300; -957.000; -881.000
296.420;  -90.500; -657.000; -557.000
296.559;  -66.500; -892.000; -633.000
296.697;   44.375; -847.000; -665.000
296.835;   89.050;-1141.000;-1002.000
296.974;   49.225;  -23.000;   39.000
297.112;   19.725; -443.000; -504.000
297.251;  -52.825; -815.000; -755.000
297.389;  116.475; -576.000; -438.000
297.527;   63.075; -145.000;  -83.000
297.666;  -25.625; -486.000; -438.000
297.804;  -42.275; -404.000; -264.000
297.942;    0.400; -136.000; -161.000
298.081;   -3.300; -183.000;   63.000
298.219;   70.900;  -17.000;  -19.000
298.357;   64.050; -144.000;  -71.000
298.495;   44.675; -810.000; -812.000
298.634;   94.100;  245.000;  219.000
298.772;   77.000; -220.000; -338.000
298.910;  -23.100; -309.000; -182.000
299.048;  -14.575; -130.000; -153.000
299.187;  -37.875; -350.000; -250.000
299.325;   31.400;   52.000;  122.000
299.463;   63.850; -389.000; -299.000
299.601;  137.375; -327.000; -271.000
299.739;  -98.700; -908.000; -883.000
299.877;  -74.250; -791.000; -703.000
300.016;  -37.900;-1095.000; -935.000
300.154;  166.800;  -19.000; -161.000
300.292;   76.100; -428.000; -348.000
300.430;   53.000; -408.000; -291.000
300.568; -100.725; -940.000; -874.000
300.706;  -41.700; -366.000; -469.000
300.844;  -79.175;-1108.000; -979.000
300.982;  129.625;  246.000;  282.000
301.120; -107.800; -965.000; -866.000
301.258;  -44.925; -812.000; -705.000
301.396;   48.975;  104.000;  -41.000
301.534;  104.125; -218.000; -293.000
301.672;   11.675; -664.000; -521.000
301.810;   43.800; -613.000; -545.000
301.948;  137.750;   53.000;  149.000
302.086;  645.325; -250.000;  -32.000
302.224;  994.750; -610.000; -585.000
302.362;   61.800; -558.000; -622.000
302.500;  -14.550; -923.000; -893.000
302.638;  126.200;  128.000;  245.000
302.776;   19.875; -352.000; -408.000
302.913;   57.550;  447.000;  236.000
303.051;    4.300;  -86.000;  -23.000
303.189;   63.650;   90.000;  118.000
303.327;  -29.775; -341.000; -256.000
303.465;  -79.400; -832.000; -588.000
303.603;  -92.850; -805.000; -604.000
303.740;  125.000;  417.000;  241.000
303.878;   34.500; -800.000; -759.000
304.016;  -79.250; -915.000; -790.000
304.154; -116.925;-1123.000;-1152.000
304.291;  -30.200; -505.000; -554.000
304.429;   17.075;  102.000;   74.000
304.567; -128.425; -908.000; -893.000
304.705;  -51.075; -408.000; -515.000
304.842;  113.325; -616.000; -540.000
304.980;   66.800;  215.000;   35.000
305.118;   57.150; -367.000; -365.000
305.255;  -50.425; -945.000; -927.000
305.393;   65.900;  178.000;  239.000
305.531; -110.150;-1173.000; -956.000
305.668;  -54.150; -663.000; -582.000
305.806;   96.500; -358.000; -439.000
305.943;   99.950; -629.000; -637.000
306.081;   62.725; -378.000; -267.000
306.219;  -99.625; -863.000; -748.000
306.356;   13.800;  158.000;   27.000
306.494;  111.050;  981.000;  761.000
306.631;    3.175;  -11.000;  -55.000
306.769;   15.925; -613.000; -485.000
306.906;   -4.875; -284.000; -258.000
307.044;  -56.500; -473.000; -488.000
307.181;  -56.400; -410.000; -332.000
307.319;    3.700;  112.000;   87.000
307.456; -160.850;-1191.000;-1153.000
307.594;  -86.950; -980.000; -727.000
307.731;   -1.600; -371.000; -164.000
307.868;    4.600;  -15.000;   20.000
308.006; -132.350; -961.000; -847.000
308.143;  -61.275; -618.000; -330.000
308.281;  123.175;  -37.000; -254.000
308.418;   -9.550; -748.000; -640.000
308.555;  -69.175; -400.000; -250.000
308.693;  -58.625; -577.000; -573.000
308.830;  -93.725; -712.000; -657.000
308.967;   -2.800; -215.000;  -95.000
309.105;  -48.000; -507.000; -396.000
309.242;   16.575; -468.000; -367.000
309.379;  219.475; -577.000; -655.000
309.517;  -58.425; -936.000; -948.000
309.654; -109.825; -910.000; -734.000
309.791;  -59.875; -662.000; -580.000
309.928; -100.850; -977.000; -914.000
310.065;  194.425;  819.000;  697.000
310.203;    1.550; -825.000; -850.000
310.340;    5.925; -465.000; -321.000
310.477;  -64.125; -412.000; -516.000
310.614;  -63.100; -383.000; -473.000
310.751;  -72.425; -427.000; -518.000
310.889;   -6.650;    1.000;   11.000
311.026; -142.775;-1161.000; -939.000
311.163;  -47.625; -386.000; -380.000
311.300;  -76.200; -512.000; -479.000
311.437;  -63.950; -658.000; -619.000
311.574; -145.825;-1226.000; -985.000
311.711;  -54.100; -595.000; -433.000
311.848;  -30.150; -380.000; -388.000
311.985;    8.275;  270.000;   93.000
312.122; -117.050; -932.000; -762.000
312.259; -108.300; -941.000; -994.000
312.396;  -69.450; -508.000; -551.000
312.533;  -82.875; -812.000; -790.000
312.670; -115.725;-1070.000; -898.000
312.807;  -15.650; -352.000; -367.000
312.944;  -76.250; -513.000; -611.000
313.081;  -19.750; -150.000; -415.000
313.218;  -91.250;-1111.000; -867.000
313.355;    6.375; -531.000; -449.000
313.492;    9.875; -455.000; -292.000
313.629;  156.400;  815.000;  735.000
313.766; -153.175;-1176.000;-1008.000
313.902;   -7.525; -186.000;   21.000
314.039;  -42.950; -372.000; -289.000
314.176;   43.650;  286.000;  192.000
314.313;  -62.575; -569.000; -473.000
314.450;  -60.875; -788.000; -684.000
314.587;  -64.925; -468.000; -480.000
314.723;   25.200;  -78.000;  130.000
314.860;   42.875;  318.000;  332.000
314.997;   40.200;  223.000;  142.000
315.134;  -35.675; -385.000; -368.000
315.270;  -28.950; -480.000; -496.000
315.407; -122.700;-1094.000; -967.000
315.544;  -41.275; -657.000; -538.000
315.681;  -50.550; -681.000; -565.000
315.817;   38.800; -133.000; -176.000
315.954;   24.650; -613.000; -392.000
316.091; -121.025;-1045.000;-1023.000
316.227;  -22.625;  -71.000; -179.000
316.364;    1.425;   23.000;    6.000
316.500;  -35.200; -113.000; -300.000
316.637;  -40.150; -181.000; -302.000
316.774;  -80.875; -625.000; -358.000
316.910;  -85.450; -598.000; -629.000
317.047;  -59.975; -487.000; -351.000
317.183;  -52.175; -435.000; -566.000
317.320;  -11.275; -367.000; -321.000
317.456;  -62.975; -733.000; -805.000
317.593;  -88.800; -598.000; -641.000
317.729;   22.525;  168.000;  -67.000
317.866; -201.125;-1434.000;-1285.000
318.002;  -80.375; -708.000; -948.000
318.139;  -89.050; -883.000; -867.000
318.275;  -95.525;-1003.000; -738.000
318.412;  -54.475; -517.000; -336.000
318.548;  -29.900; -751.000; -720.000
318.685;  -96.175; -985.000; -888.000
318.821;  -98.250; -762.000; -735.000
318.957;  -21.750;   34.000;  -23.000
319.094;   42.725;  297.000;  154.000
319.230;  -60.900; -756.000; -742.000
319.367;  130.475; -471.000; -520.000
319.503;   79.400; -538.000; -436.000
319.639;  -89.875; -877.000; -793.000
319.775;  -52.225; -750.000; -685.000
319.912;  -39.900; -424.000; -519.000
320.048;  -87.850;-1184.000;-1184.000
320.184;   75.550;   59.000;   70.000
320.321;  -55.100; -497.000; -467.000
320.457;   57.400;  475.000;  662.000
320.593;  -59.650; -375.000; -382.000
320.729; -113.350; -732.000; -734.000
320.866;  -72.275; -577.000; -635.000
321.002;  -80.425; -759.000; -809.000
321.138;   -6.700; -135.000; -211.000
321.274;   75.400; -148.000; -115.000
321.410;  -21.925; -585.000; -353.000
321.546;  -32.000;-1011.000; -911.000
321.683;   70.975;  400.000;  185.000
321.819;    1.775;  -48.000; -117.000
321.955; -107.675; -743.000; -722.000
322.091;  -28.000; -585.000; -540.000
322.227;   -2.475; -382.000; -202.000
322.363;    3.375; -320.000; -215.000
322.499;  -35.700; -343.000; -331.000
322.635;  176.375;  636.000;  443.000
322.771;   26.325; -139.000;   12.000
322.907;   84.750;  129.000;  327.000
323.043;  -21.850; -115.000; -206.000
323.179;  -26.975; -394.000; -363.000
323.315;   42.725; -401.000; -371.000
323.451;  127.350; -328.000; -236.000
323.587;   73.275;  -60.000;  -77.000
323.723;   28.450; -682.000; -601.000
323.859;  -18.400; -258.000;  -76.000
323.995;  -37.925; -467.000; -409.000
324.131; -102.125; -967.000; -892.000
324.267;  -23.475; -254.000; -276.000
324.402; -115.925; -960.000; -983.000
324.538;  -12.850; -279.000; -104.000
324.674;   31.700;  164.000;   77.000
324.810;  156.550;  226.000;  308.000
324.946;   36.950; -810.000; -658.000
325.082;  -67.175; -568.000; -475.000
325.217;    1.325;  -62.000;   16.000
325.353; -102.850; -764.000; -659.000
325.489;  -75.925; -540.000; -506.000
325.625;  -65.900; -579.000; -525.000
325.760;   54.675;  517.000;  376.000
325.896;  -24.500; -515.000; -702.000
326.032;  -49.700; -403.000; -352.000
326.168;  -56.700; -462.000; -369.000
326.303;  -60.700; -352.000; -461.000
326.439;  -11.100; -336.000; -276.000
326.575;   12.725; -190.000;  -29.000
326.710;  -11.025; -156.000;  -30.000
326.846;   -4.375;  146.000;  103.000
326.982;  -88.800; -530.000; -548.000
327.117;  -73.150; -481.000; -442.000
327.253;  -80.625; -745.000; -742.000
327.388; -130.775;-1137.000;-1153.000
327.524;  -39.775; -811.000; -578.000
327.659;  -17.100;  -58.000;  -22.000
327.795;   -3.525;   69.000;   45.000
327.931;  -84.875; -723.000; -499.000
328.066;  -17.225; -417.000; -276.000
328.202;  -12.450;   12.000; -129.000
328.337;  106.100;  957.000;  713.000
328.473;   35.775;  -12.000;  -74.000
328.608;  -16.775; -256.000; -267.000
328.743;  -93.200; -799.000; -664.000
328.879;   12.225;  214.000;  114.000
329.014;  -36.975; -102.000; -122.000
329.150;  -84.275; -358.000; -483.000
329.285;  -54.725; -465.000; -466.000
329.421;  -49.800; -548.000; -246.000
329.556;  -15.800;  -36.000;   85.000
329.691;  -83.625; -633.000; -615.000
329.827;  -80.050; -626.000; -480.000
329.962;  -43.675;  131.000; -301.000
330.097;  -83.650; -673.000; -585.000
330.233;  -38.600; -410.000; -223.000
330.368; -123.750; -839.000; -628.000
330.503;  -17.925;    3.000;   98.000
330.638;   13.350;  -93.000; -125.000
330.774;  -57.300; -609.000; -530.000
330.909;  -30.375; -434.000; -244.000
331.044; -100.125; -714.000; -708.000
331.179; -164.450;-1217.000;-1109.000
331.315;   15.775;   77.000;   20.000
331.450;   30.475;  157.000;  285.000
331.585;  -76.375; -805.000; -706.000
331.720;  -89.975; -510.000; -460.000
331.855;   -8.250;  -35.000; -102.000
331.990;  220.825;   62.000;  138.000
332.126;  119.975; -110.000;   71.000
332.261;  -20.725; -379.000; -265.000
332.396;    5.725; -135.000; -242.000
332.531; -105.200;-1074.000;-1031.000
332.666;   31.050; -519.000; -363.000
332.801; -107.525; -726.000; -807.000
332.936;  -14.175; -192.000; -122.000
333.071; -114.150; -870.000; -817.000
333.206;   22.750;  307.000;  379.000
333.341;   38.500;  344.000;  418.000
333.476;  -76.475; -627.000; -623.000
333.611;  -33.575; -251.000; -173.000
333.746;  -33.500; -381.000; -464.000
333.881; -103.475; -973.000; -935.000
334.016; -120.375; -936.000; -917.000
334.151; -121.175; -746.000; -702.000
334.286;   33.100;  152.000;  186.000
334.421;    8.725; -125.000; -178.000
334.556;  -77.925; -611.000; -567.000
334.690;  -74.175; -631.000; -577.000
334.825;   70.975;  381.000;   83.000
334.960;  -35.425; -285.000; -413.000
335.095;   18.300;  135.000;  -91.000
335.230;  -89.650; -722.000; -738.000
335.365; -115.250;-1084.000; -990.000
335.499; -115.300;-1108.000;-1037.000
335.634;   38.375;    9.000;  534.000
335.769;  -83.525; -755.000; -720.000
335.904;  -40.475; -603.000; -561.000
336.038;  -35.975; -735.000; -657.000
336.173;  -90.775;-1206.000;-1194.000
336.308;   33.400; -116.000; -189.000
336.443;   38.125; -544.000; -634.000
336.577;  -64.800; -936.000; -787.000
336.712;   92.100;   -4.000;  -12.000
336.847;  -16.325; -724.000; -607.000
336.981;   93.450; -272.000; -208.000
337.116;  314.950;  615.000;  501.000
337.250;  185.525; -434.000; -421.000
337.385;  216.725; -297.000; -208.000
337.520;   53.450; -632.000; -603.000
337.654;  -34.350; -215.000; -126.000
337.789; -116.550; -989.000; -933.000
337.923;  -25.975; -104.000; -205.000
338.058;  -86.825; -673.000; -738.000
338.192;  -20.300; -611.000; -488.000
338.327;    4.425;  -18.000; -155.000
338.461;  -64.875; -299.000; -469.000
338.596;  -86.175; -780.000; -638.000
338.730; -105.850; -767.000; -803.000
338.865;   77.425;  -46.000; -140.000
338.999;  -57.425; -846.000; -702.000
339.134;  -39.650; -634.000; -536.000
339.268;   11.850; -741.000; -603.000
339.403;  335.500; -740.000; -775.000
339.537;   97.000; -894.000; -820.000
339.671; -115.650; -829.000; -813.000
339.806;  -66.975; -556.000; -512.000
339.940;    5.750; -261.000; -235.000
340.074;  -87.775; -685.000; -510.000
340.209;  -46.700; -351.000; -230.000
340.343;  -85.250; -517.000; -573.000
340.477;  163.100;  998.000; 1036.000
340.612;  -56.750;-1033.000; -900.000
340.746;  119.475; -199.000; -243.000
340.880;  -58.400; -924.000; -785.000
341.014;  -11.275;  -45.000; -154.000
341.149; -101.825; -756.000; -718.000
341.283; -111.100; -839.000; -754.000
341.417;  -82.375;-1124.000; -938.000
341.551;  153.025; -768.000; -708.000
341.685;  -17.600; -633.000; -611.000
341.820;  -55.200; -562.000; -493.000
341.954;  -46.575; -218.000; -349.000
342.088; -157.050;-1102.000;-1019.000
342.222;   70.500;  565.000;  618.000
342.356;  -56.175; -395.000; -335.000
342.490;  -79.025; -880.000; -841.000
342.624;  -30.300; -339.000; -242.000
342.758;   18.000; -364.000; -312.000
342.892;  -51.550; -710.000; -585.000
343.026;  -25.550;  -58.000; -116.000
343.160;  -52.425; -426.000; -376.000
343.294;  -68.675; -474.000; -337.000
343.428;  -10.425; -488.000; -448.000
343.562;   -3.875; -172.000;  -23.000
343.696;  -14.875; -385.000; -314.000
343.830;   -1.575; -362.000; -356.000
343.964;   22.075; -231.000; -168.000
344.098;  984.625;  199.000;   70.000
344.232;  841.500; -266.000; -127.000
344.366;   96.975; -567.000; -453.000
344.500;   54.400; -665.000; -744.000
344.634;   38.675; -324.000; -164.000
344.768;   -3.625; -531.000; -341.000
344.902;   32.625;  278.000;  256.000
345.035;  -81.150; -556.000; -496.000
345.169; -139.425; -933.000; -656.000
345.303;  -15.700; -308.000; -482.000
345.437;  -70.300; -826.000; -717.000
345.571;  -68.300; -675.000; -594.000
345.704;  -73.050; -309.000; -532.000
345.838;   -3.825; -331.000; -284.000
345.972;  -28.075; -543.000; -495.000
346.106;  149.625; -179.000; -190.000
346.239;  439.350; -312.000; -243.000
346.373;   18.625; -343.000; -302.000
346.507; -130.375; -950.000; -962.000
346.640;  174.800;  -30.000;   13.000
346.774;  -29.925; -650.000; -797.000
346.908;   -9.100; -138.000;  -11.000
347.041;  -80.575; -646.000; -593.000
347.175;   14.625;  259.000;   27.000
347.309;  -61.575; -698.000; -628.000
347.442;  -88.475; -883.000; -732.000
347.576;  305.800;  670.000;  668.000
347.709;  227.000; -123.000;  -52.000
347.843;  -85.700; -933.000; -825.000
347.976;   38.975;  235.000;  294.000
348.110; -183.225;-1268.000;-1186.000
348.243;  -86.725; -679.000; -772.000
348.377;   10.775;  -26.000;   60.000
348.510;   62.125;  403.000;  540.000
348.644;  -19.325;  -37.000; -159.000
348.777;   12.725;  180.000;  191.000
348.911;  -35.350; -142.000; -112.000
349.044;  190.625;  471.000;  448.000
349.178;  200.900;-1069.000;-1006.000
349.311;  113.150;  141.000;  255.000
349.444;  -16.675; -927.000; -813.000
349.578;  -12.400; -347.000; -200.000
349.711;  -70.675; -959.000; -862.000
349.845;   12.325; -661.000; -591.000
349.978; -137.200;-1224.000;-1137.000
350.111;  -74.450; -546.000; -612.000
350.244;  -73.050; -596.000; -700.000
350.378;   17.100; -392.000; -393.000
350.511;  -73.550; -393.000; -426.000
350.644;  -97.075; -808.000; -806.000
350.778;    5.600;  168.000;  104.000
350.911;    9.075;  134.000;  140.000
351.044;  -72.250; -685.000; -615.000
351.177;    1.625; -321.000; -281.000
351.310;    4.575;    3.000; -131.000
351.444;  -75.100; -888.000; -788.000
351.577;  144.875;  140.000;   90.000
351.710;  124.800;  593.000;  417.000
351.843;  -25.500; -165.000;  -77.000
351.976;   10.450;  149.000;  -79.000
352.109;  -81.550; -621.000; -612.000
352.242;  -18.550; -464.000; -419.000
352.376;  -46.275; -580.000; -636.000
352.509;  213.650; -437.000; -356.000
352.642;   44.750; -654.000; -604.000
352.775;   79.650; -141.000;  -98.000
352.908; -111.975; -933.000; -904.000
353.041; -106.425; -814.000; -824.000
353.174;  -48.950; -551.000; -424.000
353.307;  -85.400; -753.000; -764.000
353.440;   78.125;  541.000;  453.000
353.573; -101.175; -957.000;-1008.000
353.706;  -14.975; -384.000; -558.000
353.839;  -21.075; -264.000; -220.000
353.971;  -94.750; -657.000; -512.000
354.104;  -80.525; -896.000; -835.000
354.237;  -31.375; -627.000; -662.000
354.370;  -73.150; -846.000; -879.000
354.503; -178.075;-1231.000;-1308.000
354.636;  -29.625; -529.000; -348.000
354.769; -116.525; -937.000; -860.000
354.902;    1.525; -230.000; -139.000
355.034;   -7.525; -164.000; -220.000
355.167;  -12.400; -262.000; -162.000
355.300;  -87.400;-1061.000; -880.000
355.433;  901.450;  -71.000;  -14.000
355.565; 1366.325; -402.000; -384.000
355.698;  353.575; -356.000; -296.000
355.831;    2.700; -882.000; -801.000
355.964;   94.425; -285.000; -170.000
356.096;  -71.375; -856.000; -843.000
356.229;   30.675; -523.000; -530.000
356.362;  284.875; -373.000; -266.000
356.494;  545.925; -229.000; -162.000
356.627;  517.450;  269.000;  377.000
356.760;  626.850;  120.000;   53.000
356.892;  844.900; -286.000; -601.000
357.025;  704.950;  403.000;  389.000
357.157;  636.175; -167.000; -179.000
357.290;  573.400; -856.000; -713.000
357.423;  181.475; -667.000; -556.000
357.555;  144.350; -217.000; -228.000
357.688;  150.800; -483.000; -364.000
357.820;  470.550; -870.000; -877.000
357.953; 3810.775; -563.000; -589.000
358.085;  835.275; -632.000; -612.000
358.218; 1342.500;-1131.000; -932.000
358.350;  243.375;  -58.000;  312.000
358.483; -111.750;-1300.000;-1187.000
358.615;   -8.975;-1182.000;-1078.000
358.747;  -40.475;-1187.000;-1058.000
358.880;   52.100; -810.000; -744.000
359.012;    1.075; -376.000; -202.000
359.145;  -25.925; -480.000; -511.000
359.277;   73.375; -962.000; -913.000
359.409; 3173.750;  536.000;  231.000
359.542;  802.150; -738.000; -688.000
359.674;   78.525;   46.000;   13.000
359.806;  -52.200; -565.000; -438.000
359.939;  -40.350; -617.000; -516.000
360.071;  -16.700; -583.000; -579.000
360.203;  -15.450; -411.000; -364.000
360.335;   56.000;  164.000;  -16.000
360.468;  191.075; -249.000; -307.000
360.600; 2496.075; -547.000; -454.000
360.732; 2456.575; -546.000; -423.000
360.864;  338.750;-1216.000;-1044.000
360.996;  339.875; -516.000; -554.000
361.129;   57.175; -389.000; -598.000
361.261;   30.000;  110.000; -113.000
361.393;  -16.200; -252.000; -214.000
361.525;   27.225;   94.000;  244.000
361.657;  -28.575; -821.000; -703.000
361.789;   19.650; -139.000; -155.000
361.921;  271.325; -642.000; -593.000
362.053;  301.350;  524.000;  541.000
362.185;   47.250;  288.000;   72.000
362.318;  -70.475; -709.000; -705.000
362.450;  154.250;  294.000;  444.000
362.582;  184.350; -913.000; -870.000
362.714;  -27.975; -353.000; -332.000
362.846;  -70.550; -606.000; -490.000
362.978; -124.800; -941.000; -811.000
363.109;   59.750; -161.000; -260.000
363.241;  479.625; -739.000; -749.000
363.373;  403.875; -649.000; -564.000
363.505;  584.650; -186.000;  -91.000
363.637;  124.675; -787.000; -601.000
363.769; -118.050;-1067.000;-1080.000
363.901;  -73.200; -596.000; -654.000
364.033; -118.925;-1103.000;-1062.000
364.165;   14.150; -283.000; -283.000
364.296;   51.950; -316.000; -177.000
364.428;   39.900;-1344.000;-1220.000
364.560;  -65.600; -679.000; -661.000
364.692;  -57.450; -738.000; -835.000
364.824;  332.975; -588.000; -456.000
364.955;  409.575; -402.000; -564.000
365.087;  727.525;-1097.000; -852.000
365.219;    5.750; -686.000; -816.000
365.351;  -66.725; -526.000; -572.000
365.482;   55.250;  300.000;  240.000
365.614;  -36.775; -402.000; -314.000
365.746;  -84.750; -729.000; -752.000
365.877;  -95.675; -706.000; -672.000
366.009;  227.725;  -35.000;  -62.000
366.141; -104.300;-1249.000;-1134.000
366.272; -103.725; -803.000; -719.000
366.404; -109.525;-1005.000; -874.000
366.535;   -2.200; -139.000;  -12.000
366.667;  -97.950; -644.000; -649.000
366.799;   45.100;  353.000;  203.000
366.930; -105.275; -862.000; -996.000
367.062;  123.800; -639.000; -613.000
367.193;  117.075; -872.000; -842.000
367.325;  -66.625; -580.000; -684.000
367.456;  102.175; -246.000;   31.000
367.588;  149.950; -371.000; -318.000
367.719;   27.900;  -44.000;  -45.000
367.851;    7.225; -222.000; -241.000
367.982;  -38.150; -875.000; -732.000
368.113;  107.275; -475.000; -358.000
368.245; -105.175; -960.000; -841.000
368.376;  -16.625; -254.000; -302.000
368.508;  -27.600; -188.000; -263.000
368.639; -141.575;-1166.000;-1034.000
368.770;  -14.600; -670.000; -589.000
368.902;  -45.750; -836.000; -926.000
369.033; -101.375; -906.000; -855.000
369.164;  -51.200; -720.000; -653.000
369.296; -101.075; -452.000; -601.000
369.427;    6.400; -209.000; -144.000
369.558;  -36.100; -593.000; -377.000
369.689;  -91.225; -721.000; -569.000
369.821; -131.550; -951.000; -845.000
369.952;   -5.600;   42.000; -108.000
370.083;  -46.300; -229.000; -108.000
370.214;  -81.200; -735.000; -650.000
370.345;    3.400;   65.000;   81.000
370.477;  -81.375; -810.000; -790.000
370.608;  261.000; -328.000; -264.000
370.739;  -36.850;-1233.000;-1292.000
370.870;  -24.475;-1102.000; -923.000
371.001;  122.225; -378.000; -467.000
371.132;  -68.575; -754.000; -735.000
371.263;   -0.025;  -42.000; -148.000
371.394; -135.900; -841.000; -748.000
371.525;   44.000;  345.000;  225.000
371.657;  -88.000; -808.000; -670.000
371.788;   83.600;  103.000;  199.000
371.919;  199.425; -384.000; -304.000
372.050; 3880.450;  -91.000; -156.000
372.181; 1136.300; -188.000; -294.000
372.311;  418.825;   42.000; -127.000
372.442;   47.725; -457.000; -451.000
372.573;   -9.950; -444.000; -340.000
372.704; -116.925;-1008.000; -980.000
372.835;   99.300; -228.000; -289.000
372.966;  -37.150; -646.000; -554.000
373.097;  -63.150; -575.000; -711.000
373.228;  -35.875; -717.000; -542.000
373.359;  163.775; -824.000; -536.000
373.490; 1041.325; -881.000; -727.000
373.620; 1268.100;-1001.000; -803.000
373.751; 1971.525; -332.000; -396.000
373.882;  872.325; -663.000; -733.000
374.013;   74.700; -449.000; -262.000
374.143;  -15.700; -581.000; -659.000
374.274;  -83.450; -987.000; -908.000
374.405;  198.775; -388.000; -276.000
374.536;  499.100; -526.000; -387.000
374.666; 1254.950; -759.000; -807.000
374.797;  255.500; -817.000; -868.000
374.928;  991.750; -710.000; -560.000
375.058;  975.775; -535.000; -500.000
375.189;   88.750;  -59.000;  -93.000
375.320;  -93.650; -928.000;-1034.000
375.450;  -27.550; -625.000; -616.000
375.581;  -48.075; -526.000; -436.000
375.712;  -22.575; -574.000; -250.000
375.842;  339.475; -438.000; -415.000
375.973;  246.775; -554.000; -513.000
376.103;  -25.900; -665.000; -648.000
376.234;  -75.775; -531.000; -552.000
376.364;  -32.900; -944.000; -867.000
376.495;  333.325;  925.000;  529.000
376.625;   28.475; -472.000; -485.000
376.756;   83.600; -709.000; -678.000
376.886;  -61.875;-1178.000;-1026.000
377.017;   30.225;-1048.000;-1061.000
377.147;  288.800; -786.000; -782.000
377.278;   58.875;  174.000;  228.000
377.408; -125.825; -801.000; -815.000
377.538;  -95.300; -707.000; -693.000
377.669;  -85.100; -537.000; -613.000
377.799;  -81.600; -645.000; -635.000
377.929;  -53.350; -610.000; -428.000
378.060; -109.950; -781.000; -847.000
378.190;  -60.175; -726.000; -531.000
378.320;  -40.825; -401.000; -406.000
378.451;    1.900; -131.000;  -22.000
378.581;  -17.175;  -67.000; -110.000
378.711;  170.950; 1035.000;  866.000
378.841;   -6.550; -533.000; -675.000
378.972;  -54.800; -871.000; -751.000
379.102;   16.100; -652.000; -579.000
379.232;  -19.700; -126.000;  -73.000
379.362;  -97.875;-1001.000; -885.000
379.492;   23.075; -373.000; -424.000
379.623;  128.500;    0.000;  111.000
379.753;  -79.475;-1107.000; -974.000
379.883;  212.800;   59.000;  156.000
380.013;   10.825;-1081.000;-1017.000
380.143;  -89.450;-1097.000;-1056.000
380.273;  -92.325; -985.000; -861.000
380.403;   -9.750; -344.000; -257.000
380.533;   -3.550; -651.000; -664.000
380.663;   92.375;  173.000;  128.000
380.793;  -65.575;-1027.000;-1074.000
380.923;   -8.650; -103.000;  -34.000
381.053;  -92.550; -613.000; -623.000
381.183;  -18.575; -106.000; -248.000
381.313;   49.175; -656.000; -470.000
381.443;   46.750; -692.000; -473.000
381.573;  249.450; -402.000; -409.000
381.703;  319.600;-1249.000;-1095.000
381.833; -118.800;-1454.000;-1336.000
381.963;  126.900; -134.000;  -87.000
382.093; 1483.025; -925.000; -909.000
382.223;  435.475; -713.000; -602.000
382.353;    2.150; -801.000; -608.000
382.482;  437.250;-1091.000; -964.000
382.612;  834.625; -872.000; -644.000
382.742;  458.575; -695.000; -622.000
382.872;  312.550; -565.000; -551.000
383.002;   81.725;  347.000; -132.000
383.131;  -11.050; -226.000; -160.000
383.261;  -29.425; -706.000; -768.000
383.391;  275.025; -552.000; -377.000
383.521; 2805.700;  451.000;  263.000
383.650;  609.750; -947.000; -904.000
383.780;  -15.200; -783.000; -656.000
383.910;  115.250;  880.000;  802.000
384.039;   34.350; -794.000; -656.000
384.169;  241.650;-1205.000;-1017.000
384.299;  -16.850; -650.000; -662.000
384.428;  -84.450; -764.000; -680.000
384.558;  -30.775; -308.000; -275.000
384.687;  -30.075; -414.000; -334.000
384.817;   24.900;   75.000;   -2.000
384.947;   39.600; -234.000; -141.000
385.076;  339.175;  982.000;  912.000
385.206;  133.025;  369.000;  480.000
385.335;  -17.375; -549.000; -417.000
385.465;  -52.875; -655.000; -663.000
385.594;  153.825;  -53.000;  -44.000
385.724;  499.925; -868.000; -838.000
385.853;  159.950; -296.000; -270.000
385.982; 1521.450; -743.000; -787.000
386.112; 2323.775;-1052.000; -871.000
386.241;  164.125; -307.000; -312.000
386.371;   42.650; -174.000;  -87.000
386.500;    4.800; -825.000; -789.000
386.629;   31.875; -874.000; -817.000
386.759;   83.825;  -43.000;   68.000
386.888;    7.950; -170.000; -250.000
387.017;  -47.175; -648.000; -620.000
387.147;  -70.700; -771.000; -798.000
387.276;   12.425; -410.000; -397.000
387.405;   23.475; -398.000; -342.000
387.535;  -38.200; -452.000; -361.000
387.664;  -51.250; -692.000; -620.000
387.793;   82.650; -198.000; -113.000
387.922;  579.900;  255.000;  200.000
388.052;   45.350; -576.000; -423.000
388.181;   43.625; -342.000; -472.000
388.310;   51.525; -889.000; -710.000
388.439;  -13.400; -749.000; -742.000
388.568;  218.025;  365.000;  244.000
388.697; 1193.425; -756.000; -653.000
388.826;  237.200; -768.000; -666.000
388.956;   82.700; -285.000; -307.000
389.085;  -24.550; -347.000; -287.000
389.214;  -95.500; -842.000; -872.000
389.343;  -57.550; -645.000; -413.000
389.472;  371.250;  126.000;  149.000
389.601;  496.050;   91.000;    0.000
389.730;   16.800; -568.000; -687.000
389.859;   74.175;  226.000;   46.000
389.988;  226.125; -423.000; -408.000
390.117;  156.800; -168.000; -146.000
390.246;    0.750; -331.000; -320.000
390.375;  141.525; -673.000; -626.000
390.504;  -52.225; -703.000; -621.000
390.633;  -95.200; -672.000; -726.000
390.761;  -60.700; -732.000; -645.000
390.890;   49.025;   -4.000; -130.000
391.019;  -17.125; -421.000; -441.000
391.148; -123.750; -826.000; -855.000
391.277;  -59.650; -576.000; -493.000
391.406;  -63.875; -821.000; -805.000
391.534;   31.850;  574.000; -301.000
391.663;  -56.675; -583.000; -645.000
391.792;  -74.275; -673.000; -701.000
391.921;  145.050;   -3.000;   15.000
392.050;  228.100; -287.000; -228.000
392.178;  -30.375;-1206.000;-1061.000
392.307;  178.900; -758.000; -712.000
392.436;   86.125; -427.000; -641.000
392.564;   36.150;  166.000;   -6.000
392.693;  -86.200; -860.000; -682.000
392.822;  246.975; -529.000; -534.000
392.950;  121.125; -880.000; -714.000
393.079;  375.025; -188.000; -328.000
393.208;   43.625; -488.000; -511.000
393.336;  -17.725; -170.000; -145.000
393.465;  -49.275; -317.000; -199.000
393.593;    9.025;   62.000;   79.000
393.722; -140.425;-1121.000; -916.000
393.850;  -36.675; -188.000;  -61.000
393.979; -166.975; -926.000; -805.000
394.107;  -65.025; -517.000; -537.000
394.236;   -5.525; -570.000; -507.000
394.364;  175.900;  383.000;  206.000
394.493;  230.350; -911.000; -767.000
394.621;  -21.850; -955.000; -916.000
394.750;  624.375; -873.000; -923.000
394.878; 2724.875; -247.000; -149.000
395.007; 3564.675; -721.000; -807.000
395.135;  243.250; -790.000; -721.000
395.263;  -94.150;-1038.000;-1040.000
395.392;   13.375;  -25.000; -107.000
395.520; -144.325; -818.000; -679.000
395.648;  -80.900; -865.000; -915.000
395.777;  -15.950; -366.000; -405.000
395.905;  -56.875; -449.000; -564.000
396.033;    9.425;  217.000;  172.000
396.162;  424.300; -399.000; -453.000
396.290;  361.125;  -17.000;   -2.000
396.418;  113.950; -555.000; -514.000
396.546;  -80.525; -571.000; -466.000
396.674; -109.800; -850.000; -878.000
396.803;    6.675;  -72.000;  -23.000
396.931;  119.400; -179.000; -199.000
397.059;   66.875;-1026.000; -989.000
397.187; -106.125;-1026.000; -975.000
397.315; -138.450; -884.000; -649.000
397.443;  -90.025; -592.000; -443.000
397.572;  -92.600; -578.000; -424.000
397.700;    3.825; -607.000; -614.000
397.828;   15.100;  120.000;  -90.000
397.956;  -46.325; -508.000; -478.000
398.084;  -76.800; -767.000; -626.000
398.212;   49.150;  137.000;  124.000
398.340;   15.200;  -56.000;  159.000
398.468;   55.550; -390.000; -169.000
398.596; -131.950; -993.000; -953.000
398.724; -104.350; -762.000; -767.000
398.852; -162.600;-1024.000; -976.000
398.980;  -66.100; -560.000; -560.000
399.108;  -53.125; -982.000; -735.000
399.236;   50.625;   13.000;    8.000
399.363;    9.300;  222.000;  196.000
399.491;  -53.625; -404.000; -398.000
399.619; -118.350; -829.000; -800.000
399.747; -108.025; -859.000; -771.000
399.875;   88.750;  220.000;  234.000
400.003;  -56.300; -359.000; -284.000
400.130; -106.375; -421.000; -341.000
400.258;  -30.500;  -83.000;   38.000
400.386;  -58.850; -352.000; -168.000
400.514;  -32.225; -526.000; -587.000
400.641;  -80.300; -928.000; -802.000
400.769; -140.975; -979.000; -888.000
400.897; -123.000; -838.000; -793.000
401.025;  -24.900; -166.000; -152.000
401.152;    8.050;  220.000;   38.000
401.280;  -78.800; -430.000; -429.000
401.408; -114.975; -712.000; -576.000
401.535;  -93.150; -735.000; -758.000
401.663; -199.575;-1134.000;-1054.000
401.790;  -92.100; -514.000; -525.000
401.918;   63.550;  436.000;  405.000
402.046;  -21.125;  134.000;  122.000
402.173;  -21.875;  -18.000;    7.000
402.301;  -64.550; -519.000; -397.000
402.428;   28.300;  528.000;  383.000
402.556; -143.125;-1188.000; -913.000
402.683;  -30.600;  -20.000;   -1.000
402.811;  -14.800;  -37.000; -206.000
402.938;   -9.875;   20.000;   27.000
403.066;  251.850; -574.000; -558.000
403.193;  395.275;  299.000;  239.000
403.321;  291.300; -396.000; -574.000
403.448;  373.575;   83.000;   27.000
403.575;  153.825;  -90.000;  -46.000
403.703;  -96.050; -732.000; -557.000
403.830;  -64.150; -531.000; -496.000
403.957; -142.350;-1117.000;-1023.000
404.085;   22.000;  -61.000; -172.000
404.212;  102.850;  -50.000;   63.000
404.339;  256.050; -566.000; -306.000
404.467; 5275.100; -612.000; -524.000
404.594; 3555.075; -287.000; -227.000
404.721;  884.625; -869.000; -764.000
404.848;   75.050; -113.000; -202.000
404.976; -114.700; -856.000; -783.000
405.103;  -11.400;  -14.000;  -82.000
405.230;   -4.950;  190.000;  226.000
405.357;   23.500;  117.000;   44.000
405.484;  241.375;  -49.000;    5.000
405.612;   41.100; -548.000; -563.000
405.739;  -57.275; -488.000; -243.000
405.866;   81.150;  669.000;  385.000
405.993;  -32.900; -398.000; -102.000
406.120; -138.975; -801.000; -887.000
406.247;  -57.350; -323.000; -342.000
406.374;  507.250;  540.000;  629.000
406.501;  121.025; -632.000; -702.000
406.628;  -73.325; -621.000; -589.000
406.755;  -96.550; -803.000; -620.000
406.882;  -39.700; -228.000; -277.000
407.009;  -97.925; -719.000; -628.000
407.136;   67.950; -480.000; -401.000
407.263;  168.575; -939.000; -829.000
407.390;  -84.025; -692.000; -614.000
407.517; -165.350;-1139.000;-1187.000
407.644;  -56.850; -332.000; -256.000
407.771;  -48.450; -249.000; -287.000
407.898;   10.225;  168.000;  328.000
408.025;  -79.275; -421.000; -313.000
408.151;  -12.500;   82.000;  153.000
408.278;  -70.450; -267.000; -216.000
408.405; -114.600; -931.000; -899.000
408.532;  -67.200; -549.000; -542.000
408.659; -113.525; -677.000; -648.000
408.785; -205.975;-1298.000;-1170.000
408.912;  -67.750; -412.000; -296.000
409.039; -112.125; -610.000; -686.000
409.166; -100.600; -591.000; -555.000
409.292; -115.225; -571.000; -534.000
409.419; -118.575; -665.000; -649.000
409.546;  -84.125; -431.000; -192.000
409.672; -113.075; -713.000; -545.000
409.799;  -22.225;  -36.000;   34.000
409.926;  -29.750; -180.000; -179.000
410.052; -175.800;-1127.000;-1091.000
410.179;  -52.250; -368.000; -392.000
410.305;  -73.125; -375.000; -493.000
410.432;  -48.775; -220.000; -333.000
410.558; -100.850; -305.000; -380.000
410.685; -123.725; -688.000; -431.000
410.812;  -96.300; -409.000; -588.000
410.938; -147.900; -964.000; -808.000
411.065;  -91.150; -671.000; -645.000
411.191;   -4.925; -189.000; -174.000
411.317; -121.875; -823.000; -742.000
411.444;  -59.675; -317.000; -246.000
411.570;  -69.650; -339.000; -294.000
411.697; -113.200; -758.000; -752.000
411.823; -170.475; -989.000; -999.000
411.949;  -30.675;  -56.000;   17.000
412.076; -114.850; -539.000; -519.000
412.202; -102.500; -758.000; -757.000
412.329; -127.650; -798.000; -752.000
412.455;  -98.150; -821.000; -657.000
412.581;  -25.775;  -15.000;  172.000
412.707;  -48.725; -540.000; -457.000
412.834;   21.650;  156.000;  219.000
412.960;  -92.175; -785.000; -784.000
413.086; -102.600; -743.000; -701.000
413.212;  173.175;  604.000;  578.000
413.339;  -65.725; -685.000; -701.000
413.465;   22.450; -364.000; -310.000
413.591;  -87.650; -757.000; -474.000
413.717;  -37.000; -358.000; -366.000
413.843; -131.650; -839.000; -861.000
413.969;  -57.225;  -47.000; -292.000
414.096; -106.400; -679.000; -679.000
414.222;    3.875;  -33.000;   85.000
414.348;   -7.550; -652.000; -385.000
414.474;   97.125;   38.000;  -52.000
414.600;  -15.775; -126.000; -144.000
414.726;  -22.575;  -96.000;  -55.000
414.852;  -61.075; -365.000; -342.000
414.978;   40.325;  104.000;  -18.000
415.104;   48.550;   38.000;   80.000
415.230;   10.150; -329.000; -330.000
415.356;   48.000; -409.000; -514.000
415.482;  208.975;   13.000;  -35.000
415.608;  254.475; -247.000; -323.000
415.734;  925.450;   67.000;   38.000
415.860;19080.900; -875.000; -767.000
415.986;13175.425; -685.000; -607.000
416.111; 1103.875; -798.000; -652.000
416.237;  216.800; -424.000; -571.000
416.363; 1040.250; -765.000; -733.000
416.489; 3727.675; -324.000; -251.000
416.615;  368.625; -707.000; -742.000
416.741;  -45.875; -677.000; -784.000
416.866;  -93.975; -673.000; -736.000
416.992; -123.925; -801.000; -818.000
417.118;  -21.150;  -41.000;  -80.000
417.244;  -49.125; -798.000; -531.000
417.369;  -76.225; -801.000; -612.000
417.495;    4.275; -325.000; -254.000
417.621;  -64.325;-1015.000; -803.000
417.746;    1.100; -579.000; -572.000
417.872;   50.100; -254.000; -144.000
417.998;   38.775; -515.000; -530.000
418.123;  994.350;-1073.000; -845.000
418.249; 4893.475; -512.000; -601.000
418.374;  628.650; -916.000; -824.000
418.500;   83.300; -383.000; -482.000
418.626;  106.050;   70.000;  -59.000
418.751;  123.900; -549.000; -448.000
418.877;  183.950; -637.000; -643.000
419.002; 1701.500; -688.000; -560.000
419.128;11426.950; -930.000; -721.000
419.253; 2652.600; -967.000; -837.000
419.379;  359.950; -391.000; -338.000
419.504;  369.475;  325.000;  415.000
419.629;  453.625; -393.000; -212.000
419.755; 3278.300; -317.000; -254.000
419.880;18708.350;  -98.000;   67.000
420.006;10503.050; -280.000; -221.000
420.131;26995.275; -662.000; -775.000
420.256; 3695.025; -315.000; -316.000
420.382;  494.275; -665.000; -687.000
420.507;   50.375; -649.000; -778.000
420.632;  154.700; -337.000; -339.000
420.758;  288.200; -251.000; -425.000
420.883;  -81.375; -876.000; -672.000
421.008;  -98.475; -775.000; -619.000
421.133;  -70.400; -509.000; -467.000
421.259;  -51.900; -325.000; -259.000
421.384; -108.500; -834.000; -693.000
421.509;  -24.450;-1052.000; -862.000
421.634; 1399.575; -936.000; -820.000
421.759;  563.400; -359.000; -327.000
421.885;  -58.075; -717.000; -656.000
422.010;  -70.400; -673.000; -542.000
422.135; -139.825; -695.000; -727.000
422.260;   38.475;  340.000;  280.000
422.385;  -45.250;   12.000;  -98.000
422.510;    9.950;  151.000;  -26.000
422.635;   15.700;  -87.000;  -43.000
422.760;   84.275; -766.000; -791.000
422.885;   52.400;  -57.000;  -80.000
423.010;  -35.525; -112.000; -169.000
423.135;  -80.250; -481.000; -561.000
423.260;  -10.800; -150.000; -245.000
423.385;   79.150;  476.000;  222.000
423.510;   36.025;   71.000;  -22.000
423.635;   93.925;  133.000;   45.000
423.760;   48.025;  383.000;  328.000
423.885;   57.375;  336.000;  391.000
424.010;    3.775;  -68.000;  -13.000
424.135;  -20.350;    5.000;  -33.000
424.259;  -94.500; -654.000; -457.000
424.384;  -60.600; -279.000; -272.000
424.509;  -33.800; -260.000; -186.000
424.634; -105.950; -761.000; -623.000
424.759;  -35.825; -688.000; -544.000
424.883;   -8.350; -506.000; -527.000
425.008;  161.850; -502.000; -410.000
425.133; 1844.925; -679.000; -653.000
425.258;  818.775; -517.000; -381.000
425.382; 1109.500; -867.000; -774.000
425.507; 2779.825; -487.000; -543.000
425.632;  415.225; -802.000; -663.000
425.756;  409.875; -256.000; -146.000
425.881; 5870.550; -831.000; -857.000
426.006;15044.150; -604.000; -355.000
426.130; 2317.500; -696.000; -508.000
426.255;  279.675; -611.000; -491.000
426.379;  141.300; -189.000; -577.000
426.504;  344.375;  660.000;  544.000
426.629; 3895.725; -519.000; -466.000
426.753; 2544.650;   64.000;  -46.000
426.878;  285.700; -252.000; -288.000
427.002;  123.525; -651.000; -668.000
427.127; 1525.000;  -35.000; -158.000
427.251;10376.400;  372.000;  401.000
427.375; 2849.625; -191.000; -173.000
427.500; 2418.775; -616.000; -610.000
427.624;  763.125; -234.000; -400.000
427.749;   92.250; -216.000; -225.000
427.873;  -29.525; -499.000; -412.000
427.997;  -43.575; -222.000; -230.000
428.122;  104.525;  795.000;  703.000
428.246;   81.900;  433.000;  434.000
428.371; -125.025; -869.000; -773.000
428.495; -104.575; -624.000; -646.000
428.619;  -19.450; -186.000; -117.000
428.743;   39.775;   65.000;  132.000
428.868;   25.950; -732.000; -643.000
428.992; 1515.625; -219.000; -326.000
429.116;  596.825; -329.000; -357.000
429.240;  311.725;  419.000;  426.000
429.365;  -14.475; -454.000; -574.000
429.489;  -59.850; -638.000; -647.000
429.613;   29.600; -236.000; -177.000
429.737;   51.800; -563.000; -432.000
429.861;  263.175; -247.000; -133.000
429.985; 5252.400; -425.000; -305.000
430.109; 5483.725; -770.000; -908.000
430.234;  627.175;   76.000;  -50.000
430.358;   52.950; -250.000; -160.000
430.482;  -68.475; -672.000; -564.000
430.606;  -67.475; -655.000; -375.000
430.730;   32.000; -437.000; -388.000
430.854;  134.950; -909.000; -835.000
430.978;  -75.375; -795.000; -764.000
431.102;  -85.325; -499.000; -422.000
431.226; -106.500; -874.000; -815.000
431.350;   40.725;  345.000;  422.000
431.474;  -60.700; -661.000; -373.000
431.597; -150.750;-1060.000; -848.000
431.721;  -87.875; -276.000; -267.000
431.845; -137.275; -704.000; -472.000
431.969;  -82.825; -304.000; -349.000
432.093; -105.225; -395.000; -317.000
432.217;  -17.775;   32.000;   82.000
432.341;  -97.450; -523.000; -518.000
432.464;   23.175;   96.000;   40.000
432.588;  235.850; -401.000; -329.000
432.712;   96.400;  -52.000;  -52.000
432.836;   36.850;  213.000;  263.000
432.959;  -19.400; -372.000; -311.000
433.083;   71.075;   11.000;    2.000
433.207;  368.250;  285.000;  930.000
433.330; 4655.425; -391.000; -200.000
433.454; 5487.200; -654.000; -638.000
433.578; 3247.300;  583.000;  278.000
433.701;  576.800; -623.000; -675.000
433.825;  150.200; -292.000; -299.000
433.949;  219.450;   28.000;  -72.000
434.072;   76.225; -410.000; -323.000
434.196;  -16.075; -309.000; -117.000
434.319; 3841.375;25482.000;25124.000
434.443;  734.450; -656.000; -603.000
434.566; 2436.900;  281.000;   62.000
434.690;  362.025; -637.000; -383.000
434.813;   46.625; -251.000; -173.000
434.937;  -83.950; -569.000; -696.000
435.060;  -35.850; -423.000; -332.000
435.184;  422.800; -492.000; -217.000
435.307;  214.300;  159.000;  102.000
435.431;   -8.550;  -40.000;   24.000
435.554;  -90.550; -399.000; -240.000
435.677;  -78.250; -350.000; -258.000
435.801;  -28.000;  -25.000;   49.000
435.924;  -13.650;    1.000;  -67.000
436.048;  -96.000;-1019.000; -732.000
436.171;  -73.075; -240.000;  -66.000
436.294;  -31.525; -248.000; -229.000
436.417;   71.375; -963.000; -849.000
436.541;  -90.375; -814.000; -840.000
436.664;  -50.200; -242.000; -316.000
436.787;  -30.600;   13.000;  113.000
436.910; -113.775; -792.000; -422.000
437.034;   16.300;  142.000;  143.000
437.157;   77.075;  -11.000;    0.000
437.280;  -50.950; -392.000; -292.000
437.403;  -80.000; -982.000; -869.000
437.526;  804.900; -903.000; -865.000
437.649; 2777.400; -505.000; -332.000
437.772;  403.250; -692.000; -540.000
437.896;  139.625;  700.000;  544.000
438.019;  -85.825; -758.000; -503.000
438.142;  -84.950; -596.000; -506.000
438.265;    1.475; -639.000; -670.000
438.388;  635.050; -520.000; -410.000
438.511;  107.925; -597.000; -394.000
438.634;  -37.200; -247.000; -125.000
438.757; -126.025; -693.000; -619.000
438.880;  -32.625;  -34.000;  -57.000
439.003;  -81.500; -417.000; -437.000
439.126;  -72.825; -287.000; -167.000
439.248;  -64.675;  -98.000; -139.000
439.371;  -32.125;    9.000;  -53.000
439.494;   22.550;  510.000;  439.000
439.617;  -53.800;   65.000;  -88.000
439.740; -178.075; -968.000; -816.000
439.863; -137.075; -755.000; -595.000
439.986; -117.300; -476.000; -431.000
440.108;  -44.750; -161.000; -112.000
440.231; -161.800; -950.000; -836.000
440.354;  -38.000;  -64.000; -150.000
440.477;   53.275; -566.000; -542.000
440.599;   -0.775; -200.000; -225.000
440.722; -126.550; -709.000; -586.000
440.845;   70.500;  751.000;  928.000
440.968; -115.375; -415.000; -311.000
441.090;  -60.325; -199.000;  -33.000
441.213; -175.550;-1021.000; -825.000
441.336;  -46.925; -159.000;   -5.000
441.458;  -83.300; -549.000; -396.000
441.581;  -91.700; -628.000; -629.000
441.703;  -69.775; -152.000;   13.000
441.826; -114.050; -557.000; -400.000
441.948;  -47.875;   56.000;   51.000
442.071;   38.625;  555.000;  424.000
442.193; -121.850; -531.000; -485.000
442.316;    6.825;  152.000;   97.000
442.438;   41.025; -233.000;  -10.000
442.561;   86.075;  272.000;  262.000
442.683;  683.725; -809.000; -522.000
442.806; 1375.075;   -8.000;   74.000
442.928;   40.250; -859.000; -604.000
443.051;  -48.900; -577.000; -373.000
443.173;  -94.150; -341.000; -339.000
443.295;  -85.225; -263.000; -371.000
443.418;  -71.275; -321.000;  -29.000
443.540;   -5.375; -106.000;   -4.000
443.662; -111.325; -563.000; -465.000
443.785;   -7.025;  335.000;  199.000
443.907; -117.625; -362.000; -208.000
444.029; -143.050; -767.000; -494.000
444.152; -160.950; -644.000; -554.000
444.274;  -21.050;  -18.000;  -24.000
444.396; -108.125; -461.000; -221.000
444.518; -143.150; -691.000; -454.000
444.640; -113.150; -268.000; -111.000
444.763;  -16.550;  388.000;  249.000
444.885; -113.325; -432.000; -392.000
445.007;  -32.050;   35.000;   86.000
445.129; -120.825; -610.000; -515.000
445.251; -102.675; -372.000; -439.000
445.373; -139.025; -537.000; -386.000
445.495;   16.700;  242.000;  350.000
445.617;   46.950;  853.000;  753.000
445.739;  -61.675; -215.000;  -97.000
445.861;  -44.850; -245.000; -112.000
445.984;  -33.475; -267.000; -101.000
446.105;  233.050; -418.000; -251.000
446.227;  681.525; -176.000;  -19.000
446.349;   17.375; -358.000; -249.000
446.471;  -98.150; -615.000; -448.000
446.593;  -68.125; -316.000;   19.000
446.715;   -4.475;  -67.000;   41.000
446.837;   69.600;  697.000;  832.000
446.959; -101.975; -457.000; -478.000
447.081; -138.250; -628.000; -518.000
447.203;   68.800;  862.000;  834.000
447.325;  -80.325; -270.000;   42.000
447.446;  -11.275;  286.000;  530.000
447.568; -165.350; -921.000; -803.000
447.690;  -86.250; -236.000; -245.000
447.812; -155.400; -798.000; -519.000
447.933;  -28.250;  155.000;  127.000
448.055;  -73.450; -306.000; -261.000
448.177;  167.875;   31.000;   79.000
448.299;   94.050; -935.000; -727.000
448.420;   22.700;  -25.000;  159.000
448.542;  -43.875;   -3.000;   33.000
448.664;  -17.125;  109.000;  322.000
448.785;  -31.550;  265.000;   83.000
448.907;  -66.925; -614.000; -353.000
449.028;  -27.225; -771.000; -471.000
449.150;   60.100;  492.000;  589.000
449.272; -186.175;-1044.000; -913.000
449.393;   26.650;  612.000;  694.000
449.515; -150.225; -634.000; -581.000
449.636;  -55.550; -264.000; -155.000
449.758;   87.800;  763.000;  622.000
449.879;  -98.800; -498.000; -396.000
450.001;  -82.925; -149.000;  -49.000
450.122;  -45.325;  -95.000;  162.000
450.244;  -22.475;   37.000;  364.000
450.365;  -96.725; -495.000; -301.000
450.486;  -36.900;   80.000;  268.000
450.608;   16.550;  393.000;  326.000
450.729;   58.325;  578.000;  645.000
450.850;  -23.775; -574.000; -466.000
450.972;  657.025; -552.000; -389.000
451.093; 4409.350;  190.000;  588.000
451.214; 1790.375; -516.000; -337.000
451.336;  335.425;  773.000;  579.000
451.457;   48.375;  264.000;  393.000
451.578;  -38.150; -118.000;  -74.000
451.699; -130.575; -546.000; -540.000
451.821;  -68.700; -284.000;  -50.000
451.942;   -8.775;  278.000;  285.000
452.063;   28.875;  228.000;  419.000
452.184;  514.850;  -54.000;  -49.000
452.305;  988.275;  103.000;  170.000
452.427;   95.125; -549.000; -301.000
452.548;  -11.975;   23.000;   79.000
452.669;  -46.350; -257.000;  -89.000
452.790;  -42.225;    3.000;  -18.000
452.911;   -3.350;  195.000;  259.000
453.032;  -57.300; -289.000;  -60.000
453.153;  -30.300;  -29.000;   81.000
453.274;   60.475;  737.000;  868.000
453.395;  -43.725;  -51.000;  175.000
453.516;  133.075; 1317.000; 1388.000
453.637;  -74.300; -205.000; -150.000
453.758;  -73.825;   15.000;   69.000
453.879; -109.275; -462.000; -250.000
454.000;   96.300; 1086.000;  948.000
454.121; -115.400; -554.000; -326.000
454.242; -113.125; -599.000; -383.000
454.362;  -59.725;  -99.000;  114.000
454.483;  -35.875; -309.000; -229.000
454.604;   53.300;  512.000;  580.000
454.725; -139.250; -627.000; -555.000
454.846; -124.575; -474.000; -406.000
454.967;  -20.900;  230.000;  539.000
455.087;  -53.625;  179.000;  153.000
455.208;   19.325;  554.000;  856.000
455.329;  -73.500;  -22.000;   82.000
455.450;   30.000;  473.000;  633.000
455.570;  -92.700; -234.000; -211.000
455.691;  -30.700;  201.000;  407.000
455.812; -107.100; -270.000;  -92.000
455.932;  -74.325;  107.000;  -97.000
456.053;  -83.050;   36.000;   24.000
456.173; -119.125; -433.000; -355.000
456.294; -156.300; -476.000; -303.000
456.415;  -67.700;  -73.000;   70.000
456.535;  -30.525;  297.000;  273.000
456.656;  -38.500;  132.000;  240.000
456.776;  -71.400;    3.000;  298.000
456.897;  -16.700;  308.000;  513.000
457.017;  -83.050; -153.000;   -3.000
457.138; -124.125; -402.000; -249.000
457.258;  -34.800;  263.000;  224.000
457.379;  -11.125;  509.000;  521.000
457.499;  -34.975;  443.000;  432.000
457.620; -116.700; -407.000; -231.000
457.740; -111.950; -132.000;  -11.000
457.860;  -60.850;   87.000;   44.000
457.981;  -43.575;  132.000;  124.000
458.101;  -79.825;  -89.000;   40.000
458.221;  -21.300;  336.000;  402.000
458.342;  -60.500;   -4.000;  -37.000
458.462;   22.825;  617.000;  352.000
458.582;  -41.425; -302.000; -294.000
458.703;  -17.625;  303.000;  154.000
458.823;  -47.425;   22.000;  163.000
458.943;   13.250;  341.000;  467.000
459.063;  -35.850; 1124.000;  192.000
459.183;  -15.075;  328.000;  313.000
459.304;   11.800;  315.000;  517.000
459.424;  -74.775; -246.000;  -89.000
459.544;  316.225;  388.000;  764.000
459.664;  748.825;  499.000;  506.000
459.784;  277.075; 1004.000; 1175.000
459.904;   58.525;  867.000;  744.000
460.024;   61.125;  867.000;  684.000
460.144;   15.125;  449.000;  554.000
460.264;   -9.550;  515.000;  327.000
460.385;  -89.800; -145.000; -119.000
460.505;   38.975;  905.000;  858.000
460.625;  -99.450;  -17.000;  -68.000
460.745;  -11.325;  396.000;  541.000
460.864;  -67.775;  153.000;  469.000
460.984;   22.525;  499.000;  573.000
461.104;  150.725; 1656.000; 1775.000
461.224;   14.825;  657.000;  650.000
461.344;  -23.900;  431.000;  360.000
461.464;  -20.950;  258.000;  513.000
461.584;  -11.100;  283.000;  466.000
461.704;  -36.875;   58.000;  108.000
461.824;  -64.875;  238.000;  259.000
461.943;  -39.500;  191.000;  130.000
462.063;  -70.150;    2.000;  324.000
462.183;   39.000;  639.000;  717.000
462.303;   96.200; 1678.000; 1230.000
462.422;   29.350;  781.000;  840.000
462.542;  -59.475;  271.000;  391.000
462.662;   23.950;  353.000;  380.000
462.782;  220.475;  833.000;  572.000
462.901;  414.775;  545.000;  717.000
463.021;  268.300; 1702.000; 1638.000
463.141;  -20.600;  337.000;  770.000
463.260;  -19.875;  614.000;  474.000
463.380;   13.675;  902.000;  884.000
463.499;  -56.475;  342.000;  332.000
463.619;  -26.225;  581.000;  559.000
463.738;  110.475; 1644.000;  903.000
463.858;    8.250;  657.000;  811.000
463.978;  -27.150;  542.000;  396.000
464.097;   49.525;  921.000; 1114.000
464.217;  103.200; 1196.000; 1143.000
464.336;  114.125; 1068.000; 1130.000
464.455;  -49.800;  328.000;  659.000
464.575;   47.250;  597.000;  602.000
464.694;  173.750; 1204.000; 1179.000
464.814;  115.275; 1190.000; 1138.000
464.933;   65.725; 1095.000; 1027.000
465.052;   88.700; 1412.000; 1054.000
465.172;   99.600;  922.000;  799.000
465.291;  142.950; 1376.000; 1320.000
465.410;   13.200;  462.000;  735.000
465.530;   80.400; 1355.000; 1310.000
465.649;   54.425; 1209.000; 1273.000
465.768;  148.125; 1673.000; 1508.000
465.888;   59.275;  941.000; 1174.000
466.007;   99.175; 1335.000; 1440.000
466.126;   -3.500;  721.000;  641.000
466.245;   46.400; 1176.000; 1187.000
466.364;   30.175;  950.000; 1060.000
466.484;   77.775; 1024.000; 1213.000
466.603;   24.100; 1101.000; 1222.000
466.722;  133.200; 1490.000; 1769.000
466.841;   66.975; 1151.000; 1401.000
466.960;   40.075; 1069.000;  972.000
467.079;  119.350; 1971.000; 1786.000
467.198;   53.300; 1238.000; 1181.000
467.317;   81.400; 1768.000; 1162.000
467.436;   66.775; 1709.000; 1261.000
467.555;  127.750; 1796.000; 1746.000
467.674;   35.950; 1227.000; 1329.000
467.793;   43.800; 1376.000; 1374.000
467.912;   73.725; 1658.000; 1539.000
468.031;  146.375; 2038.000; 1930.000
468.150;  141.450; 1842.000; 1837.000
468.269;  199.750; 2313.000; 2090.000
468.388;  181.825; 2168.000; 2339.000
468.507;  260.050; 2884.000; 2903.000
468.626;  267.350; 2555.000; 2541.000
468.744;  138.500; 2018.000; 2174.000
468.863;  202.075; 2312.000; 2523.000
468.982;  103.575; 1503.000; 1555.000
469.101;  209.225; 2788.000; 2692.000
469.220;  154.825; 2333.000; 2176.000
469.338;  250.475; 2935.000; 3051.000
469.457;  202.575; 2719.000; 2545.000
469.576;  358.725; 3953.000; 3784.000
469.695;  244.525; 2877.000; 3066.000
469.813;  448.275; 4148.000; 4192.000
469.932;  406.850; 4255.000; 4485.000
470.051;  420.275; 4075.000; 4161.000
470.169;  826.025; 4470.000; 4338.000
470.288; 1369.050; 4700.000; 4809.000
470.406;  813.850; 5059.000; 5194.000
470.525;  647.625; 6101.000; 5787.000
470.644;  663.550; 6847.000; 6794.000
470.762;  824.950; 8397.000; 7873.000
470.881;  908.800; 8651.000; 8464.000
470.999; 1023.000; 9685.000; 9151.000
471.118; 1117.975;11174.000;10711.000

