
Integration time [ms]: 100.000
Averaging Nr. [scans]: 40
Smoothing Nr. [pixels]: 0
Data measured with spectrometer [name]: 2101012U2
Wave   ;Sample   ;Dark     ;Reference
[nm]   ;[counts] ;[counts] ;[counts] 

197.733;   74.200;  516.000;  404.000
197.879;  -83.525; -610.000; -634.000
198.025;  -39.825; -475.000; -420.000
198.171;  -79.150; -602.000; -612.000
198.317;  -42.425; -401.000; -316.000
198.463;  -52.275; -655.000; -404.000
198.609;   36.700;  181.000; -137.000
198.755;  -73.100; -644.000; -410.000
198.901;  -79.600; -505.000; -424.000
199.047;  -61.425; -615.000; -488.000
199.193;  -33.825; -230.000; -468.000
199.339;  -57.350; -222.000; -369.000
199.485;   50.200;  330.000;  271.000
199.631;   11.200;  227.000;  310.000
199.777;  -45.325; -466.000; -398.000
199.923;  -67.950; -610.000; -424.000
200.069;    8.050; -141.000;  -58.000
200.215;   67.200;  128.000;  453.000
200.361;   56.625;  243.000;  477.000
200.507;  -80.875; -600.000; -373.000
200.653;   -1.575; -371.000; -194.000
200.798;  -38.150; -215.000; -125.000
200.944;    2.725; -146.000;  -41.000
201.090;   31.700;   61.000;  222.000
201.236;   10.350; -116.000; -158.000
201.382;  115.300;  874.000;  903.000
201.528;   18.275;  -58.000;  -48.000
201.674;  -41.600; -386.000; -293.000
201.819;  -56.775; -540.000; -439.000
201.965;  -80.425; -699.000; -447.000
202.111;  -14.550; -273.000; -226.000
202.257;  -42.575; -250.000; -238.000
202.402;   18.050;   13.000;  -36.000
202.548;  -26.550; -169.000; -116.000
202.694;   92.450;  410.000; -183.000
202.840;  -62.775; -603.000; -531.000
202.985;  -60.300; -681.000; -639.000
203.131;  -96.600; -832.000; -666.000
203.277;  -13.225; -199.000; -262.000
203.423;  -50.825; -434.000; -520.000
203.568;  -28.600; -462.000; -237.000
203.714;  -61.625; -535.000; -542.000
203.860;  -76.650; -682.000; -641.000
204.005;    0.775;  112.000;  167.000
204.151;   85.025;  561.000;  556.000
204.296;  -43.825; -354.000; -221.000
204.442;  -72.775; -600.000; -547.000
204.588;  -68.675; -592.000; -579.000
204.733;   39.100;  178.000;  168.000
204.879; -127.900;-1018.000; -822.000
205.025;   27.550;  -99.000;  126.000
205.170;    3.150;  -17.000;   94.000
205.316;   80.775;  438.000;  661.000
205.461;  -91.000; -698.000; -554.000
205.607;   86.400;  609.000;  665.000
205.752;  -81.300; -626.000; -551.000
205.898;  -48.100; -501.000; -391.000
206.043;  -73.425; -578.000; -506.000
206.189;  -42.075; -243.000; -285.000
206.334;   72.150;  554.000;  606.000
206.480;   89.175;  409.000;  239.000
206.625;  -92.525; -529.000; -552.000
206.771;  -42.725; -451.000; -373.000
206.916;  -39.100; -210.000; -537.000
207.062;  -50.550; -545.000; -591.000
207.207;  -56.925; -546.000; -443.000
207.353;   53.625;  185.000;  460.000
207.498;    5.175;  196.000;   85.000
207.643;  -39.725; -501.000; -370.000
207.789; -123.150;-1069.000; -910.000
207.934;  -76.500; -665.000; -713.000
208.080;  -21.575; -154.000;   66.000
208.225;    0.350;  -22.000;  -57.000
208.370;  -77.100; -727.000; -619.000
208.516;  -64.950; -741.000; -487.000
208.661;  -28.300; -127.000;  -69.000
208.806;  -18.275; -165.000; -171.000
208.952; -118.275;-1044.000; -731.000
209.097;   79.875;  378.000;  349.000
209.242;  -38.225; -307.000; -382.000
209.387;   69.950;  392.000;  350.000
209.533;  -54.550; -321.000; -350.000
209.678;   70.025;  472.000;  543.000
209.823;  -60.850; -408.000; -310.000
209.969;  -98.650; -860.000; -757.000
210.114; -109.575; -907.000; -719.000
210.259; -107.100; -939.000; -889.000
210.404;  -11.450; -171.000;  103.000
210.549;   20.300;  108.000;    3.000
210.695;   -2.125;   -3.000;  -95.000
210.840;   23.625;   94.000;   67.000
210.985;  -57.825; -484.000; -303.000
211.130;   81.400;  268.000;  406.000
211.275;    7.000;  207.000;  199.000
211.420;  -40.825; -300.000; -289.000
211.566;  -87.800; -536.000; -489.000
211.711;   29.100;  218.000;  157.000
211.856;  -62.800; -545.000; -519.000
212.001;   19.250;  151.000;   44.000
212.146;   25.825;  153.000;   49.000
212.291;  -11.300; -210.000; -186.000
212.436;  -32.350; -280.000;   -6.000
212.581;  -78.350; -685.000; -653.000
212.726;  -73.675; -487.000; -538.000
212.871;  -41.875; -552.000; -217.000
213.016; -136.500;-1172.000;-1029.000
213.161;   69.175;  406.000;  291.000
213.306;  -84.450; -435.000; -577.000
213.451;  -94.825; -778.000; -689.000
213.596;  -59.050; -455.000; -347.000
213.741;  -46.450; -448.000; -538.000
213.886;  -78.625; -498.000; -517.000
214.031;  -14.550; -294.000; -124.000
214.176;  -42.675; -408.000; -341.000
214.321;  -16.250; -296.000; -157.000
214.466;  -33.475; -163.000;  -43.000
214.611;   10.725;  -61.000;  -10.000
214.756; -113.550; -948.000; -858.000
214.901;  -18.325; -388.000; -226.000
215.046; -114.175; -797.000; -825.000
215.191;   22.975;  128.000;   35.000
215.336;  -14.275; -157.000;  -19.000
215.480;  -68.225; -684.000; -505.000
215.625;    0.350; -175.000;  -19.000
215.770;  -76.250; -757.000; -662.000
215.915;  -17.725;   -5.000;  -97.000
216.060;   -1.250; -113.000;  -21.000
216.205;  -94.300; -731.000; -779.000
216.349;  -65.375; -470.000; -533.000
216.494; -141.875; -939.000; -867.000
216.639; -114.250; -823.000; -888.000
216.784;  -88.475; -577.000; -525.000
216.929;   66.475;  392.000;  281.000
217.073;  -11.650; -244.000;  -31.000
217.218;    8.275;   78.000;  -47.000
217.363;  -89.725; -656.000; -618.000
217.507;  -76.050; -623.000; -588.000
217.652; -130.675; -845.000; -874.000
217.797;  -74.125; -708.000; -659.000
217.942;  -98.800; -856.000; -720.000
218.086;   84.475;  608.000;  539.000
218.231;  -17.350; -174.000;  -26.000
218.376;  -28.650; -337.000; -229.000
218.520;    8.150;  -41.000;   96.000
218.665;  -30.825; -338.000; -204.000
218.810;  -38.775; -275.000; -233.000
218.954;    7.550;  201.000;   35.000
219.099; -114.700; -713.000; -963.000
219.243;  -54.425; -589.000; -554.000
219.388;  -34.800; -264.000; -136.000
219.532;   -9.025; -116.000; -116.000
219.677;  -80.175; -564.000; -521.000
219.822;    9.975;   33.000;   89.000
219.966;   -3.700;   17.000;  -99.000
220.111;  -19.175; -328.000;  -40.000
220.255;  -98.700; -797.000; -750.000
220.400;  -18.525; -180.000; -146.000
220.544;  -68.500; -516.000; -450.000
220.689;  -42.625; -422.000; -451.000
220.833;  -31.050; -123.000;  -58.000
220.978;  -31.175; -393.000; -563.000
221.122;   21.200;  319.000;  307.000
221.267; -101.225; -906.000; -837.000
221.411;  -74.775; -478.000; -394.000
221.555;   -3.375; -104.000;  -23.000
221.700;  -40.175; -329.000; -222.000
221.844;   35.100;  255.000;  272.000
221.989;  -38.825; -328.000; -311.000
222.133;  -34.125; -289.000; -307.000
222.277;   -2.025;    5.000;   78.000
222.422;   20.925;  227.000;  113.000
222.566;  -45.500; -381.000; -214.000
222.711;  -53.050; -414.000; -479.000
222.855;  -74.900; -643.000; -586.000
222.999;  -85.850; -642.000; -717.000
223.144;  -32.825; -195.000; -194.000
223.288;   67.325;  423.000;  251.000
223.432;   26.125;  184.000;  230.000
223.576;   28.600;  152.000;  -21.000
223.721;   27.575;  364.000;  273.000
223.865;  -55.400; -472.000; -475.000
224.009;  220.125; 1673.000; 1631.000
224.153;  -76.550; -660.000; -671.000
224.298;  -74.025; -531.000; -489.000
224.442;   -7.850;  -74.000;  -33.000
224.586;   -5.700; -169.000; -106.000
224.730;  -83.600; -858.000; -670.000
224.875;  -99.550; -739.000; -688.000
225.019;   20.750;  102.000;  188.000
225.163;   36.450;  208.000;  341.000
225.307;   26.525;   97.000;  -91.000
225.451;   34.775;  360.000;  481.000
225.595;   35.125;  264.000;  176.000
225.739;  -29.625; -170.000;  -94.000
225.884;   -0.400;   86.000;    5.000
226.028; -102.375; -760.000; -626.000
226.172;  -31.575; -260.000; -273.000
226.316; -121.225; -941.000; -902.000
226.460;  -53.200; -645.000; -493.000
226.604;  -44.975; -406.000; -400.000
226.748;  -94.800; -836.000; -733.000
226.892;  -28.050; -227.000; -181.000
227.036;  -41.150; -537.000; -447.000
227.180;  -48.025; -551.000; -375.000
227.324;  -63.900; -561.000; -580.000
227.468; -126.825; -819.000; -717.000
227.612;    9.600;  242.000;  -28.000
227.756; -101.400; -845.000; -698.000
227.900;   55.950;  342.000;  441.000
228.044;  -72.500; -509.000; -290.000
228.188;   54.225;  448.000;  568.000
228.332;  -93.500; -546.000; -472.000
228.476;  -16.450; -223.000; -149.000
228.620;  -25.775; -210.000; -150.000
228.764;   69.750;  431.000;  349.000
228.908;  -15.100; -155.000;   30.000
229.052;  -50.850; -615.000; -528.000
229.195;  -35.900; -172.000;   13.000
229.339;  -20.425; -235.000; -305.000
229.483;  -29.025;    5.000; -162.000
229.627;    2.100; -156.000;  139.000
229.771;  -60.700; -218.000; -294.000
229.915;   18.650;  230.000;   79.000
230.059;  -87.800; -648.000; -663.000
230.202;  -32.700; -370.000; -317.000
230.346;  -19.125; -107.000;  107.000
230.490;  -46.225; -489.000; -521.000
230.634; -114.075; -736.000; -553.000
230.777;   77.500;  478.000;  509.000
230.921;  -52.950; -450.000; -359.000
231.065;  -30.400; -246.000; -286.000
231.209;   28.850;  261.000;  265.000
231.352;   26.150;   54.000;   40.000
231.496;    4.500;  568.000;  188.000
231.640;  -68.475; -693.000; -621.000
231.783;   46.850;  546.000;  525.000
231.927;  -41.425; -294.000; -365.000
232.071; -114.200; -962.000; -736.000
232.214;  -90.500; -980.000; -764.000
232.358;  -96.100; -683.000; -599.000
232.502;   15.250;  -19.000;    7.000
232.645; -140.125;-1090.000; -927.000
232.789;  -12.525; -257.000; -218.000
232.933;  -54.325; -407.000; -224.000
233.076; -114.700;-1038.000; -897.000
233.220;  -96.400; -752.000; -777.000
233.363;  -70.325; -669.000; -477.000
233.507;   54.525;  371.000;  129.000
233.650;  -76.050; -764.000; -834.000
233.794;   33.575;  438.000;  461.000
233.938;  -41.700; -530.000; -362.000
234.081;  -13.425;  -93.000;   31.000
234.225;  -60.950; -631.000; -539.000
234.368; -119.650; -773.000; -723.000
234.512;  -51.025; -385.000; -299.000
234.655;  -89.700; -582.000; -555.000
234.798;  -52.400; -493.000; -466.000
234.942; -137.200; -884.000;-1002.000
235.085;  -78.550; -651.000; -443.000
235.229;  -81.275; -405.000; -410.000
235.372;  -40.775; -247.000; -191.000
235.516;  -71.475; -397.000; -321.000
235.659;   30.125;   92.000;  121.000
235.802;  -17.225;  -38.000;  -22.000
235.946;   36.850;  335.000;  215.000
236.089;   25.925;  126.000;  250.000
236.233;   56.650;  275.000;  298.000
236.376;  -55.575; -235.000; -378.000
236.519;  -39.775; -297.000; -319.000
236.663;  -11.575; -215.000; -117.000
236.806; -132.325;-1029.000; -999.000
236.949;   50.800;  543.000;  431.000
237.092;   55.500;  412.000;  391.000
237.236;  -91.925; -589.000; -502.000
237.379;   60.100;  352.000;  428.000
237.522; -135.900; -879.000; -768.000
237.666;   -4.975; -271.000;   18.000
237.809; -122.950; -851.000; -823.000
237.952;   44.125;  469.000;  271.000
238.095;  -65.525; -447.000; -442.000
238.238;   89.225;  688.000;  700.000
238.382;   -3.675;  166.000;  103.000
238.525;  -69.850; -598.000; -511.000
238.668; -137.875;-1060.000; -985.000
238.811;  -79.375; -638.000; -643.000
238.954;  -60.850; -483.000; -334.000
239.097;   93.000;  617.000;  664.000
239.241;   21.550;  394.000;  326.000
239.384;  -22.200; -254.000; -214.000
239.527;  -63.475; -424.000; -224.000
239.670; -140.625; -994.000;-1091.000
239.813; -101.275; -696.000; -658.000
239.956;   79.775;  579.000;  473.000
240.099; -108.225; -778.000; -725.000
240.242;   65.100;  428.000;  432.000
240.385;   49.750;  466.000;  450.000
240.528;  -71.525; -706.000; -473.000
240.671;   13.050;  189.000;  134.000
240.814;  -37.925; -441.000; -158.000
240.957; -104.250; -767.000; -578.000
241.100;  -86.400; -779.000; -755.000
241.243; -149.200;-1234.000; -893.000
241.386;  -59.550; -508.000; -379.000
241.529;  -84.050; -735.000; -547.000
241.672;  -47.900; -566.000; -495.000
241.815; -118.750; -832.000; -808.000
241.958;  -16.575; -125.000; -182.000
242.101;  -82.700; -545.000; -390.000
242.244;  -43.550; -270.000; -325.000
242.387;  -47.575; -304.000; -246.000
242.530;   69.475;  470.000;  134.000
242.673;  -51.825; -381.000; -309.000
242.815; -116.650; -925.000; -899.000
242.958;  -71.525; -482.000; -381.000
243.101;   10.875;  132.000;  187.000
243.244;  -80.350; -564.000; -521.000
243.387;  -37.800; -313.000; -316.000
243.530;  -95.325; -657.000; -674.000
243.672;    6.325;   43.000;  -92.000
243.815;  -56.100; -355.000; -283.000
243.958;   -2.350;   98.000;  -26.000
244.101;    5.675;   59.000;  -16.000
244.243;   -8.425;  -47.000;  101.000
244.386; -104.425; -761.000; -630.000
244.529;  -15.125; -132.000; -139.000
244.672; -164.600;-1154.000; -951.000
244.814;  -97.525; -621.000; -794.000
244.957;  -50.950; -380.000; -304.000
245.100;  -71.800; -489.000; -489.000
245.242;  -54.000; -387.000; -374.000
245.385;   12.375;  -59.000;  -39.000
245.528; -121.150; -871.000; -705.000
245.670;  107.000;  612.000;  634.000
245.813;  -98.275; -599.000; -547.000
245.956;  -31.500; -324.000; -275.000
246.098;  -75.500; -508.000; -650.000
246.241;    7.775;  194.000;   48.000
246.383;  -17.100; -119.000;  -73.000
246.526;  -75.200; -454.000; -525.000
246.669; -116.550; -889.000; -780.000
246.811;   31.000;  172.000;   -1.000
246.954;  -65.050; -512.000; -426.000
247.096;  -22.250;  -84.000;   -6.000
247.239;  -76.100; -482.000; -445.000
247.381;  -60.750; -647.000; -488.000
247.524;   78.375;  645.000;  679.000
247.666;    1.575;   58.000;   11.000
247.809; -113.175; -887.000; -691.000
247.951;   -2.525;  -75.000;  138.000
248.094;   28.525;  432.000;  308.000
248.236; -153.075;-1262.000;-1238.000
248.378;    1.625; -356.000;  -81.000
248.521;  -15.650; -334.000; -337.000
248.663;  -38.850; -236.000; -267.000
248.806;  -17.275; -300.000; -266.000
248.948;  -98.650; -886.000; -763.000
249.090;  -32.625; -428.000; -398.000
249.233;  -48.950; -344.000; -381.000
249.375;  -62.025; -474.000; -451.000
249.518;  -27.500;  -83.000; -133.000
249.660;    2.325; -103.000;    3.000
249.802; -169.725;-1303.000;-1189.000
249.945;  -65.975; -612.000; -540.000
250.087;  -91.600; -834.000; -768.000
250.229;  -47.425; -362.000; -480.000
250.371;  -65.400; -494.000; -439.000
250.514;  -40.425; -310.000; -244.000
250.656;  -45.525;   69.000;  102.000
250.798; -108.900; -849.000; -800.000
250.940;  -59.575; -322.000; -322.000
251.083;  -27.025; -335.000; -111.000
251.225;   48.550;  338.000;  310.000
251.367;  -38.275; -274.000; -373.000
251.509;  -36.800; -265.000; -210.000
251.651;  -86.600; -731.000; -671.000
251.794;   46.775;  538.000;  632.000
251.936;  -84.075; -821.000; -747.000
252.078;  -63.850; -540.000; -461.000
252.220;  -70.700; -645.000; -477.000
252.362;   72.525;  344.000;  462.000
252.504;  -63.300; -677.000; -584.000
252.646; -121.375; -875.000; -722.000
252.788;   -3.000;   14.000; -128.000
252.931;  -45.850; -257.000; -253.000
253.073;  -36.050; -376.000; -317.000
253.215;   -3.325;  141.000;  122.000
253.357;   -2.425;   82.000; -153.000
253.499;  -55.275; -374.000; -234.000
253.641;  -83.700; -749.000; -594.000
253.783; -101.500; -609.000; -527.000
253.925;  -79.025; -586.000; -591.000
254.067; -107.500; -744.000; -667.000
254.209;  -19.775; -391.000; -259.000
254.351; -131.650; -865.000; -883.000
254.493;  -59.475; -441.000; -417.000
254.635; -126.275; -936.000; -818.000
254.777;  -82.475; -752.000; -687.000
254.918;  -56.450; -512.000; -430.000
255.060;  -51.850; -551.000; -395.000
255.202;  -67.850; -473.000; -261.000
255.344;  -71.400; -658.000; -455.000
255.486;  -71.350; -471.000; -406.000
255.628; -106.625; -780.000; -781.000
255.770;  -99.575; -676.000; -536.000
255.912;  -66.100; -559.000; -468.000
256.053;  -99.300; -730.000; -508.000
256.195;  155.650; 1008.000;  903.000
256.337; -110.775; -861.000; -595.000
256.479;   64.750;  532.000;  416.000
256.621;  -53.225; -394.000; -212.000
256.762;  -84.400; -789.000; -742.000
256.904;   44.625;  485.000;  487.000
257.046;  -42.125; -381.000; -271.000
257.188;  -41.750; -351.000; -264.000
257.329;  -62.500; -525.000; -464.000
257.471; -121.225; -939.000; -807.000
257.613;  -53.550; -584.000; -498.000
257.755; -139.850;-1073.000; -982.000
257.896;   45.800;  286.000;  392.000
258.038;  -68.975; -403.000; -352.000
258.180;  -36.550; -354.000; -279.000
258.321;  -84.675; -581.000; -457.000
258.463;   -6.425;  -71.000;  133.000
258.605;  -86.400; -562.000; -570.000
258.746;  -94.600; -886.000; -772.000
258.888; -144.925;-1026.000;-1020.000
259.029;    6.625;  121.000;   -8.000
259.171;  -99.475; -614.000; -550.000
259.313;    8.650;  -49.000;  -47.000
259.454;  -86.025; -536.000; -414.000
259.596;  -57.775; -483.000; -390.000
259.737;  -81.375; -590.000; -474.000
259.879;   29.200;  217.000;  311.000
260.020;   77.225;  901.000;  636.000
260.162;  -24.275; -146.000; -253.000
260.303; -116.600; -768.000; -687.000
260.445;  -75.900; -609.000; -613.000
260.586;   23.600;  392.000;  157.000
260.728;  -51.925; -360.000; -248.000
260.869; -104.450; -350.000; -343.000
261.011;   83.200;  706.000;  537.000
261.152;  -70.175; -479.000; -319.000
261.293;  -76.875; -576.000; -595.000
261.435;  -20.425; -219.000; -184.000
261.576;  -43.225; -455.000; -325.000
261.718;   59.750;  420.000;  470.000
261.859; -120.450; -940.000; -949.000
262.000; -127.000; -951.000;-1016.000
262.142;  -18.900;  -52.000;  -60.000
262.283; -121.725; -808.000; -691.000
262.424;  -73.600; -666.000; -625.000
262.566; -149.600;-1161.000; -983.000
262.707; -106.075; -840.000; -830.000
262.848; -114.825; -769.000; -726.000
262.990;  -37.850; -362.000; -345.000
263.131;   74.500;  650.000;  681.000
263.272;  -19.075;  -61.000;  -41.000
263.413;  -93.150; -589.000; -561.000
263.555;  -67.450; -669.000; -143.000
263.696;  -91.175; -550.000; -641.000
263.837;  -53.850; -449.000; -551.000
263.978;   -6.600;   -5.000;  -77.000
264.119;  -42.575; -283.000; -264.000
264.261; -108.950; -847.000; -630.000
264.402;   -1.150;   33.000;   40.000
264.543;  -88.475; -509.000; -524.000
264.684;    4.275;   61.000;  -50.000
264.825;  -79.025; -816.000; -538.000
264.966;   -1.600;  -84.000;  -67.000
265.107; -115.675; -646.000; -670.000
265.248; -106.525; -825.000; -812.000
265.390;  -15.275;  152.000;   -9.000
265.531;  -22.125; -238.000; -107.000
265.672; -100.350; -557.000; -630.000
265.813;   49.375;  563.000;  439.000
265.954; -142.125; -959.000; -940.000
266.095;   -2.525; -372.000; -322.000
266.236;  -98.275; -686.000; -548.000
266.377;  -26.725; -243.000; -297.000
266.518;  -82.050; -619.000; -547.000
266.659;   37.125;  170.000;  268.000
266.800;    3.950;   83.000;   85.000
266.941;  -67.625; -487.000; -478.000
267.082;    7.700;  354.000;   99.000
267.223;  -43.925; -344.000; -273.000
267.364; -112.750; -892.000; -686.000
267.504;  -11.175;    3.000;  135.000
267.645;   -9.850;  160.000;   67.000
267.786;  -27.700; -147.000;  -86.000
267.927;  -64.275; -473.000; -379.000
268.068;  -20.650; -186.000;  -61.000
268.209;  -52.200; -175.000; -413.000
268.350;  -58.225; -388.000; -532.000
268.490;  -80.125; -648.000; -521.000
268.631;   32.025;  127.000;  225.000
268.772; -107.375; -874.000; -647.000
268.913;  -41.825; -328.000; -476.000
269.054;  -22.400; -117.000;   12.000
269.194;  -49.000; -418.000; -402.000
269.335; -151.550;-1137.000;-1074.000
269.476;   -4.875;   33.000;  -35.000
269.617;  -56.375; -347.000; -392.000
269.757;  -88.125; -713.000; -646.000
269.898; -105.625; -856.000; -613.000
270.039;  -48.650; -415.000; -405.000
270.180; -130.625; -952.000; -816.000
270.320;  -25.100; -190.000; -250.000
270.461;  -44.875; -277.000; -249.000
270.602;   -4.850; -186.000; -156.000
270.742; -127.075; -868.000; -943.000
270.883;  -40.925; -442.000; -390.000
271.023;  -57.300; -358.000; -357.000
271.164;  -67.475; -607.000; -528.000
271.305; -104.850; -666.000; -654.000
271.445;  -93.325; -722.000; -683.000
271.586;  -79.475; -462.000; -283.000
271.726;  -59.400; -397.000; -322.000
271.867;  -64.050; -594.000; -534.000
272.008;  164.825; -473.000; -285.000
272.148;  112.975;  462.000;  468.000
272.289;   14.700; -113.000; -181.000
272.429;    4.525;   19.000;  185.000
272.570;  -86.150; -633.000; -737.000
272.710; -106.775; -825.000; -775.000
272.851;  -17.900;  113.000; -130.000
272.991; -154.450;-1173.000;-1077.000
273.131;  -64.800; -419.000; -459.000
273.272;  -95.550; -683.000; -723.000
273.412;   11.200; -143.000;  -31.000
273.553;  -52.175; -488.000; -507.000
273.693;  139.850;  913.000;  858.000
273.834; -111.925; -894.000; -692.000
273.974;  -64.325; -664.000; -615.000
274.114;  -99.550; -772.000; -560.000
274.255;   65.925;  414.000;  373.000
274.395;   10.025; -180.000; -125.000
274.535;   32.250;  199.000;  350.000
274.676;   12.750;  225.000;   94.000
274.816;   -1.375;  110.000;   34.000
274.956;  -82.025; -624.000; -690.000
275.097;  -70.575;-1014.000; -922.000
275.237; -119.075; -913.000; -803.000
275.377; -112.325; -778.000; -689.000
275.517; -156.200; -878.000; -937.000
275.658;  -66.100; -590.000; -555.000
275.798;  -81.225; -606.000; -413.000
275.938;   26.200;  215.000;  323.000
276.078;  -99.850; -626.000; -395.000
276.218;    1.050;   99.000;  104.000
276.359; -134.050;-1026.000;-1024.000
276.499;  -57.275; -605.000; -446.000
276.639;  -38.225; -305.000; -151.000
276.779;  -29.825; -475.000; -357.000
276.919; -107.225; -783.000; -624.000
277.059;  -13.025; -261.000; -212.000
277.199;  -44.700; -357.000; -259.000
277.340;   50.425;  287.000;  175.000
277.480; -124.250; -840.000; -693.000
277.620;   20.425;  192.000;   16.000
277.760; -195.475;-1533.000;-1294.000
277.900;   16.275;  113.000;   33.000
278.040;    8.875;  137.000;  159.000
278.180;   41.200;  270.000;  170.000
278.320;  -12.300;   21.000;   56.000
278.460;  -62.925; -443.000; -469.000
278.600;  -86.175; -708.000; -598.000
278.740;   48.300;  448.000;  224.000
278.880;  -62.850; -768.000; -791.000
279.020;   -3.575; -194.000; -144.000
279.160;  -99.450; -672.000; -595.000
279.300; -113.650; -926.000; -873.000
279.440;  -95.950; -709.000; -622.000
279.579;  -13.750;-1014.000; -929.000
279.719;  -64.325; -410.000; -394.000
279.859;   65.400;   -4.000;   41.000
279.999;   21.650; -208.000;  101.000
280.139;  -14.675; -435.000; -387.000
280.279;  -86.275; -708.000; -745.000
280.419;  -18.925; -229.000; -147.000
280.559;  -52.325; -259.000; -180.000
280.698;  -82.650; -790.000; -639.000
280.838; -103.050; -778.000; -800.000
280.978; -100.100; -846.000; -790.000
281.118; -122.450; -811.000; -704.000
281.257;    3.100;   24.000;    6.000
281.397; -105.925;-1094.000; -960.000
281.537;  -85.225; -599.000; -712.000
281.677;  -27.925; -150.000; -101.000
281.816;  -81.475; -700.000; -630.000
281.956;  -44.325; -193.000; -257.000
282.096;  -52.925; -539.000; -396.000
282.235;  -90.400; -672.000; -638.000
282.375;  -23.175; -243.000;  -98.000
282.515; -117.325; -715.000; -707.000
282.654;   19.125;   29.000;  106.000
282.794;   27.825;  388.000;  244.000
282.934;  -47.375; -530.000; -491.000
283.073; -131.700;-1030.000; -857.000
283.213;  -52.175; -460.000; -467.000
283.353;  -51.825; -408.000; -349.000
283.492;  -37.450; -264.000; -296.000
283.632;  -49.600; -254.000; -168.000
283.771;  -90.000; -859.000; -730.000
283.911;  -52.625; -369.000; -260.000
284.050;  -94.700; -794.000; -748.000
284.190; -150.550;-1229.000;-1096.000
284.329; -126.125;-1055.000; -964.000
284.469;  -79.175; -516.000; -591.000
284.608;  -57.150; -559.000; -598.000
284.748;  -85.275; -614.000; -570.000
284.887;   -8.125;  -87.000;  -20.000
285.027; -115.250; -844.000; -892.000
285.166;  -23.125; -192.000; -249.000
285.306;   10.075; -116.000;  -33.000
285.445;  -46.375; -229.000; -343.000
285.584;  -87.500; -630.000; -494.000
285.724;  -45.000; -282.000; -322.000
285.863; -114.400; -857.000; -507.000
286.002;  -52.125; -366.000; -276.000
286.142; -105.675; -715.000; -622.000
286.281;  -56.175; -525.000; -493.000
286.420;  -82.000; -554.000; -417.000
286.560;  100.075;  653.000;  623.000
286.699; -145.275; -958.000; -912.000
286.838;  -78.300; -590.000; -591.000
286.978; -100.425; -533.000; -537.000
287.117; -132.575;-1085.000; -950.000
287.256;  -39.950; -228.000; -211.000
287.395;  -46.275; -197.000; -378.000
287.535;  -53.575; -370.000; -298.000
287.674;  -79.175; -509.000; -484.000
287.813;   51.500;  661.000;  533.000
287.952; -121.725;-1010.000; -871.000
288.091; -143.000;-1049.000; -915.000
288.231;   10.275;   13.000;   15.000
288.370; -172.300;-1217.000;-1200.000
288.509;  -66.550; -728.000; -645.000
288.648;  -91.525; -770.000; -548.000
288.787;  -31.000; -243.000;  -87.000
288.926;  -73.325; -454.000; -475.000
289.065;  118.350;  859.000;  672.000
289.204;  -62.825; -377.000; -217.000
289.344;  -81.800; -791.000; -690.000
289.483;   17.625;  416.000;  304.000
289.622;  -22.675; -291.000; -149.000
289.761;  -13.150; -309.000; -166.000
289.900; -106.575; -785.000; -626.000
290.039;  -21.000;  -12.000;  -95.000
290.178;  -40.975; -274.000; -180.000
290.317;  -74.100; -618.000; -479.000
290.456;  -72.525; -463.000; -451.000
290.595; -138.000; -961.000; -833.000
290.734; -134.700; -904.000; -891.000
290.873;  -73.825; -456.000; -420.000
291.011; -107.725; -833.000; -843.000
291.150; -108.225; -770.000; -682.000
291.289;   -3.250; -343.000; -110.000
291.428; -100.325; -599.000; -480.000
291.567;  -48.625; -370.000; -442.000
291.706;   -3.450;  109.000;  154.000
291.845;  -86.475; -597.000; -505.000
291.984; -173.325;-1234.000;-1061.000
292.122;   72.150;  602.000;  582.000
292.261;   30.175;  620.000;  463.000
292.400;    0.150; -144.000;  211.000
292.539; -130.075; -959.000; -813.000
292.678;  -32.775; -325.000; -300.000
292.816; -161.800;-1136.000; -965.000
292.955;  -87.175; -844.000; -684.000
293.094;  -24.675; -173.000; -337.000
293.233;  -49.200; -556.000; -400.000
293.371;  -35.975; -225.000;  -84.000
293.510; -102.850; -866.000; -780.000
293.649; -123.625; -959.000; -924.000
293.787;  -65.725;-1083.000;-1012.000
293.926;   -8.900; -113.000;  -32.000
294.065;  -39.700; -379.000; -290.000
294.203;   28.825;  298.000;  406.000
294.342;   21.400;   74.000;  156.000
294.481; 6298.400;51180.000; -836.000
294.619;  -29.075; -425.000; -582.000
294.758; -142.900;-1230.000;-1137.000
294.896;   54.325; -125.000;    5.000
295.035; -127.250;-1040.000;-1006.000
295.174; -118.625;-1082.000; -954.000
295.312;  -53.700; -323.000; -203.000
295.451;   -8.400; -307.000; -428.000
295.589;  -66.925; -389.000; -518.000
295.728;   17.575; -292.000; -165.000
295.866;   -7.950;  -36.000;  -51.000
296.005;  -60.825; -584.000; -341.000
296.143;  -84.450; -558.000; -596.000
296.282;  -95.075; -957.000; -881.000
296.420; -105.100; -657.000; -557.000
296.559;  -82.050; -892.000; -633.000
296.697;    6.775; -847.000; -665.000
296.835;   35.125;-1141.000;-1002.000
296.974;   40.950;  -23.000;   39.000
297.112;  -13.100; -443.000; -504.000
297.251;  -95.200; -815.000; -755.000
297.389;   67.375; -576.000; -438.000
297.527;   33.050; -145.000;  -83.000
297.666;  -45.175; -486.000; -438.000
297.804;  -48.250; -404.000; -264.000
297.942;   -9.050; -136.000; -161.000
298.081;  -11.325; -183.000;   63.000
298.219;   71.750;  -17.000;  -19.000
298.357;   38.975; -144.000;  -71.000
298.495;   22.225; -810.000; -812.000
298.634;   53.050;  245.000;  219.000
298.772;   42.350; -220.000; -338.000
298.910;  -42.150; -309.000; -182.000
299.048;   -4.975; -130.000; -153.000
299.187;  -32.975; -350.000; -250.000
299.325;    4.450;   52.000;  122.000
299.463;   28.725; -389.000; -299.000
299.601;   92.575; -327.000; -271.000
299.739; -115.150; -908.000; -883.000
299.877;  -74.950; -791.000; -703.000
300.016;  -56.100;-1095.000; -935.000
300.154;  144.950;  -19.000; -161.000
300.292;   31.625; -428.000; -348.000
300.430;   10.550; -408.000; -291.000
300.568; -108.450; -940.000; -874.000
300.706;  -48.150; -366.000; -469.000
300.844;  -77.075;-1108.000; -979.000
300.982;  119.725;  246.000;  282.000
301.120; -116.100; -965.000; -866.000
301.258;  -69.625; -812.000; -705.000
301.396;   13.175;  104.000;  -41.000
301.534;   71.275; -218.000; -293.000
301.672;  -35.100; -664.000; -521.000
301.810;   13.450; -613.000; -545.000
301.948;   84.025;   53.000;  149.000
302.086;  579.050; -250.000;  -32.000
302.224;  833.025; -610.000; -585.000
302.362;   20.825; -558.000; -622.000
302.500;  -49.000; -923.000; -893.000
302.638;   91.475;  128.000;  245.000
302.776;  -14.750; -352.000; -408.000
302.913;   43.700;  447.000;  236.000
303.051;  -16.125;  -86.000;  -23.000
303.189;   35.875;   90.000;  118.000
303.327;  -50.925; -341.000; -256.000
303.465;  -83.275; -832.000; -588.000
303.603;  -92.800; -805.000; -604.000
303.740;  103.050;  417.000;  241.000
303.878;   -4.675; -800.000; -759.000
304.016;  -82.350; -915.000; -790.000
304.154; -123.200;-1123.000;-1152.000
304.291;  -46.575; -505.000; -554.000
304.429;   -0.700;  102.000;   74.000
304.567; -125.600; -908.000; -893.000
304.705;  -39.325; -408.000; -515.000
304.842;   78.850; -616.000; -540.000
304.980;   37.100;  215.000;   35.000
305.118;   31.875; -367.000; -365.000
305.255;  -92.425; -945.000; -927.000
305.393;   62.975;  178.000;  239.000
305.531; -108.450;-1173.000; -956.000
305.668;  -53.275; -663.000; -582.000
305.806;   84.375; -358.000; -439.000
305.943;  108.725; -629.000; -637.000
306.081;   54.600; -378.000; -267.000
306.219;  -98.300; -863.000; -748.000
306.356;    5.275;  158.000;   27.000
306.494;  119.675;  981.000;  761.000
306.631;    1.125;  -11.000;  -55.000
306.769;   -8.150; -613.000; -485.000
306.906;  -28.600; -284.000; -258.000
307.044;  -67.475; -473.000; -488.000
307.181;  -71.650; -410.000; -332.000
307.319;    4.975;  112.000;   87.000
307.456; -180.400;-1191.000;-1153.000
307.594; -106.525; -980.000; -727.000
307.731;  -20.400; -371.000; -164.000
307.868;   -7.925;  -15.000;   20.000
308.006; -139.900; -961.000; -847.000
308.143;  -56.875; -618.000; -330.000
308.281;  152.525;  -37.000; -254.000
308.418;  -10.250; -748.000; -640.000
308.555;  -66.025; -400.000; -250.000
308.693;  -80.225; -577.000; -573.000
308.830; -112.500; -712.000; -657.000
308.967;  -14.550; -215.000;  -95.000
309.105;  -57.725; -507.000; -396.000
309.242;   38.250; -468.000; -367.000
309.379;  275.750; -577.000; -655.000
309.517;  -62.450; -936.000; -948.000
309.654; -115.975; -910.000; -734.000
309.791;  -69.100; -662.000; -580.000
309.928; -134.075; -977.000; -914.000
310.065;  168.325;  819.000;  697.000
310.203;  -16.550; -825.000; -850.000
310.340;  -15.850; -465.000; -321.000
310.477;  -88.775; -412.000; -516.000
310.614;  -61.200; -383.000; -473.000
310.751;  -74.875; -427.000; -518.000
310.889;  -32.300;    1.000;   11.000
311.026; -148.125;-1161.000; -939.000
311.163;  -43.600; -386.000; -380.000
311.300;  -87.950; -512.000; -479.000
311.437;  -72.725; -658.000; -619.000
311.574; -157.050;-1226.000; -985.000
311.711;  -59.825; -595.000; -433.000
311.848;  -51.250; -380.000; -388.000
311.985;    6.450;  270.000;   93.000
312.122; -127.750; -932.000; -762.000
312.259; -117.725; -941.000; -994.000
312.396;  -91.200; -508.000; -551.000
312.533;  -94.600; -812.000; -790.000
312.670; -147.275;-1070.000; -898.000
312.807;  -28.725; -352.000; -367.000
312.944;  -83.575; -513.000; -611.000
313.081;  -30.225; -150.000; -415.000
313.218; -106.300;-1111.000; -867.000
313.355;    4.300; -531.000; -449.000
313.492;  -17.800; -455.000; -292.000
313.629;  130.225;  815.000;  735.000
313.766; -170.925;-1176.000;-1008.000
313.902;  -15.900; -186.000;   21.000
314.039;  -50.825; -372.000; -289.000
314.176;   24.050;  286.000;  192.000
314.313;  -84.950; -569.000; -473.000
314.450;  -71.675; -788.000; -684.000
314.587;  -59.700; -468.000; -480.000
314.723;  -13.800;  -78.000;  130.000
314.860;   22.075;  318.000;  332.000
314.997;   19.525;  223.000;  142.000
315.134;  -45.175; -385.000; -368.000
315.270;  -28.750; -480.000; -496.000
315.407; -137.000;-1094.000; -967.000
315.544;  -61.375; -657.000; -538.000
315.681;  -63.600; -681.000; -565.000
315.817;   29.350; -133.000; -176.000
315.954;    5.125; -613.000; -392.000
316.091; -128.425;-1045.000;-1023.000
316.227;  -27.825;  -71.000; -179.000
316.364;    5.500;   23.000;    6.000
316.500;  -53.475; -113.000; -300.000
316.637;  -32.050; -181.000; -302.000
316.774;  -95.825; -625.000; -358.000
316.910;  -71.625; -598.000; -629.000
317.047;  -70.800; -487.000; -351.000
317.183;  -34.150; -435.000; -566.000
317.320;  -22.600; -367.000; -321.000
317.456;  -55.475; -733.000; -805.000
317.593;  -84.450; -598.000; -641.000
317.729;    9.375;  168.000;  -67.000
317.866; -202.150;-1434.000;-1285.000
318.002;  -72.300; -708.000; -948.000
318.139; -117.425; -883.000; -867.000
318.275;  -98.550;-1003.000; -738.000
318.412;  -70.725; -517.000; -336.000
318.548;  -35.925; -751.000; -720.000
318.685; -102.700; -985.000; -888.000
318.821;  -85.825; -762.000; -735.000
318.957;  -23.150;   34.000;  -23.000
319.094;   39.100;  297.000;  154.000
319.230;  -80.275; -756.000; -742.000
319.367;  107.900; -471.000; -520.000
319.503;   44.800; -538.000; -436.000
319.639; -108.200; -877.000; -793.000
319.775;  -70.225; -750.000; -685.000
319.912;  -42.325; -424.000; -519.000
320.048; -105.650;-1184.000;-1184.000
320.184;   76.400;   59.000;   70.000
320.321;  -69.025; -497.000; -467.000
320.457;   71.950;  475.000;  662.000
320.593;  -65.350; -375.000; -382.000
320.729;  -92.850; -732.000; -734.000
320.866;  -76.425; -577.000; -635.000
321.002;  -71.225; -759.000; -809.000
321.138;  -14.050; -135.000; -211.000
321.274;   74.525; -148.000; -115.000
321.410;  -34.225; -585.000; -353.000
321.546;  -36.975;-1011.000; -911.000
321.683;   44.250;  400.000;  185.000
321.819;   -0.575;  -48.000; -117.000
321.955; -114.475; -743.000; -722.000
322.091;  -49.675; -585.000; -540.000
322.227;  -19.150; -382.000; -202.000
322.363;  -21.675; -320.000; -215.000
322.499;  -56.800; -343.000; -331.000
322.635;  146.150;  636.000;  443.000
322.771;   22.525; -139.000;   12.000
322.907;   77.700;  129.000;  327.000
323.043;  -24.050; -115.000; -206.000
323.179;  -36.950; -394.000; -363.000
323.315;  -10.800; -401.000; -371.000
323.451;   76.325; -328.000; -236.000
323.587;   44.000;  -60.000;  -77.000
323.723;    5.000; -682.000; -601.000
323.859;  -23.725; -258.000;  -76.000
323.995;  -33.050; -467.000; -409.000
324.131; -132.250; -967.000; -892.000
324.267;  -49.525; -254.000; -276.000
324.402; -135.100; -960.000; -983.000
324.538;  -10.200; -279.000; -104.000
324.674;   11.225;  164.000;   77.000
324.810;   95.925;  226.000;  308.000
324.946;  -13.250; -810.000; -658.000
325.082;  -75.150; -568.000; -475.000
325.217;  -19.275;  -62.000;   16.000
325.353;  -88.975; -764.000; -659.000
325.489; -103.325; -540.000; -506.000
325.625;  -69.725; -579.000; -525.000
325.760;   52.150;  517.000;  376.000
325.896;  -12.575; -515.000; -702.000
326.032;  -66.600; -403.000; -352.000
326.168;  -63.650; -462.000; -369.000
326.303;  -69.000; -352.000; -461.000
326.439;  -20.550; -336.000; -276.000
326.575;   -2.650; -190.000;  -29.000
326.710;  -15.275; -156.000;  -30.000
326.846;  -19.200;  146.000;  103.000
326.982;  -88.325; -530.000; -548.000
327.117;  -72.850; -481.000; -442.000
327.253;  -76.075; -745.000; -742.000
327.388; -164.700;-1137.000;-1153.000
327.524;  -59.775; -811.000; -578.000
327.659;  -26.750;  -58.000;  -22.000
327.795;  -14.600;   69.000;   45.000
327.931;  -84.200; -723.000; -499.000
328.066;  -23.700; -417.000; -276.000
328.202;  -27.700;   12.000; -129.000
328.337;  100.350;  957.000;  713.000
328.473;   24.675;  -12.000;  -74.000
328.608;  -21.675; -256.000; -267.000
328.743;  -77.775; -799.000; -664.000
328.879;   19.475;  214.000;  114.000
329.014;  -38.675; -102.000; -122.000
329.150;  -73.125; -358.000; -483.000
329.285;  -90.475; -465.000; -466.000
329.421;  -51.375; -548.000; -246.000
329.556;  -31.550;  -36.000;   85.000
329.691;  -91.800; -633.000; -615.000
329.827;  -90.150; -626.000; -480.000
329.962;  -43.400;  131.000; -301.000
330.097;  -95.025; -673.000; -585.000
330.233;  -44.400; -410.000; -223.000
330.368; -128.575; -839.000; -628.000
330.503;  -11.350;    3.000;   98.000
330.638;  -11.425;  -93.000; -125.000
330.774;  -61.175; -609.000; -530.000
330.909;  -31.625; -434.000; -244.000
331.044;  -87.025; -714.000; -708.000
331.179; -186.550;-1217.000;-1109.000
331.315;    6.925;   77.000;   20.000
331.450;   16.775;  157.000;  285.000
331.585;  -99.650; -805.000; -706.000
331.720;  -95.475; -510.000; -460.000
331.855;   -4.675;  -35.000; -102.000
331.990;  272.800;   62.000;  138.000
332.126;  156.325; -110.000;   71.000
332.261;  -27.700; -379.000; -265.000
332.396;    5.675; -135.000; -242.000
332.531; -100.225;-1074.000;-1031.000
332.666;   38.750; -519.000; -363.000
332.801; -104.275; -726.000; -807.000
332.936;  -26.825; -192.000; -122.000
333.071; -149.625; -870.000; -817.000
333.206;   11.125;  307.000;  379.000
333.341;   19.475;  344.000;  418.000
333.476;  -84.750; -627.000; -623.000
333.611;  -51.825; -251.000; -173.000
333.746;  -36.425; -381.000; -464.000
333.881; -117.925; -973.000; -935.000
334.016; -115.475; -936.000; -917.000
334.151; -126.725; -746.000; -702.000
334.286;   23.275;  152.000;  186.000
334.421;  -38.950; -125.000; -178.000
334.556;  -80.575; -611.000; -567.000
334.690; -100.650; -631.000; -577.000
334.825;   45.025;  381.000;   83.000
334.960;  -66.850; -285.000; -413.000
335.095;   18.875;  135.000;  -91.000
335.230; -106.875; -722.000; -738.000
335.365; -132.400;-1084.000; -990.000
335.499; -138.350;-1108.000;-1037.000
335.634;   10.475;    9.000;  534.000
335.769; -120.300; -755.000; -720.000
335.904;  -60.375; -603.000; -561.000
336.038;  -68.075; -735.000; -657.000
336.173; -127.775;-1206.000;-1194.000
336.308;   -9.000; -116.000; -189.000
336.443;   23.400; -544.000; -634.000
336.577;  -70.650; -936.000; -787.000
336.712;   52.175;   -4.000;  -12.000
336.847;  -59.875; -724.000; -607.000
336.981;   45.575; -272.000; -208.000
337.116;  256.450;  615.000;  501.000
337.250;  127.075; -434.000; -421.000
337.385;  274.125; -297.000; -208.000
337.520;  107.975; -632.000; -603.000
337.654;  -41.825; -215.000; -126.000
337.789; -129.650; -989.000; -933.000
337.923;  -44.675; -104.000; -205.000
338.058;  -84.600; -673.000; -738.000
338.192;  -34.200; -611.000; -488.000
338.327;  -14.875;  -18.000; -155.000
338.461;  -87.175; -299.000; -469.000
338.596;  -74.375; -780.000; -638.000
338.730; -114.350; -767.000; -803.000
338.865;  104.150;  -46.000; -140.000
338.999;  -46.500; -846.000; -702.000
339.134;  -11.050; -634.000; -536.000
339.268;    1.075; -741.000; -603.000
339.403;  395.950; -740.000; -775.000
339.537;  134.625; -894.000; -820.000
339.671; -111.550; -829.000; -813.000
339.806;  -73.125; -556.000; -512.000
339.940;   13.650; -261.000; -235.000
340.074;  -90.975; -685.000; -510.000
340.209;  -50.025; -351.000; -230.000
340.343; -100.400; -517.000; -573.000
340.477;  150.350;  998.000; 1036.000
340.612;  -51.350;-1033.000; -900.000
340.746;  158.600; -199.000; -243.000
340.880;  -73.000; -924.000; -785.000
341.014;  -14.750;  -45.000; -154.000
341.149; -117.000; -756.000; -718.000
341.283; -107.775; -839.000; -754.000
341.417; -123.275;-1124.000; -938.000
341.551;   95.850; -768.000; -708.000
341.685;  -28.875; -633.000; -611.000
341.820;  -48.450; -562.000; -493.000
341.954;  -56.775; -218.000; -349.000
342.088; -148.625;-1102.000;-1019.000
342.222;   34.925;  565.000;  618.000
342.356;  -65.275; -395.000; -335.000
342.490;  -93.675; -880.000; -841.000
342.624;  -44.100; -339.000; -242.000
342.758;  -28.625; -364.000; -312.000
342.892;  -65.100; -710.000; -585.000
343.026;  -42.675;  -58.000; -116.000
343.160;  -62.925; -426.000; -376.000
343.294;  -80.200; -474.000; -337.000
343.428;  -37.300; -488.000; -448.000
343.562;  -27.275; -172.000;  -23.000
343.696;  -28.575; -385.000; -314.000
343.830;  -34.550; -362.000; -356.000
343.964;    9.675; -231.000; -168.000
344.098;  791.400;  199.000;   70.000
344.232;  660.350; -266.000; -127.000
344.366;   79.325; -567.000; -453.000
344.500;   48.225; -665.000; -744.000
344.634;   21.300; -324.000; -164.000
344.768;  -21.450; -531.000; -341.000
344.902;    6.025;  278.000;  256.000
345.035;  -70.375; -556.000; -496.000
345.169; -138.375; -933.000; -656.000
345.303;  -34.175; -308.000; -482.000
345.437;  -89.350; -826.000; -717.000
345.571;  -55.850; -675.000; -594.000
345.704;  -62.900; -309.000; -532.000
345.838;  -11.800; -331.000; -284.000
345.972;  -46.725; -543.000; -495.000
346.106;  191.375; -179.000; -190.000
346.239;  400.400; -312.000; -243.000
346.373;   12.050; -343.000; -302.000
346.507; -142.000; -950.000; -962.000
346.640;  123.200;  -30.000;   13.000
346.774;  -47.650; -650.000; -797.000
346.908;  -20.675; -138.000;  -11.000
347.041; -109.325; -646.000; -593.000
347.175;    3.775;  259.000;   27.000
347.309;  -80.550; -698.000; -628.000
347.442;  -93.400; -883.000; -732.000
347.576;  248.250;  670.000;  668.000
347.709;  158.750; -123.000;  -52.000
347.843;  -99.450; -933.000; -825.000
347.976;   27.250;  235.000;  294.000
348.110; -178.875;-1268.000;-1186.000
348.243;  -96.975; -679.000; -772.000
348.377;  -14.925;  -26.000;   60.000
348.510;   48.350;  403.000;  540.000
348.644;  -27.875;  -37.000; -159.000
348.777;    2.975;  180.000;  191.000
348.911;  -54.525; -142.000; -112.000
349.044;  152.400;  471.000;  448.000
349.178;  116.050;-1069.000;-1006.000
349.311;  117.550;  141.000;  255.000
349.444;    3.375; -927.000; -813.000
349.578;   -8.125; -347.000; -200.000
349.711; -101.150; -959.000; -862.000
349.845;  -24.650; -661.000; -591.000
349.978; -152.275;-1224.000;-1137.000
350.111;  -90.650; -546.000; -612.000
350.244;  -92.875; -596.000; -700.000
350.378;    3.500; -392.000; -393.000
350.511;  -79.925; -393.000; -426.000
350.644; -104.975; -808.000; -806.000
350.778;    6.100;  168.000;  104.000
350.911;   -4.575;  134.000;  140.000
351.044;  -99.425; -685.000; -615.000
351.177;  -41.250; -321.000; -281.000
351.310;  -23.575;    3.000; -131.000
351.444;  -81.700; -888.000; -788.000
351.577;  106.350;  140.000;   90.000
351.710;   91.625;  593.000;  417.000
351.843;  -50.475; -165.000;  -77.000
351.976;   -0.800;  149.000;  -79.000
352.109;  -93.225; -621.000; -612.000
352.242;  -25.650; -464.000; -419.000
352.376;  -72.175; -580.000; -636.000
352.509;  136.050; -437.000; -356.000
352.642;   -9.750; -654.000; -604.000
352.775;   66.950; -141.000;  -98.000
352.908; -116.350; -933.000; -904.000
353.041; -111.425; -814.000; -824.000
353.174;  -58.475; -551.000; -424.000
353.307;  -76.200; -753.000; -764.000
353.440;   59.375;  541.000;  453.000
353.573; -111.375; -957.000;-1008.000
353.706;  -62.200; -384.000; -558.000
353.839;  -16.625; -264.000; -220.000
353.971;  -96.000; -657.000; -512.000
354.104;  -89.325; -896.000; -835.000
354.237;  -52.500; -627.000; -662.000
354.370;  -87.300; -846.000; -879.000
354.503; -173.150;-1231.000;-1308.000
354.636;  -46.275; -529.000; -348.000
354.769; -136.925; -937.000; -860.000
354.902;  -20.025; -230.000; -139.000
355.034;  -39.350; -164.000; -220.000
355.167;  -22.750; -262.000; -162.000
355.300;  -92.375;-1061.000; -880.000
355.433; 1008.750;  -71.000;  -14.000
355.565; 1586.650; -402.000; -384.000
355.698;  411.000; -356.000; -296.000
355.831;   -1.950; -882.000; -801.000
355.964;   48.950; -285.000; -170.000
356.096;  -99.675; -856.000; -843.000
356.229;   -3.025; -523.000; -530.000
356.362;  335.000; -373.000; -266.000
356.494;  614.725; -229.000; -162.000
356.627;  418.900;  269.000;  377.000
356.760;  685.425;  120.000;   53.000
356.892; 1025.625; -286.000; -601.000
357.025;  596.300;  403.000;  389.000
357.157;  514.975; -167.000; -179.000
357.290;  763.675; -856.000; -713.000
357.423;  224.525; -667.000; -556.000
357.555;  111.600; -217.000; -228.000
357.688;  102.025; -483.000; -364.000
357.820;  425.900; -870.000; -877.000
357.953; 3437.125; -563.000; -589.000
358.085;  726.400; -632.000; -612.000
358.218;  908.750;-1131.000; -932.000
358.350;  166.775;  -58.000;  312.000
358.483; -128.650;-1300.000;-1187.000
358.615;  -36.700;-1182.000;-1078.000
358.747;  -80.800;-1187.000;-1058.000
358.880;    4.625; -810.000; -744.000
359.012;  -19.475; -376.000; -202.000
359.145;  -31.350; -480.000; -511.000
359.277;   36.200; -962.000; -913.000
359.409; 2775.425;  536.000;  231.000
359.542;  733.775; -738.000; -688.000
359.674;   66.400;   46.000;   13.000
359.806;  -68.300; -565.000; -438.000
359.939;  -36.625; -617.000; -516.000
360.071;   -5.000; -583.000; -579.000
360.203;  -17.475; -411.000; -364.000
360.335;   43.475;  164.000;  -16.000
360.468;  187.200; -249.000; -307.000
360.600; 2292.800; -547.000; -454.000
360.732; 3063.650; -546.000; -423.000
360.864;  421.275;-1216.000;-1044.000
360.996;  222.750; -516.000; -554.000
361.129;   33.600; -389.000; -598.000
361.261;   27.425;  110.000; -113.000
361.393;  -34.000; -252.000; -214.000
361.525;   21.775;   94.000;  244.000
361.657;  -49.075; -821.000; -703.000
361.789;    0.500; -139.000; -155.000
361.921;  150.325; -642.000; -593.000
362.053;  229.075;  524.000;  541.000
362.185;   41.375;  288.000;   72.000
362.318;  -71.875; -709.000; -705.000
362.450;   97.725;  294.000;  444.000
362.582;   49.875; -913.000; -870.000
362.714;  -56.875; -353.000; -332.000
362.846;  -82.525; -606.000; -490.000
362.978; -157.100; -941.000; -811.000
363.109;   27.300; -161.000; -260.000
363.241;  349.050; -739.000; -749.000
363.373;  443.025; -649.000; -564.000
363.505;  714.875; -186.000;  -91.000
363.637;  157.600; -787.000; -601.000
363.769; -126.525;-1067.000;-1080.000
363.901;  -75.425; -596.000; -654.000
364.033; -129.800;-1103.000;-1062.000
364.165;   -2.825; -283.000; -283.000
364.296;   67.750; -316.000; -177.000
364.428;   96.000;-1344.000;-1220.000
364.560;  -77.150; -679.000; -661.000
364.692;  -71.725; -738.000; -835.000
364.824;  191.000; -588.000; -456.000
364.955;  425.525; -402.000; -564.000
365.087; 1066.925;-1097.000; -852.000
365.219;   43.125; -686.000; -816.000
365.351;  -71.050; -526.000; -572.000
365.482;   42.125;  300.000;  240.000
365.614;  -63.100; -402.000; -314.000
365.746;  -82.125; -729.000; -752.000
365.877; -109.925; -706.000; -672.000
366.009;  288.100;  -35.000;  -62.000
366.141;  -78.175;-1249.000;-1134.000
366.272;  -98.000; -803.000; -719.000
366.404; -120.225;-1005.000; -874.000
366.535;  -15.625; -139.000;  -12.000
366.667; -103.150; -644.000; -649.000
366.799;   40.175;  353.000;  203.000
366.930; -127.350; -862.000; -996.000
367.062;  119.725; -639.000; -613.000
367.193;  173.875; -872.000; -842.000
367.325;  -59.325; -580.000; -684.000
367.456;   25.775; -246.000;   31.000
367.588;  159.500; -371.000; -318.000
367.719;   13.050;  -44.000;  -45.000
367.851;  -19.250; -222.000; -241.000
367.982;  -57.100; -875.000; -732.000
368.113;   93.300; -475.000; -358.000
368.245; -131.425; -960.000; -841.000
368.376;  -24.575; -254.000; -302.000
368.508;  -41.325; -188.000; -263.000
368.639; -133.850;-1166.000;-1034.000
368.770;  -35.000; -670.000; -589.000
368.902;  -77.025; -836.000; -926.000
369.033;  -94.500; -906.000; -855.000
369.164;  -44.600; -720.000; -653.000
369.296;  -99.925; -452.000; -601.000
369.427;    9.875; -209.000; -144.000
369.558;  -56.350; -593.000; -377.000
369.689;  -83.425; -721.000; -569.000
369.821; -142.025; -951.000; -845.000
369.952;  -16.700;   42.000; -108.000
370.083;  -63.100; -229.000; -108.000
370.214;  -86.250; -735.000; -650.000
370.345;  -20.350;   65.000;   81.000
370.477;  -85.500; -810.000; -790.000
370.608;  191.525; -328.000; -264.000
370.739;  -58.850;-1233.000;-1292.000
370.870;  -70.450;-1102.000; -923.000
371.001;   62.125; -378.000; -467.000
371.132;  -71.325; -754.000; -735.000
371.263;   -7.900;  -42.000; -148.000
371.394; -136.125; -841.000; -748.000
371.525;   28.000;  345.000;  225.000
371.657;  -83.725; -808.000; -670.000
371.788;   59.925;  103.000;  199.000
371.919;  134.200; -384.000; -304.000
372.050; 3239.975;  -91.000; -156.000
372.181; 1009.450; -188.000; -294.000
372.311;  330.950;   42.000; -127.000
372.442;   13.450; -457.000; -451.000
372.573;  -13.275; -444.000; -340.000
372.704; -132.200;-1008.000; -980.000
372.835;   81.875; -228.000; -289.000
372.966;  -64.125; -646.000; -554.000
373.097;  -59.700; -575.000; -711.000
373.228;  -56.400; -717.000; -542.000
373.359;  119.825; -824.000; -536.000
373.490;  772.075; -881.000; -727.000
373.620; 1012.375;-1001.000; -803.000
373.751; 1529.000; -332.000; -396.000
373.882;  698.775; -663.000; -733.000
374.013;   53.225; -449.000; -262.000
374.143;  -48.825; -581.000; -659.000
374.274; -108.100; -987.000; -908.000
374.405;  146.700; -388.000; -276.000
374.536;  354.575; -526.000; -387.000
374.666;  935.525; -759.000; -807.000
374.797;  168.300; -817.000; -868.000
374.928;  729.475; -710.000; -560.000
375.058;  759.325; -535.000; -500.000
375.189;   79.875;  -59.000;  -93.000
375.320; -117.875; -928.000;-1034.000
375.450;  -33.700; -625.000; -616.000
375.581;  -66.100; -526.000; -436.000
375.712;  -38.600; -574.000; -250.000
375.842;  235.900; -438.000; -415.000
375.973;  176.875; -554.000; -513.000
376.103;  -63.875; -665.000; -648.000
376.234;  -86.425; -531.000; -552.000
376.364;  -61.175; -944.000; -867.000
376.495;  297.400;  925.000;  529.000
376.625;  -26.975; -472.000; -485.000
376.756;   37.975; -709.000; -678.000
376.886;  -94.900;-1178.000;-1026.000
377.017;   65.200;-1048.000;-1061.000
377.147;  391.475; -786.000; -782.000
377.278;   77.400;  174.000;  228.000
377.408; -136.900; -801.000; -815.000
377.538; -103.200; -707.000; -693.000
377.669;  -86.550; -537.000; -613.000
377.799;  -89.075; -645.000; -635.000
377.929;  -82.850; -610.000; -428.000
378.060; -129.650; -781.000; -847.000
378.190;  -68.600; -726.000; -531.000
378.320;  -39.300; -401.000; -406.000
378.451;  -23.875; -131.000;  -22.000
378.581;  -14.800;  -67.000; -110.000
378.711;  121.500; 1035.000;  866.000
378.841;  -32.750; -533.000; -675.000
378.972;  -96.125; -871.000; -751.000
379.102;   -8.900; -652.000; -579.000
379.232;  -26.400; -126.000;  -73.000
379.362; -118.450;-1001.000; -885.000
379.492;  -34.350; -373.000; -424.000
379.623;   88.875;    0.000;  111.000
379.753; -113.850;-1107.000; -974.000
379.883;  172.050;   59.000;  156.000
380.013;    0.650;-1081.000;-1017.000
380.143; -100.575;-1097.000;-1056.000
380.273; -114.400; -985.000; -861.000
380.403;   -1.300; -344.000; -257.000
380.533;  -42.200; -651.000; -664.000
380.663;   53.250;  173.000;  128.000
380.793; -113.650;-1027.000;-1074.000
380.923;  -30.025; -103.000;  -34.000
381.053;  -97.975; -613.000; -623.000
381.183;  -42.325; -106.000; -248.000
381.313;    3.275; -656.000; -470.000
381.443;   23.425; -692.000; -473.000
381.573;  139.200; -402.000; -409.000
381.703;  196.600;-1249.000;-1095.000
381.833; -150.275;-1454.000;-1336.000
381.963;   94.425; -134.000;  -87.000
382.093; 1252.950; -925.000; -909.000
382.223;  399.200; -713.000; -602.000
382.353;  -46.650; -801.000; -608.000
382.482;  298.400;-1091.000; -964.000
382.612;  647.250; -872.000; -644.000
382.742;  387.275; -695.000; -622.000
382.872;  198.925; -565.000; -551.000
383.002;   58.650;  347.000; -132.000
383.131;  -29.500; -226.000; -160.000
383.261;  -43.075; -706.000; -768.000
383.391;  292.275; -552.000; -377.000
383.521; 3473.825;  451.000;  263.000
383.650;  879.300; -947.000; -904.000
383.780;  -12.050; -783.000; -656.000
383.910;   94.025;  880.000;  802.000
384.039;    6.600; -794.000; -656.000
384.169;  142.700;-1205.000;-1017.000
384.299;  -31.575; -650.000; -662.000
384.428;  -95.775; -764.000; -680.000
384.558;  -40.850; -308.000; -275.000
384.687;  -54.500; -414.000; -334.000
384.817;   -0.800;   75.000;   -2.000
384.947;   10.250; -234.000; -141.000
385.076;  246.000;  982.000;  912.000
385.206;   79.525;  369.000;  480.000
385.335;  -43.775; -549.000; -417.000
385.465;  -93.750; -655.000; -663.000
385.594;  108.300;  -53.000;  -44.000
385.724;  335.875; -868.000; -838.000
385.853;   98.575; -296.000; -270.000
385.982; 1159.375; -743.000; -787.000
386.112; 1888.425;-1052.000; -871.000
386.241;  101.525; -307.000; -312.000
386.371;   16.700; -174.000;  -87.000
386.500;  -12.525; -825.000; -789.000
386.629;    8.100; -874.000; -817.000
386.759;   38.500;  -43.000;   68.000
386.888;   -8.175; -170.000; -250.000
387.017;  -91.750; -648.000; -620.000
387.147;  -91.675; -771.000; -798.000
387.276;  -38.225; -410.000; -397.000
387.405;   -0.375; -398.000; -342.000
387.535;  -71.225; -452.000; -361.000
387.664;  -47.100; -692.000; -620.000
387.793;   40.550; -198.000; -113.000
387.922;  420.425;  255.000;  200.000
388.052;    0.875; -576.000; -423.000
388.181;  -19.200; -342.000; -472.000
388.310;  -43.100; -889.000; -710.000
388.439;  -66.300; -749.000; -742.000
388.568;  142.250;  365.000;  244.000
388.697;  881.900; -756.000; -653.000
388.826;  171.025; -768.000; -666.000
388.956;   36.525; -285.000; -307.000
389.085;  -47.950; -347.000; -287.000
389.214; -104.250; -842.000; -872.000
389.343;  -81.800; -645.000; -413.000
389.472;  395.450;  126.000;  149.000
389.601;  518.850;   91.000;    0.000
389.730;   14.175; -568.000; -687.000
389.859;   52.800;  226.000;   46.000
389.988;  139.500; -423.000; -408.000
390.117;  109.150; -168.000; -146.000
390.246;  -14.650; -331.000; -320.000
390.375;   46.650; -673.000; -626.000
390.504;  -60.700; -703.000; -621.000
390.633; -115.425; -672.000; -726.000
390.761;  -70.875; -732.000; -645.000
390.890;   -7.875;   -4.000; -130.000
391.019;  -44.225; -421.000; -441.000
391.148; -134.675; -826.000; -855.000
391.277;  -68.200; -576.000; -493.000
391.406;  -93.800; -821.000; -805.000
391.534;    9.475;  574.000; -301.000
391.663;  -61.525; -583.000; -645.000
391.792;  -81.250; -673.000; -701.000
391.921;   75.050;   -3.000;   15.000
392.050;  152.850; -287.000; -228.000
392.178;  -66.725;-1206.000;-1061.000
392.307;  114.225; -758.000; -712.000
392.436;   34.600; -427.000; -641.000
392.564;   19.450;  166.000;   -6.000
392.693;  -95.750; -860.000; -682.000
392.822;  160.625; -529.000; -534.000
392.950;   64.875; -880.000; -714.000
393.079;  279.275; -188.000; -328.000
393.208;    1.800; -488.000; -511.000
393.336;  -21.325; -170.000; -145.000
393.465;  -53.925; -317.000; -199.000
393.593;   -7.900;   62.000;   79.000
393.722; -157.875;-1121.000; -916.000
393.850;  -34.675; -188.000;  -61.000
393.979; -141.350; -926.000; -805.000
394.107;  -58.500; -517.000; -537.000
394.236;  -32.325; -570.000; -507.000
394.364;  204.625;  383.000;  206.000
394.493;  304.875; -911.000; -767.000
394.621;   -9.775; -955.000; -916.000
394.750;  746.975; -873.000; -923.000
394.878; 3114.850; -247.000; -149.000
395.007; 4300.525; -721.000; -807.000
395.135;  340.850; -790.000; -721.000
395.263; -112.900;-1038.000;-1040.000
395.392;    0.900;  -25.000; -107.000
395.520; -144.925; -818.000; -679.000
395.648; -101.750; -865.000; -915.000
395.777;  -31.425; -366.000; -405.000
395.905;  -45.550; -449.000; -564.000
396.033;   10.125;  217.000;  172.000
396.162;  502.725; -399.000; -453.000
396.290;  457.250;  -17.000;   -2.000
396.418;   74.725; -555.000; -514.000
396.546;  -86.850; -571.000; -466.000
396.674; -102.325; -850.000; -878.000
396.803;   -9.200;  -72.000;  -23.000
396.931;   71.500; -179.000; -199.000
397.059;  -10.250;-1026.000; -989.000
397.187; -106.800;-1026.000; -975.000
397.315; -141.675; -884.000; -649.000
397.443;  -83.425; -592.000; -443.000
397.572; -104.200; -578.000; -424.000
397.700;  -30.050; -607.000; -614.000
397.828;   -2.000;  120.000;  -90.000
397.956;  -43.750; -508.000; -478.000
398.084;  -53.750; -767.000; -626.000
398.212;   38.650;  137.000;  124.000
398.340;    2.375;  -56.000;  159.000
398.468;   13.575; -390.000; -169.000
398.596; -153.775; -993.000; -953.000
398.724; -116.650; -762.000; -767.000
398.852; -171.125;-1024.000; -976.000
398.980;  -67.825; -560.000; -560.000
399.108;  -84.300; -982.000; -735.000
399.236;   33.325;   13.000;    8.000
399.363;    4.775;  222.000;  196.000
399.491;  -60.050; -404.000; -398.000
399.619; -121.025; -829.000; -800.000
399.747; -109.325; -859.000; -771.000
399.875;   53.775;  220.000;  234.000
400.003;  -45.975; -359.000; -284.000
400.130; -101.625; -421.000; -341.000
400.258;  -29.500;  -83.000;   38.000
400.386;  -71.300; -352.000; -168.000
400.514;  -43.300; -526.000; -587.000
400.641;  -99.225; -928.000; -802.000
400.769; -141.075; -979.000; -888.000
400.897; -133.650; -838.000; -793.000
401.025;  -21.825; -166.000; -152.000
401.152;   -9.225;  220.000;   38.000
401.280;  -77.950; -430.000; -429.000
401.408; -121.375; -712.000; -576.000
401.535;  -95.800; -735.000; -758.000
401.663; -198.700;-1134.000;-1054.000
401.790;  -84.875; -514.000; -525.000
401.918;   41.450;  436.000;  405.000
402.046;  -34.075;  134.000;  122.000
402.173;  -48.550;  -18.000;    7.000
402.301;  -66.125; -519.000; -397.000
402.428;   25.450;  528.000;  383.000
402.556; -141.925;-1188.000; -913.000
402.683;  -39.125;  -20.000;   -1.000
402.811;  -19.125;  -37.000; -206.000
402.938;  -27.050;   20.000;   27.000
403.066;  164.100; -574.000; -558.000
403.193;  292.575;  299.000;  239.000
403.321;  201.500; -396.000; -574.000
403.448;  265.625;   83.000;   27.000
403.575;  107.100;  -90.000;  -46.000
403.703; -105.550; -732.000; -557.000
403.830;  -66.975; -531.000; -496.000
403.957; -147.900;-1117.000;-1023.000
404.085;   12.975;  -61.000; -172.000
404.212;   83.400;  -50.000;   63.000
404.339;  302.000; -566.000; -306.000
404.467; 6057.750; -612.000; -524.000
404.594; 3993.425; -287.000; -227.000
404.721;  868.700; -869.000; -764.000
404.848;   87.750; -113.000; -202.000
404.976; -113.525; -856.000; -783.000
405.103;   -1.750;  -14.000;  -82.000
405.230;  -27.175;  190.000;  226.000
405.357;   12.550;  117.000;   44.000
405.484;  277.000;  -49.000;    5.000
405.612;   57.050; -548.000; -563.000
405.739;  -59.975; -488.000; -243.000
405.866;   83.550;  669.000;  385.000
405.993;  -46.250; -398.000; -102.000
406.120; -131.675; -801.000; -887.000
406.247;  -81.375; -323.000; -342.000
406.374;  352.000;  540.000;  629.000
406.501;   59.300; -632.000; -702.000
406.628;  -78.875; -621.000; -589.000
406.755; -116.500; -803.000; -620.000
406.882;  -41.900; -228.000; -277.000
407.009; -101.175; -719.000; -628.000
407.136;   23.825; -480.000; -401.000
407.263;   85.225; -939.000; -829.000
407.390;  -77.250; -692.000; -614.000
407.517; -177.950;-1139.000;-1187.000
407.644;  -71.525; -332.000; -256.000
407.771;  -80.000; -249.000; -287.000
407.898;   12.875;  168.000;  328.000
408.025;  -65.925; -421.000; -313.000
408.151;   -7.850;   82.000;  153.000
408.278;  -77.000; -267.000; -216.000
408.405; -118.450; -931.000; -899.000
408.532;  -74.575; -549.000; -542.000
408.659; -110.425; -677.000; -648.000
408.785; -207.750;-1298.000;-1170.000
408.912;  -67.675; -412.000; -296.000
409.039; -126.775; -610.000; -686.000
409.166;  -94.375; -591.000; -555.000
409.292; -120.425; -571.000; -534.000
409.419; -117.625; -665.000; -649.000
409.546;  -80.000; -431.000; -192.000
409.672;  -99.375; -713.000; -545.000
409.799;  -17.950;  -36.000;   34.000
409.926;  -45.900; -180.000; -179.000
410.052; -185.125;-1127.000;-1091.000
410.179;  -53.850; -368.000; -392.000
410.305; -104.825; -375.000; -493.000
410.432;  -46.225; -220.000; -333.000
410.558; -107.900; -305.000; -380.000
410.685; -100.550; -688.000; -431.000
410.812; -104.000; -409.000; -588.000
410.938; -145.175; -964.000; -808.000
411.065;  -87.375; -671.000; -645.000
411.191;  -17.500; -189.000; -174.000
411.317; -129.425; -823.000; -742.000
411.444;  -43.200; -317.000; -246.000
411.570;  -75.300; -339.000; -294.000
411.697; -123.025; -758.000; -752.000
411.823; -179.300; -989.000; -999.000
411.949;  -34.300;  -56.000;   17.000
412.076; -114.100; -539.000; -519.000
412.202; -121.025; -758.000; -757.000
412.329; -136.075; -798.000; -752.000
412.455; -116.125; -821.000; -657.000
412.581;  -26.725;  -15.000;  172.000
412.707;  -67.025; -540.000; -457.000
412.834;   10.200;  156.000;  219.000
412.960;  -84.075; -785.000; -784.000
413.086; -109.725; -743.000; -701.000
413.212;  127.025;  604.000;  578.000
413.339;  -73.800; -685.000; -701.000
413.465;  -11.600; -364.000; -310.000
413.591;  -94.225; -757.000; -474.000
413.717;  -52.600; -358.000; -366.000
413.843; -147.475; -839.000; -861.000
413.969;  -61.675;  -47.000; -292.000
414.096; -110.500; -679.000; -679.000
414.222;    0.500;  -33.000;   85.000
414.348;  -33.750; -652.000; -385.000
414.474;   79.325;   38.000;  -52.000
414.600;  -12.350; -126.000; -144.000
414.726;  -14.275;  -96.000;  -55.000
414.852;  -66.275; -365.000; -342.000
414.978;   39.450;  104.000;  -18.000
415.104;   38.825;   38.000;   80.000
415.230;   29.900; -329.000; -330.000
415.356;   29.350; -409.000; -514.000
415.482;  200.875;   13.000;  -35.000
415.608;  272.725; -247.000; -323.000
415.734;  992.875;   67.000;   38.000
415.860;20434.600; -875.000; -767.000
415.986;15787.200; -685.000; -607.000
416.111; 1392.275; -798.000; -652.000
416.237;  275.700; -424.000; -571.000
416.363; 1158.450; -765.000; -733.000
416.489; 4568.425; -324.000; -251.000
416.615;  545.875; -707.000; -742.000
416.741;   -2.225; -677.000; -784.000
416.866;  -89.050; -673.000; -736.000
416.992; -122.600; -801.000; -818.000
417.118;  -43.525;  -41.000;  -80.000
417.244;  -63.550; -798.000; -531.000
417.369;  -78.300; -801.000; -612.000
417.495;  -10.350; -325.000; -254.000
417.621;  -88.350;-1015.000; -803.000
417.746;    1.525; -579.000; -572.000
417.872;   44.700; -254.000; -144.000
417.998;   56.050; -515.000; -530.000
418.123; 1069.800;-1073.000; -845.000
418.249; 5772.875; -512.000; -601.000
418.374;  880.225; -916.000; -824.000
418.500;  129.400; -383.000; -482.000
418.626;  126.875;   70.000;  -59.000
418.751;  124.300; -549.000; -448.000
418.877;  188.000; -637.000; -643.000
419.002; 1843.975; -688.000; -560.000
419.128;13456.900; -930.000; -721.000
419.253; 3558.525; -967.000; -837.000
419.379;  460.325; -391.000; -338.000
419.504;  416.750;  325.000;  415.000
419.629;  547.025; -393.000; -212.000
419.755; 3697.100; -317.000; -254.000
419.880;23041.550;  -98.000;   67.000
420.006;12186.075; -280.000; -221.000
420.131;31584.550; -662.000; -775.000
420.256; 4779.150; -315.000; -316.000
420.382;  623.500; -665.000; -687.000
420.507;   74.600; -649.000; -778.000
420.632;  105.700; -337.000; -339.000
420.758;  204.175; -251.000; -425.000
420.883;  -87.975; -876.000; -672.000
421.008;  -96.400; -775.000; -619.000
421.133;  -76.725; -509.000; -467.000
421.259;  -54.075; -325.000; -259.000
421.384; -122.200; -834.000; -693.000
421.509;  -76.750;-1052.000; -862.000
421.634;  849.150; -936.000; -820.000
421.759;  410.275; -359.000; -327.000
421.885;  -66.500; -717.000; -656.000
422.010;  -77.800; -673.000; -542.000
422.135; -150.300; -695.000; -727.000
422.260;   44.875;  340.000;  280.000
422.385;  -50.050;   12.000;  -98.000
422.510;    3.150;  151.000;  -26.000
422.635;    0.600;  -87.000;  -43.000
422.760;   91.675; -766.000; -791.000
422.885;   57.650;  -57.000;  -80.000
423.010;  -26.425; -112.000; -169.000
423.135;  -98.775; -481.000; -561.000
423.260;  -26.425; -150.000; -245.000
423.385;   54.850;  476.000;  222.000
423.510;   38.500;   71.000;  -22.000
423.635;   57.825;  133.000;   45.000
423.760;   52.575;  383.000;  328.000
423.885;   53.400;  336.000;  391.000
424.010;   17.375;  -68.000;  -13.000
424.135;  -32.700;    5.000;  -33.000
424.259;  -85.700; -654.000; -457.000
424.384;  -68.075; -279.000; -272.000
424.509;  -21.200; -260.000; -186.000
424.634; -100.300; -761.000; -623.000
424.759;  -30.975; -688.000; -544.000
424.883;  -15.525; -506.000; -527.000
425.008;  164.050; -502.000; -410.000
425.133; 2088.850; -679.000; -653.000
425.258; 1064.875; -517.000; -381.000
425.382;  893.125; -867.000; -774.000
425.507; 2406.300; -487.000; -543.000
425.632;  437.350; -802.000; -663.000
425.756;  498.700; -256.000; -146.000
425.881; 6928.300; -831.000; -857.000
426.006;19913.350; -604.000; -355.000
426.130; 3248.475; -696.000; -508.000
426.255;  418.450; -611.000; -491.000
426.379;  183.700; -189.000; -577.000
426.504;  385.400;  660.000;  544.000
426.629; 4150.450; -519.000; -466.000
426.753; 3045.125;   64.000;  -46.000
426.878;  355.375; -252.000; -288.000
427.002;  201.925; -651.000; -668.000
427.127; 1603.800;  -35.000; -158.000
427.251;12154.425;  372.000;  401.000
427.375; 3684.700; -191.000; -173.000
427.500; 2102.925; -616.000; -610.000
427.624;  743.075; -234.000; -400.000
427.749;   78.025; -216.000; -225.000
427.873;  -45.225; -499.000; -412.000
427.997;  -41.675; -222.000; -230.000
428.122;   57.225;  795.000;  703.000
428.246;   71.825;  433.000;  434.000
428.371; -135.525; -869.000; -773.000
428.495; -100.900; -624.000; -646.000
428.619;  -48.800; -186.000; -117.000
428.743;   13.825;   65.000;  132.000
428.868;   -9.375; -732.000; -643.000
428.992; 1227.725; -219.000; -326.000
429.116;  493.150; -329.000; -357.000
429.240;  240.300;  419.000;  426.000
429.365;  -24.700; -454.000; -574.000
429.489;  -50.200; -638.000; -647.000
429.613;   18.675; -236.000; -177.000
429.737;   18.850; -563.000; -432.000
429.861;  264.625; -247.000; -133.000
429.985; 5755.075; -425.000; -305.000
430.109; 6729.625; -770.000; -908.000
430.234;  802.850;   76.000;  -50.000
430.358;   66.450; -250.000; -160.000
430.482;  -53.300; -672.000; -564.000
430.606;  -76.500; -655.000; -375.000
430.730;  -14.375; -437.000; -388.000
430.854;   59.700; -909.000; -835.000
430.978;  -71.325; -795.000; -764.000
431.102; -103.650; -499.000; -422.000
431.226; -131.900; -874.000; -815.000
431.350;   11.875;  345.000;  422.000
431.474;  -71.175; -661.000; -373.000
431.597; -152.025;-1060.000; -848.000
431.721;  -82.050; -276.000; -267.000
431.845; -140.275; -704.000; -472.000
431.969;  -73.250; -304.000; -349.000
432.093;  -90.675; -395.000; -317.000
432.217;  -20.775;   32.000;   82.000
432.341;  -98.375; -523.000; -518.000
432.464;    3.675;   96.000;   40.000
432.588;  126.875; -401.000; -329.000
432.712;   72.475;  -52.000;  -52.000
432.836;   41.775;  213.000;  263.000
432.959;  -11.550; -372.000; -311.000
433.083;   86.175;   11.000;    2.000
433.207;  395.450;  285.000;  930.000
433.330; 5261.700; -391.000; -200.000
433.454; 6842.900; -654.000; -638.000
433.578; 3883.550;  583.000;  278.000
433.701;  764.400; -623.000; -675.000
433.825;  124.425; -292.000; -299.000
433.949;  119.725;   28.000;  -72.000
434.072;   16.750; -410.000; -323.000
434.196;  -25.100; -309.000; -117.000
434.319; 3606.525;25482.000;25124.000
434.443;  693.300; -656.000; -603.000
434.566; 2838.700;  281.000;   62.000
434.690;  527.100; -637.000; -383.000
434.813;   55.025; -251.000; -173.000
434.937;  -86.875; -569.000; -696.000
435.060;  -69.375; -423.000; -332.000
435.184;  192.025; -492.000; -217.000
435.307;  109.900;  159.000;  102.000
435.431;  -37.375;  -40.000;   24.000
435.554;  -82.500; -399.000; -240.000
435.677;  -88.100; -350.000; -258.000
435.801;  -53.200;  -25.000;   49.000
435.924;  -10.200;    1.000;  -67.000
436.048; -141.850;-1019.000; -732.000
436.171;  -61.600; -240.000;  -66.000
436.294;  -23.150; -248.000; -229.000
436.417;  109.775; -963.000; -849.000
436.541;  -66.025; -814.000; -840.000
436.664;  -55.250; -242.000; -316.000
436.787;  -38.250;   13.000;  113.000
436.910; -109.700; -792.000; -422.000
437.034;   -9.900;  142.000;  143.000
437.157;   35.925;  -11.000;    0.000
437.280;  -64.750; -392.000; -292.000
437.403;  -97.300; -982.000; -869.000
437.526;  395.725; -903.000; -865.000
437.649; 1745.000; -505.000; -332.000
437.772;  254.425; -692.000; -540.000
437.896;  113.125;  700.000;  544.000
438.019;  -96.225; -758.000; -503.000
438.142;  -90.125; -596.000; -506.000
438.265;  -42.425; -639.000; -670.000
438.388;  431.025; -520.000; -410.000
438.511;   66.875; -597.000; -394.000
438.634;  -53.075; -247.000; -125.000
438.757; -137.550; -693.000; -619.000
438.880;  -23.175;  -34.000;  -57.000
439.003;  -80.650; -417.000; -437.000
439.126;  -70.900; -287.000; -167.000
439.248;  -66.625;  -98.000; -139.000
439.371;  -37.325;    9.000;  -53.000
439.494;   12.025;  510.000;  439.000
439.617;  -57.800;   65.000;  -88.000
439.740; -172.650; -968.000; -816.000
439.863; -134.700; -755.000; -595.000
439.986; -120.050; -476.000; -431.000
440.108;  -48.425; -161.000; -112.000
440.231; -161.600; -950.000; -836.000
440.354;  -50.525;  -64.000; -150.000
440.477;  -22.975; -566.000; -542.000
440.599;  -21.075; -200.000; -225.000
440.722; -128.075; -709.000; -586.000
440.845;   70.975;  751.000;  928.000
440.968; -110.000; -415.000; -311.000
441.090;  -64.525; -199.000;  -33.000
441.213; -167.550;-1021.000; -825.000
441.336;  -49.675; -159.000;   -5.000
441.458;  -92.775; -549.000; -396.000
441.581;  -90.775; -628.000; -629.000
441.703;  -77.825; -152.000;   13.000
441.826; -109.575; -557.000; -400.000
441.948;  -58.050;   56.000;   51.000
442.071;   30.050;  555.000;  424.000
442.193; -127.475; -531.000; -485.000
442.316;   11.100;  152.000;   97.000
442.438;   21.475; -233.000;  -10.000
442.561;   67.550;  272.000;  262.000
442.683;  356.850; -809.000; -522.000
442.806;  910.550;   -8.000;   74.000
442.928;  -13.500; -859.000; -604.000
443.051;  -66.650; -577.000; -373.000
443.173;  -94.400; -341.000; -339.000
443.295;  -77.000; -263.000; -371.000
443.418;  -79.150; -321.000;  -29.000
443.540;  -21.925; -106.000;   -4.000
443.662; -132.525; -563.000; -465.000
443.785;   -8.525;  335.000;  199.000
443.907; -103.225; -362.000; -208.000
444.029; -121.950; -767.000; -494.000
444.152; -145.100; -644.000; -554.000
444.274;  -23.100;  -18.000;  -24.000
444.396; -122.700; -461.000; -221.000
444.518; -127.225; -691.000; -454.000
444.640; -112.225; -268.000; -111.000
444.763;   -4.700;  388.000;  249.000
444.885; -123.350; -432.000; -392.000
445.007;  -29.225;   35.000;   86.000
445.129; -125.625; -610.000; -515.000
445.251;  -94.700; -372.000; -439.000
445.373; -147.000; -537.000; -386.000
445.495;    9.750;  242.000;  350.000
445.617;   42.050;  853.000;  753.000
445.739;  -56.975; -215.000;  -97.000
445.861;  -41.000; -245.000; -112.000
445.984;  -44.025; -267.000; -101.000
446.105;  125.900; -418.000; -251.000
446.227;  476.750; -176.000;  -19.000
446.349;   -9.275; -358.000; -249.000
446.471; -116.750; -615.000; -448.000
446.593;  -82.350; -316.000;   19.000
446.715;   -3.750;  -67.000;   41.000
446.837;   39.075;  697.000;  832.000
446.959; -107.300; -457.000; -478.000
447.081; -138.450; -628.000; -518.000
447.203;   50.850;  862.000;  834.000
447.325;  -78.175; -270.000;   42.000
447.446;  -11.025;  286.000;  530.000
447.568; -161.175; -921.000; -803.000
447.690;  -70.875; -236.000; -245.000
447.812; -154.625; -798.000; -519.000
447.933;  -32.225;  155.000;  127.000
448.055;  -76.825; -306.000; -261.000
448.177;  106.400;   31.000;   79.000
448.299;   48.750; -935.000; -727.000
448.420;    8.650;  -25.000;  159.000
448.542;  -52.350;   -3.000;   33.000
448.664;  -25.350;  109.000;  322.000
448.785;  -45.775;  265.000;   83.000
448.907;  -82.775; -614.000; -353.000
449.028;  -61.500; -771.000; -471.000
449.150;   65.475;  492.000;  589.000
449.272; -171.850;-1044.000; -913.000
449.393;   26.250;  612.000;  694.000
449.515; -160.725; -634.000; -581.000
449.636;  -53.525; -264.000; -155.000
449.758;   59.900;  763.000;  622.000
449.879;  -86.050; -498.000; -396.000
450.001;  -86.025; -149.000;  -49.000
450.122;  -20.450;  -95.000;  162.000
450.244;  -18.225;   37.000;  364.000
450.365;  -73.625; -495.000; -301.000
450.486;  -39.000;   80.000;  268.000
450.608;   30.625;  393.000;  326.000
450.729;   60.200;  578.000;  645.000
450.850;   31.050; -574.000; -466.000
450.972;  793.725; -552.000; -389.000
451.093; 5299.100;  190.000;  588.000
451.214; 2467.600; -516.000; -337.000
451.336;  405.125;  773.000;  579.000
451.457;   67.775;  264.000;  393.000
451.578;  -36.900; -118.000;  -74.000
451.699; -122.300; -546.000; -540.000
451.821;  -68.475; -284.000;  -50.000
451.942;  -11.025;  278.000;  285.000
452.063;   38.625;  228.000;  419.000
452.184;  555.700;  -54.000;  -49.000
452.305; 1206.000;  103.000;  170.000
452.427;  160.800; -549.000; -301.000
452.548;   -2.650;   23.000;   79.000
452.669;  -57.250; -257.000;  -89.000
452.790;  -37.525;    3.000;  -18.000
452.911;  -14.125;  195.000;  259.000
453.032;  -71.325; -289.000;  -60.000
453.153;  -60.700;  -29.000;   81.000
453.274;   61.875;  737.000;  868.000
453.395;  -51.225;  -51.000;  175.000
453.516;  114.525; 1317.000; 1388.000
453.637;  -84.950; -205.000; -150.000
453.758;  -48.375;   15.000;   69.000
453.879; -133.950; -462.000; -250.000
454.000;   72.675; 1086.000;  948.000
454.121; -116.375; -554.000; -326.000
454.242; -129.825; -599.000; -383.000
454.362;  -56.825;  -99.000;  114.000
454.483;  -49.625; -309.000; -229.000
454.604;   39.475;  512.000;  580.000
454.725; -116.150; -627.000; -555.000
454.846; -124.175; -474.000; -406.000
454.967;  -19.900;  230.000;  539.000
455.087;  -53.425;  179.000;  153.000
455.208;   -5.825;  554.000;  856.000
455.329;  -64.450;  -22.000;   82.000
455.450;   48.300;  473.000;  633.000
455.570;  -78.175; -234.000; -211.000
455.691;  -25.150;  201.000;  407.000
455.812; -112.975; -270.000;  -92.000
455.932;  -52.975;  107.000;  -97.000
456.053;  -94.750;   36.000;   24.000
456.173;  -91.100; -433.000; -355.000
456.294; -136.525; -476.000; -303.000
456.415;  -60.525;  -73.000;   70.000
456.535;  -41.925;  297.000;  273.000
456.656;  -40.450;  132.000;  240.000
456.776;  -80.450;    3.000;  298.000
456.897;   -7.350;  308.000;  513.000
457.017;  -79.500; -153.000;   -3.000
457.138; -110.775; -402.000; -249.000
457.258;  -36.050;  263.000;  224.000
457.379;  -10.850;  509.000;  521.000
457.499;  -31.400;  443.000;  432.000
457.620; -123.750; -407.000; -231.000
457.740; -106.925; -132.000;  -11.000
457.860;  -52.125;   87.000;   44.000
457.981;  -47.100;  132.000;  124.000
458.101;  -65.100;  -89.000;   40.000
458.221;  -16.100;  336.000;  402.000
458.342;  -52.875;   -4.000;  -37.000
458.462;   21.775;  617.000;  352.000
458.582;  -32.875; -302.000; -294.000
458.703;    4.850;  303.000;  154.000
458.823;  -15.250;   22.000;  163.000
458.943;   24.000;  341.000;  467.000
459.063;  -16.000; 1124.000;  192.000
459.183;  -16.225;  328.000;  313.000
459.304;    6.850;  315.000;  517.000
459.424;  -62.075; -246.000;  -89.000
459.544;  334.750;  388.000;  764.000
459.664;  889.650;  499.000;  506.000
459.784;  350.450; 1004.000; 1175.000
459.904;   60.150;  867.000;  744.000
460.024;   61.475;  867.000;  684.000
460.144;    3.675;  449.000;  554.000
460.264;   -5.025;  515.000;  327.000
460.385;  -92.575; -145.000; -119.000
460.505;   23.150;  905.000;  858.000
460.625;  -88.150;  -17.000;  -68.000
460.745;  -25.950;  396.000;  541.000
460.864;  -60.625;  153.000;  469.000
460.984;   10.650;  499.000;  573.000
461.104;  132.425; 1656.000; 1775.000
461.224;   27.750;  657.000;  650.000
461.344;  -37.625;  431.000;  360.000
461.464;  -28.900;  258.000;  513.000
461.584;  -16.675;  283.000;  466.000
461.704;  -38.675;   58.000;  108.000
461.824;  -64.575;  238.000;  259.000
461.943;  -40.925;  191.000;  130.000
462.063;  -85.125;    2.000;  324.000
462.183;   38.800;  639.000;  717.000
462.303;   93.350; 1678.000; 1230.000
462.422;   33.750;  781.000;  840.000
462.542;  -39.550;  271.000;  391.000
462.662;   38.900;  353.000;  380.000
462.782;  254.575;  833.000;  572.000
462.901;  520.550;  545.000;  717.000
463.021;  302.200; 1702.000; 1638.000
463.141;   -0.150;  337.000;  770.000
463.260;  -29.025;  614.000;  474.000
463.380;   16.650;  902.000;  884.000
463.499;  -49.975;  342.000;  332.000
463.619;  -34.475;  581.000;  559.000
463.738;   82.875; 1644.000;  903.000
463.858;   18.850;  657.000;  811.000
463.978;  -31.275;  542.000;  396.000
464.097;   48.700;  921.000; 1114.000
464.217;  113.775; 1196.000; 1143.000
464.336;  133.525; 1068.000; 1130.000
464.455;  -38.225;  328.000;  659.000
464.575;   44.875;  597.000;  602.000
464.694;  127.250; 1204.000; 1179.000
464.814;  121.850; 1190.000; 1138.000
464.933;   80.725; 1095.000; 1027.000
465.052;   95.300; 1412.000; 1054.000
465.172;   62.300;  922.000;  799.000
465.291;  125.475; 1376.000; 1320.000
465.410;   -6.275;  462.000;  735.000
465.530;   74.725; 1355.000; 1310.000
465.649;   52.400; 1209.000; 1273.000
465.768;  127.700; 1673.000; 1508.000
465.888;   45.575;  941.000; 1174.000
466.007;  115.375; 1335.000; 1440.000
466.126;   -9.375;  721.000;  641.000
466.245;   42.475; 1176.000; 1187.000
466.364;   20.475;  950.000; 1060.000
466.484;   58.100; 1024.000; 1213.000
466.603;   29.600; 1101.000; 1222.000
466.722;  120.250; 1490.000; 1769.000
466.841;   63.975; 1151.000; 1401.000
466.960;   46.475; 1069.000;  972.000
467.079;  116.175; 1971.000; 1786.000
467.198;   51.375; 1238.000; 1181.000
467.317;   66.925; 1768.000; 1162.000
467.436;   87.950; 1709.000; 1261.000
467.555;  132.350; 1796.000; 1746.000
467.674;   58.875; 1227.000; 1329.000
467.793;   35.850; 1376.000; 1374.000
467.912;   87.025; 1658.000; 1539.000
468.031;  130.325; 2038.000; 1930.000
468.150;  153.750; 1842.000; 1837.000
468.269;  184.525; 2313.000; 2090.000
468.388;  191.500; 2168.000; 2339.000
468.507;  255.900; 2884.000; 2903.000
468.626;  269.050; 2555.000; 2541.000
468.744;  145.925; 2018.000; 2174.000
468.863;  195.725; 2312.000; 2523.000
468.982;   84.900; 1503.000; 1555.000
469.101;  227.200; 2788.000; 2692.000
469.220;  152.675; 2333.000; 2176.000
469.338;  242.500; 2935.000; 3051.000
469.457;  188.575; 2719.000; 2545.000
469.576;  339.450; 3953.000; 3784.000
469.695;  240.025; 2877.000; 3066.000
469.813;  423.075; 4148.000; 4192.000
469.932;  418.700; 4255.000; 4485.000
470.051;  420.300; 4075.000; 4161.000
470.169;  856.125; 4470.000; 4338.000
470.288; 1529.975; 4700.000; 4809.000
470.406;  942.000; 5059.000; 5194.000
470.525;  653.600; 6101.000; 5787.000
470.644;  625.600; 6847.000; 6794.000
470.762;  825.325; 8397.000; 7873.000
470.881;  881.100; 8651.000; 8464.000
470.999; 1054.150; 9685.000; 9151.000
471.118; 1119.200;11174.000;10711.000

