
Integration time [ms]: 100.000
Averaging Nr. [scans]: 40
Smoothing Nr. [pixels]: 0
Data measured with spectrometer [name]: 2101012U2
Wave   ;Sample   ;Dark     ;Reference
[nm]   ;[counts] ;[counts] ;[counts] 

197.733;   61.500;  516.000;  404.000
197.879;  -99.250; -610.000; -634.000
198.025;  -36.200; -475.000; -420.000
198.171;  -81.825; -602.000; -612.000
198.317;  -24.525; -401.000; -316.000
198.463;  -59.125; -655.000; -404.000
198.609;   29.025;  181.000; -137.000
198.755;  -85.675; -644.000; -410.000
198.901;  -67.325; -505.000; -424.000
199.047;  -72.750; -615.000; -488.000
199.193;  -46.500; -230.000; -468.000
199.339;  -41.850; -222.000; -369.000
199.485;   32.625;  330.000;  271.000
199.631;    6.000;  227.000;  310.000
199.777;  -47.475; -466.000; -398.000
199.923;  -75.075; -610.000; -424.000
200.069;    9.475; -141.000;  -58.000
200.215;   56.025;  128.000;  453.000
200.361;   55.125;  243.000;  477.000
200.507;  -75.250; -600.000; -373.000
200.653;  -17.825; -371.000; -194.000
200.798;  -34.825; -215.000; -125.000
200.944;    0.975; -146.000;  -41.000
201.090;   38.850;   61.000;  222.000
201.236;    1.550; -116.000; -158.000
201.382;  135.250;  874.000;  903.000
201.528;   -1.525;  -58.000;  -48.000
201.674;  -63.300; -386.000; -293.000
201.819;  -60.900; -540.000; -439.000
201.965;  -87.125; -699.000; -447.000
202.111;  -24.100; -273.000; -226.000
202.257;  -37.700; -250.000; -238.000
202.402;   15.525;   13.000;  -36.000
202.548;  -28.600; -169.000; -116.000
202.694;   72.675;  410.000; -183.000
202.840;  -92.125; -603.000; -531.000
202.985;  -73.625; -681.000; -639.000
203.131; -105.425; -832.000; -666.000
203.277;  -14.175; -199.000; -262.000
203.423;  -57.975; -434.000; -520.000
203.568;  -37.350; -462.000; -237.000
203.714;  -66.900; -535.000; -542.000
203.860;  -81.250; -682.000; -641.000
204.005;   20.425;  112.000;  167.000
204.151;   86.475;  561.000;  556.000
204.296;  -55.000; -354.000; -221.000
204.442;  -71.125; -600.000; -547.000
204.588;  -70.300; -592.000; -579.000
204.733;   13.725;  178.000;  168.000
204.879; -126.425;-1018.000; -822.000
205.025;   12.350;  -99.000;  126.000
205.170;   -5.675;  -17.000;   94.000
205.316;   89.650;  438.000;  661.000
205.461;  -84.525; -698.000; -554.000
205.607;   95.400;  609.000;  665.000
205.752;  -83.825; -626.000; -551.000
205.898;  -53.175; -501.000; -391.000
206.043;  -68.025; -578.000; -506.000
206.189;  -40.025; -243.000; -285.000
206.334;   80.875;  554.000;  606.000
206.480;   96.050;  409.000;  239.000
206.625;  -82.875; -529.000; -552.000
206.771;  -42.125; -451.000; -373.000
206.916;  -44.550; -210.000; -537.000
207.062;  -74.425; -545.000; -591.000
207.207;  -69.300; -546.000; -443.000
207.353;   59.675;  185.000;  460.000
207.498;    8.725;  196.000;   85.000
207.643;  -61.050; -501.000; -370.000
207.789; -127.450;-1069.000; -910.000
207.934;  -93.975; -665.000; -713.000
208.080;  -36.525; -154.000;   66.000
208.225;    4.800;  -22.000;  -57.000
208.370;  -98.475; -727.000; -619.000
208.516;  -78.075; -741.000; -487.000
208.661;  -35.350; -127.000;  -69.000
208.806;  -27.825; -165.000; -171.000
208.952; -122.800;-1044.000; -731.000
209.097;   81.650;  378.000;  349.000
209.242;  -50.850; -307.000; -382.000
209.387;   77.000;  392.000;  350.000
209.533;  -61.375; -321.000; -350.000
209.678;   79.825;  472.000;  543.000
209.823;  -62.425; -408.000; -310.000
209.969;  -98.350; -860.000; -757.000
210.114; -113.775; -907.000; -719.000
210.259; -108.400; -939.000; -889.000
210.404;   -8.600; -171.000;  103.000
210.549;    6.025;  108.000;    3.000
210.695;  -10.675;   -3.000;  -95.000
210.840;   25.250;   94.000;   67.000
210.985;  -63.000; -484.000; -303.000
211.130;   66.300;  268.000;  406.000
211.275;   15.600;  207.000;  199.000
211.420;  -41.000; -300.000; -289.000
211.566;  -80.975; -536.000; -489.000
211.711;   14.050;  218.000;  157.000
211.856;  -76.425; -545.000; -519.000
212.001;    6.800;  151.000;   44.000
212.146;   21.850;  153.000;   49.000
212.291;  -19.850; -210.000; -186.000
212.436;  -30.000; -280.000;   -6.000
212.581;  -77.950; -685.000; -653.000
212.726;  -88.350; -487.000; -538.000
212.871;  -49.075; -552.000; -217.000
213.016; -145.600;-1172.000;-1029.000
213.161;   63.975;  406.000;  291.000
213.306;  -91.025; -435.000; -577.000
213.451;  -80.725; -778.000; -689.000
213.596;  -52.775; -455.000; -347.000
213.741;  -52.950; -448.000; -538.000
213.886;  -80.900; -498.000; -517.000
214.031;  -19.600; -294.000; -124.000
214.176;  -56.050; -408.000; -341.000
214.321;  -12.175; -296.000; -157.000
214.466;  -28.325; -163.000;  -43.000
214.611;   -3.000;  -61.000;  -10.000
214.756; -125.150; -948.000; -858.000
214.901;  -18.450; -388.000; -226.000
215.046; -120.300; -797.000; -825.000
215.191;   13.325;  128.000;   35.000
215.336;  -26.825; -157.000;  -19.000
215.480;  -65.075; -684.000; -505.000
215.625;  -17.075; -175.000;  -19.000
215.770;  -80.150; -757.000; -662.000
215.915;  -10.825;   -5.000;  -97.000
216.060;   -7.275; -113.000;  -21.000
216.205; -113.925; -731.000; -779.000
216.349;  -80.625; -470.000; -533.000
216.494; -140.075; -939.000; -867.000
216.639; -112.525; -823.000; -888.000
216.784;  -84.175; -577.000; -525.000
216.929;   62.775;  392.000;  281.000
217.073;   -8.700; -244.000;  -31.000
217.218;   13.275;   78.000;  -47.000
217.363;  -97.425; -656.000; -618.000
217.507;  -89.125; -623.000; -588.000
217.652; -121.000; -845.000; -874.000
217.797;  -83.550; -708.000; -659.000
217.942; -119.450; -856.000; -720.000
218.086;   77.225;  608.000;  539.000
218.231;  -18.825; -174.000;  -26.000
218.376;  -26.375; -337.000; -229.000
218.520;   -9.000;  -41.000;   96.000
218.665;  -29.775; -338.000; -204.000
218.810;  -48.425; -275.000; -233.000
218.954;   13.775;  201.000;   35.000
219.099; -113.125; -713.000; -963.000
219.243;  -69.750; -589.000; -554.000
219.388;  -27.850; -264.000; -136.000
219.532;   -2.850; -116.000; -116.000
219.677;  -87.475; -564.000; -521.000
219.822;   15.700;   33.000;   89.000
219.966;   -5.275;   17.000;  -99.000
220.111;  -25.400; -328.000;  -40.000
220.255; -106.900; -797.000; -750.000
220.400;  -22.000; -180.000; -146.000
220.544;  -69.825; -516.000; -450.000
220.689;  -51.825; -422.000; -451.000
220.833;  -31.500; -123.000;  -58.000
220.978;  -36.325; -393.000; -563.000
221.122;    8.900;  319.000;  307.000
221.267; -114.375; -906.000; -837.000
221.411;  -67.600; -478.000; -394.000
221.555;   -2.925; -104.000;  -23.000
221.700;  -47.800; -329.000; -222.000
221.844;   53.250;  255.000;  272.000
221.989;  -51.925; -328.000; -311.000
222.133;  -27.375; -289.000; -307.000
222.277;  -34.875;    5.000;   78.000
222.422;    8.575;  227.000;  113.000
222.566;  -37.250; -381.000; -214.000
222.711;  -51.025; -414.000; -479.000
222.855;  -84.050; -643.000; -586.000
222.999;  -78.950; -642.000; -717.000
223.144;  -39.700; -195.000; -194.000
223.288;   52.375;  423.000;  251.000
223.432;   18.575;  184.000;  230.000
223.576;   26.375;  152.000;  -21.000
223.721;   27.500;  364.000;  273.000
223.865;  -47.975; -472.000; -475.000
224.009;  209.575; 1673.000; 1631.000
224.153;  -82.800; -660.000; -671.000
224.298;  -82.500; -531.000; -489.000
224.442;   -9.075;  -74.000;  -33.000
224.586;  -24.700; -169.000; -106.000
224.730;  -86.625; -858.000; -670.000
224.875; -118.550; -739.000; -688.000
225.019;   20.200;  102.000;  188.000
225.163;   40.375;  208.000;  341.000
225.307;   13.875;   97.000;  -91.000
225.451;   46.100;  360.000;  481.000
225.595;   31.800;  264.000;  176.000
225.739;   -8.550; -170.000;  -94.000
225.884;   10.400;   86.000;    5.000
226.028; -100.850; -760.000; -626.000
226.172;  -34.300; -260.000; -273.000
226.316; -125.700; -941.000; -902.000
226.460;  -57.275; -645.000; -493.000
226.604;  -57.050; -406.000; -400.000
226.748;  -95.225; -836.000; -733.000
226.892;  -36.500; -227.000; -181.000
227.036;  -49.750; -537.000; -447.000
227.180;  -67.125; -551.000; -375.000
227.324;  -66.250; -561.000; -580.000
227.468; -120.250; -819.000; -717.000
227.612;   16.800;  242.000;  -28.000
227.756; -109.725; -845.000; -698.000
227.900;   49.875;  342.000;  441.000
228.044;  -55.750; -509.000; -290.000
228.188;   62.250;  448.000;  568.000
228.332;  -82.425; -546.000; -472.000
228.476;  -25.675; -223.000; -149.000
228.620;  -39.525; -210.000; -150.000
228.764;   66.775;  431.000;  349.000
228.908;  -11.600; -155.000;   30.000
229.052;  -67.750; -615.000; -528.000
229.195;  -22.925; -172.000;   13.000
229.339;  -31.050; -235.000; -305.000
229.483;  -33.375;    5.000; -162.000
229.627;   -9.475; -156.000;  139.000
229.771;  -68.275; -218.000; -294.000
229.915;   16.225;  230.000;   79.000
230.059;  -99.600; -648.000; -663.000
230.202;  -45.900; -370.000; -317.000
230.346;  -25.025; -107.000;  107.000
230.490;  -61.850; -489.000; -521.000
230.634; -114.825; -736.000; -553.000
230.777;   64.025;  478.000;  509.000
230.921;  -57.400; -450.000; -359.000
231.065;  -38.425; -246.000; -286.000
231.209;   11.075;  261.000;  265.000
231.352;   17.525;   54.000;   40.000
231.496;   16.075;  568.000;  188.000
231.640;  -82.125; -693.000; -621.000
231.783;   58.750;  546.000;  525.000
231.927;  -39.850; -294.000; -365.000
232.071; -127.900; -962.000; -736.000
232.214; -113.075; -980.000; -764.000
232.358;  -94.675; -683.000; -599.000
232.502;    5.900;  -19.000;    7.000
232.645; -150.800;-1090.000; -927.000
232.789;  -16.450; -257.000; -218.000
232.933;  -40.250; -407.000; -224.000
233.076; -121.800;-1038.000; -897.000
233.220; -113.000; -752.000; -777.000
233.363;  -73.725; -669.000; -477.000
233.507;   37.525;  371.000;  129.000
233.650;  -94.800; -764.000; -834.000
233.794;   46.550;  438.000;  461.000
233.938;  -57.550; -530.000; -362.000
234.081;  -24.175;  -93.000;   31.000
234.225;  -73.250; -631.000; -539.000
234.368; -121.225; -773.000; -723.000
234.512;  -37.425; -385.000; -299.000
234.655;  -97.275; -582.000; -555.000
234.798;  -59.050; -493.000; -466.000
234.942; -137.500; -884.000;-1002.000
235.085;  -72.525; -651.000; -443.000
235.229;  -71.400; -405.000; -410.000
235.372;  -58.875; -247.000; -191.000
235.516;  -66.900; -397.000; -321.000
235.659;   19.200;   92.000;  121.000
235.802;  -13.050;  -38.000;  -22.000
235.946;   26.225;  335.000;  215.000
236.089;   14.175;  126.000;  250.000
236.233;   46.700;  275.000;  298.000
236.376;  -44.975; -235.000; -378.000
236.519;  -47.575; -297.000; -319.000
236.663;  -31.500; -215.000; -117.000
236.806; -145.300;-1029.000; -999.000
236.949;   56.050;  543.000;  431.000
237.092;   58.325;  412.000;  391.000
237.236;  -87.950; -589.000; -502.000
237.379;   55.650;  352.000;  428.000
237.522; -116.550; -879.000; -768.000
237.666;  -15.750; -271.000;   18.000
237.809; -129.450; -851.000; -823.000
237.952;   27.975;  469.000;  271.000
238.095;  -84.150; -447.000; -442.000
238.238;   74.950;  688.000;  700.000
238.382;   -0.025;  166.000;  103.000
238.525;  -67.925; -598.000; -511.000
238.668; -135.700;-1060.000; -985.000
238.811;  -79.200; -638.000; -643.000
238.954;  -68.300; -483.000; -334.000
239.097;   90.975;  617.000;  664.000
239.241;   23.050;  394.000;  326.000
239.384;  -38.500; -254.000; -214.000
239.527;  -71.175; -424.000; -224.000
239.670; -133.000; -994.000;-1091.000
239.813; -110.175; -696.000; -658.000
239.956;   80.075;  579.000;  473.000
240.099; -120.000; -778.000; -725.000
240.242;   72.175;  428.000;  432.000
240.385;   36.325;  466.000;  450.000
240.528;  -74.350; -706.000; -473.000
240.671;    0.900;  189.000;  134.000
240.814;  -45.350; -441.000; -158.000
240.957; -107.325; -767.000; -578.000
241.100;  -69.175; -779.000; -755.000
241.243; -162.725;-1234.000; -893.000
241.386;  -66.200; -508.000; -379.000
241.529;  -89.225; -735.000; -547.000
241.672;  -61.575; -566.000; -495.000
241.815; -122.625; -832.000; -808.000
241.958;  -30.275; -125.000; -182.000
242.101;  -93.900; -545.000; -390.000
242.244;  -49.425; -270.000; -325.000
242.387;  -47.675; -304.000; -246.000
242.530;   72.450;  470.000;  134.000
242.673;  -53.775; -381.000; -309.000
242.815; -108.900; -925.000; -899.000
242.958;  -76.200; -482.000; -381.000
243.101;   12.150;  132.000;  187.000
243.244;  -89.875; -564.000; -521.000
243.387;  -54.100; -313.000; -316.000
243.530; -108.575; -657.000; -674.000
243.672;    5.950;   43.000;  -92.000
243.815;  -63.550; -355.000; -283.000
243.958;  -10.075;   98.000;  -26.000
244.101;   -3.350;   59.000;  -16.000
244.243;  -12.625;  -47.000;  101.000
244.386; -115.200; -761.000; -630.000
244.529;  -15.575; -132.000; -139.000
244.672; -159.775;-1154.000; -951.000
244.814;  -91.150; -621.000; -794.000
244.957;  -62.950; -380.000; -304.000
245.100;  -72.400; -489.000; -489.000
245.242;  -75.550; -387.000; -374.000
245.385;  -10.350;  -59.000;  -39.000
245.528; -120.425; -871.000; -705.000
245.670;   89.850;  612.000;  634.000
245.813;  -87.525; -599.000; -547.000
245.956;  -23.075; -324.000; -275.000
246.098;  -84.475; -508.000; -650.000
246.241;   18.025;  194.000;   48.000
246.383;  -12.550; -119.000;  -73.000
246.526;  -74.900; -454.000; -525.000
246.669; -116.050; -889.000; -780.000
246.811;    7.925;  172.000;   -1.000
246.954;  -66.925; -512.000; -426.000
247.096;  -21.000;  -84.000;   -6.000
247.239;  -76.925; -482.000; -445.000
247.381;  -73.475; -647.000; -488.000
247.524;   66.250;  645.000;  679.000
247.666;   -7.175;   58.000;   11.000
247.809; -122.375; -887.000; -691.000
247.951;  -17.750;  -75.000;  138.000
248.094;   25.450;  432.000;  308.000
248.236; -167.475;-1262.000;-1238.000
248.378;   -6.675; -356.000;  -81.000
248.521;  -14.600; -334.000; -337.000
248.663;  -54.600; -236.000; -267.000
248.806;   -8.950; -300.000; -266.000
248.948; -103.750; -886.000; -763.000
249.090;  -43.750; -428.000; -398.000
249.233;  -63.300; -344.000; -381.000
249.375;  -62.250; -474.000; -451.000
249.518;  -24.650;  -83.000; -133.000
249.660;    4.325; -103.000;    3.000
249.802; -179.450;-1303.000;-1189.000
249.945;  -65.975; -612.000; -540.000
250.087; -128.200; -834.000; -768.000
250.229;  -45.800; -362.000; -480.000
250.371;  -76.875; -494.000; -439.000
250.514;  -51.600; -310.000; -244.000
250.656;  -70.575;   69.000;  102.000
250.798; -108.800; -849.000; -800.000
250.940;  -63.225; -322.000; -322.000
251.083;  -23.450; -335.000; -111.000
251.225;   56.000;  338.000;  310.000
251.367;  -34.350; -274.000; -373.000
251.509;  -42.500; -265.000; -210.000
251.651;  -98.050; -731.000; -671.000
251.794;   73.500;  538.000;  632.000
251.936;  -90.875; -821.000; -747.000
252.078;  -85.675; -540.000; -461.000
252.220;  -65.700; -645.000; -477.000
252.362;   96.425;  344.000;  462.000
252.504;  -70.650; -677.000; -584.000
252.646; -112.725; -875.000; -722.000
252.788;   -4.425;   14.000; -128.000
252.931;  -48.125; -257.000; -253.000
253.073;  -33.775; -376.000; -317.000
253.215;  -20.900;  141.000;  122.000
253.357;   -0.050;   82.000; -153.000
253.499;  -59.725; -374.000; -234.000
253.641;  -85.400; -749.000; -594.000
253.783;  -92.300; -609.000; -527.000
253.925;  -87.925; -586.000; -591.000
254.067; -120.900; -744.000; -667.000
254.209;  -29.725; -391.000; -259.000
254.351; -140.525; -865.000; -883.000
254.493;  -59.825; -441.000; -417.000
254.635; -133.125; -936.000; -818.000
254.777;  -89.650; -752.000; -687.000
254.918;  -83.725; -512.000; -430.000
255.060;  -60.725; -551.000; -395.000
255.202;  -55.500; -473.000; -261.000
255.344;  -80.150; -658.000; -455.000
255.486;  -80.775; -471.000; -406.000
255.628;  -98.075; -780.000; -781.000
255.770;  -95.850; -676.000; -536.000
255.912;  -62.200; -559.000; -468.000
256.053;  -98.050; -730.000; -508.000
256.195;  158.100; 1008.000;  903.000
256.337; -106.450; -861.000; -595.000
256.479;   65.625;  532.000;  416.000
256.621;  -49.425; -394.000; -212.000
256.762;  -83.200; -789.000; -742.000
256.904;   42.525;  485.000;  487.000
257.046;  -41.900; -381.000; -271.000
257.188;  -41.675; -351.000; -264.000
257.329;  -71.425; -525.000; -464.000
257.471; -126.175; -939.000; -807.000
257.613;  -63.075; -584.000; -498.000
257.755; -138.875;-1073.000; -982.000
257.896;   45.775;  286.000;  392.000
258.038;  -71.425; -403.000; -352.000
258.180;  -35.750; -354.000; -279.000
258.321;  -94.425; -581.000; -457.000
258.463;   -8.075;  -71.000;  133.000
258.605;  -93.025; -562.000; -570.000
258.746; -105.525; -886.000; -772.000
258.888; -160.275;-1026.000;-1020.000
259.029;   19.075;  121.000;   -8.000
259.171;  -97.850; -614.000; -550.000
259.313;   -2.200;  -49.000;  -47.000
259.454;  -75.475; -536.000; -414.000
259.596;  -56.725; -483.000; -390.000
259.737;  -88.100; -590.000; -474.000
259.879;   37.550;  217.000;  311.000
260.020;   90.225;  901.000;  636.000
260.162;  -28.475; -146.000; -253.000
260.303; -127.200; -768.000; -687.000
260.445;  -84.900; -609.000; -613.000
260.586;   22.600;  392.000;  157.000
260.728;  -36.400; -360.000; -248.000
260.869;  -60.025; -350.000; -343.000
261.011;   78.800;  706.000;  537.000
261.152;  -57.425; -479.000; -319.000
261.293;  -74.325; -576.000; -595.000
261.435;  -29.775; -219.000; -184.000
261.576;  -58.200; -455.000; -325.000
261.718;   55.250;  420.000;  470.000
261.859; -131.150; -940.000; -949.000
262.000; -146.925; -951.000;-1016.000
262.142;  -16.950;  -52.000;  -60.000
262.283; -126.400; -808.000; -691.000
262.424;  -82.725; -666.000; -625.000
262.566; -156.475;-1161.000; -983.000
262.707; -106.975; -840.000; -830.000
262.848; -122.275; -769.000; -726.000
262.990;  -49.225; -362.000; -345.000
263.131;   76.225;  650.000;  681.000
263.272;    8.775;  -61.000;  -41.000
263.413;  -97.075; -589.000; -561.000
263.555;  -61.825; -669.000; -143.000
263.696;  -84.800; -550.000; -641.000
263.837;  -55.550; -449.000; -551.000
263.978;  -13.350;   -5.000;  -77.000
264.119;  -39.100; -283.000; -264.000
264.261; -131.350; -847.000; -630.000
264.402;    3.100;   33.000;   40.000
264.543;  -73.950; -509.000; -524.000
264.684;  -19.125;   61.000;  -50.000
264.825;  -76.100; -816.000; -538.000
264.966;  -12.325;  -84.000;  -67.000
265.107; -122.200; -646.000; -670.000
265.248; -119.800; -825.000; -812.000
265.390;  -27.075;  152.000;   -9.000
265.531;  -14.350; -238.000; -107.000
265.672;  -90.250; -557.000; -630.000
265.813;   68.275;  563.000;  439.000
265.954; -155.025; -959.000; -940.000
266.095;   -3.700; -372.000; -322.000
266.236; -108.475; -686.000; -548.000
266.377;  -41.300; -243.000; -297.000
266.518;  -69.675; -619.000; -547.000
266.659;   35.700;  170.000;  268.000
266.800;    1.750;   83.000;   85.000
266.941;  -69.675; -487.000; -478.000
267.082;   20.200;  354.000;   99.000
267.223;  -48.700; -344.000; -273.000
267.364; -116.025; -892.000; -686.000
267.504;  -19.600;    3.000;  135.000
267.645;   -6.425;  160.000;   67.000
267.786;  -41.625; -147.000;  -86.000
267.927;  -77.925; -473.000; -379.000
268.068;   -9.825; -186.000;  -61.000
268.209;  -44.750; -175.000; -413.000
268.350;  -53.250; -388.000; -532.000
268.490;  -90.875; -648.000; -521.000
268.631;   40.600;  127.000;  225.000
268.772; -115.725; -874.000; -647.000
268.913;  -52.750; -328.000; -476.000
269.054;   -9.900; -117.000;   12.000
269.194;  -45.000; -418.000; -402.000
269.335; -165.775;-1137.000;-1074.000
269.476;  -17.725;   33.000;  -35.000
269.617;  -49.250; -347.000; -392.000
269.757;  -82.925; -713.000; -646.000
269.898; -115.775; -856.000; -613.000
270.039;  -65.000; -415.000; -405.000
270.180; -130.025; -952.000; -816.000
270.320;  -18.500; -190.000; -250.000
270.461;  -35.675; -277.000; -249.000
270.602;  -20.400; -186.000; -156.000
270.742; -117.200; -868.000; -943.000
270.883;  -48.850; -442.000; -390.000
271.023;  -70.350; -358.000; -357.000
271.164;  -76.800; -607.000; -528.000
271.305; -105.000; -666.000; -654.000
271.445;  -83.525; -722.000; -683.000
271.586;  -86.625; -462.000; -283.000
271.726;  -45.200; -397.000; -322.000
271.867;  -62.350; -594.000; -534.000
272.008;  192.875; -473.000; -285.000
272.148;  129.125;  462.000;  468.000
272.289;   10.525; -113.000; -181.000
272.429;   17.800;   19.000;  185.000
272.570;  -87.825; -633.000; -737.000
272.710; -112.425; -825.000; -775.000
272.851;  -14.850;  113.000; -130.000
272.991; -167.425;-1173.000;-1077.000
273.131;  -77.750; -419.000; -459.000
273.272; -101.525; -683.000; -723.000
273.412;   15.775; -143.000;  -31.000
273.553;  -58.850; -488.000; -507.000
273.693;  140.075;  913.000;  858.000
273.834;  -88.675; -894.000; -692.000
273.974;  -48.925; -664.000; -615.000
274.114;  -97.775; -772.000; -560.000
274.255;   89.200;  414.000;  373.000
274.395;   16.525; -180.000; -125.000
274.535;   36.725;  199.000;  350.000
274.676;   23.750;  225.000;   94.000
274.816;    5.850;  110.000;   34.000
274.956;  -77.050; -624.000; -690.000
275.097;  -56.850;-1014.000; -922.000
275.237; -115.650; -913.000; -803.000
275.377;  -90.725; -778.000; -689.000
275.517; -148.500; -878.000; -937.000
275.658;  -46.550; -590.000; -555.000
275.798;  -76.225; -606.000; -413.000
275.938;   38.550;  215.000;  323.000
276.078; -103.325; -626.000; -395.000
276.218;   14.475;   99.000;  104.000
276.359; -129.900;-1026.000;-1024.000
276.499;  -53.550; -605.000; -446.000
276.639;  -30.975; -305.000; -151.000
276.779;  -38.500; -475.000; -357.000
276.919; -106.775; -783.000; -624.000
277.059;   -5.225; -261.000; -212.000
277.199;  -39.425; -357.000; -259.000
277.340;   62.925;  287.000;  175.000
277.480; -121.775; -840.000; -693.000
277.620;   44.600;  192.000;   16.000
277.760; -205.875;-1533.000;-1294.000
277.900;   19.025;  113.000;   33.000
278.040;   27.250;  137.000;  159.000
278.180;   47.200;  270.000;  170.000
278.320;   14.975;   21.000;   56.000
278.460;  -67.025; -443.000; -469.000
278.600;  -95.775; -708.000; -598.000
278.740;   51.850;  448.000;  224.000
278.880;  -32.225; -768.000; -791.000
279.020;   12.050; -194.000; -144.000
279.160;  -88.150; -672.000; -595.000
279.300; -114.600; -926.000; -873.000
279.440;  -98.725; -709.000; -622.000
279.579;    2.625;-1014.000; -929.000
279.719;  -54.075; -410.000; -394.000
279.859;   76.900;   -4.000;   41.000
279.999;   21.150; -208.000;  101.000
280.139;   -9.600; -435.000; -387.000
280.279;  -67.450; -708.000; -745.000
280.419;  -11.150; -229.000; -147.000
280.559;  -29.725; -259.000; -180.000
280.698;  -64.725; -790.000; -639.000
280.838;  -86.325; -778.000; -800.000
280.978; -102.600; -846.000; -790.000
281.118; -110.675; -811.000; -704.000
281.257;   17.425;   24.000;    6.000
281.397;  -97.925;-1094.000; -960.000
281.537;  -66.125; -599.000; -712.000
281.677;  -27.650; -150.000; -101.000
281.816;  -86.675; -700.000; -630.000
281.956;  -27.275; -193.000; -257.000
282.096;  -65.225; -539.000; -396.000
282.235; -120.225; -672.000; -638.000
282.375;   -7.775; -243.000;  -98.000
282.515;  -93.100; -715.000; -707.000
282.654;   38.525;   29.000;  106.000
282.794;    9.100;  388.000;  244.000
282.934;  -42.525; -530.000; -491.000
283.073; -127.400;-1030.000; -857.000
283.213;  -53.825; -460.000; -467.000
283.353;  -34.875; -408.000; -349.000
283.492;  -26.100; -264.000; -296.000
283.632;  -50.300; -254.000; -168.000
283.771;  -90.675; -859.000; -730.000
283.911;  -59.550; -369.000; -260.000
284.050; -101.775; -794.000; -748.000
284.190; -156.325;-1229.000;-1096.000
284.329; -126.450;-1055.000; -964.000
284.469;  -48.650; -516.000; -591.000
284.608;  -56.050; -559.000; -598.000
284.748;  -92.300; -614.000; -570.000
284.887;    2.700;  -87.000;  -20.000
285.027; -130.575; -844.000; -892.000
285.166;  -26.875; -192.000; -249.000
285.306;   19.575; -116.000;  -33.000
285.445;  -32.500; -229.000; -343.000
285.584;  -97.050; -630.000; -494.000
285.724;  -28.700; -282.000; -322.000
285.863; -112.600; -857.000; -507.000
286.002;  -48.375; -366.000; -276.000
286.142; -106.200; -715.000; -622.000
286.281;  -72.125; -525.000; -493.000
286.420;  -78.825; -554.000; -417.000
286.560;  106.150;  653.000;  623.000
286.699; -143.750; -958.000; -912.000
286.838;  -68.000; -590.000; -591.000
286.978;  -95.375; -533.000; -537.000
287.117; -131.175;-1085.000; -950.000
287.256;  -22.725; -228.000; -211.000
287.395;  -46.650; -197.000; -378.000
287.535;  -58.550; -370.000; -298.000
287.674;  -77.175; -509.000; -484.000
287.813;   57.925;  661.000;  533.000
287.952; -121.200;-1010.000; -871.000
288.091; -153.800;-1049.000; -915.000
288.231;   20.475;   13.000;   15.000
288.370; -171.500;-1217.000;-1200.000
288.509;  -95.425; -728.000; -645.000
288.648;  -82.350; -770.000; -548.000
288.787;  -25.125; -243.000;  -87.000
288.926;  -68.325; -454.000; -475.000
289.065;  119.625;  859.000;  672.000
289.204;  -58.475; -377.000; -217.000
289.344;  -81.375; -791.000; -690.000
289.483;   24.575;  416.000;  304.000
289.622;  -17.450; -291.000; -149.000
289.761;  -14.350; -309.000; -166.000
289.900;  -98.375; -785.000; -626.000
290.039;  -20.100;  -12.000;  -95.000
290.178;  -33.425; -274.000; -180.000
290.317;  -85.850; -618.000; -479.000
290.456;  -66.325; -463.000; -451.000
290.595; -147.550; -961.000; -833.000
290.734; -139.250; -904.000; -891.000
290.873;  -55.800; -456.000; -420.000
291.011;  -96.550; -833.000; -843.000
291.150; -105.400; -770.000; -682.000
291.289;   -4.400; -343.000; -110.000
291.428;  -99.275; -599.000; -480.000
291.567;  -46.025; -370.000; -442.000
291.706;  -11.300;  109.000;  154.000
291.845;  -82.225; -597.000; -505.000
291.984; -163.225;-1234.000;-1061.000
292.122;   74.375;  602.000;  582.000
292.261;   50.075;  620.000;  463.000
292.400;   22.850; -144.000;  211.000
292.539; -146.525; -959.000; -813.000
292.678;  -22.875; -325.000; -300.000
292.816; -160.300;-1136.000; -965.000
292.955;  -80.350; -844.000; -684.000
293.094;  -30.675; -173.000; -337.000
293.233;  -48.775; -556.000; -400.000
293.371;  -31.750; -225.000;  -84.000
293.510; -109.475; -866.000; -780.000
293.649; -130.400; -959.000; -924.000
293.787;  -36.500;-1083.000;-1012.000
293.926;    7.500; -113.000;  -32.000
294.065;  -31.250; -379.000; -290.000
294.203;   52.675;  298.000;  406.000
294.342;   39.500;   74.000;  156.000
294.481; 5695.050;51180.000; -836.000
294.619;  -30.925; -425.000; -582.000
294.758; -138.475;-1230.000;-1137.000
294.896;   92.750; -125.000;    5.000
295.035; -108.525;-1040.000;-1006.000
295.174; -119.925;-1082.000; -954.000
295.312;  -29.975; -323.000; -203.000
295.451;    1.975; -307.000; -428.000
295.589;  -47.025; -389.000; -518.000
295.728;   32.600; -292.000; -165.000
295.866;    5.825;  -36.000;  -51.000
296.005;  -46.275; -584.000; -341.000
296.143;  -54.325; -558.000; -596.000
296.282;  -88.675; -957.000; -881.000
296.420;  -71.325; -657.000; -557.000
296.559;  -79.650; -892.000; -633.000
296.697;   50.050; -847.000; -665.000
296.835;  146.700;-1141.000;-1002.000
296.974;   63.500;  -23.000;   39.000
297.112;   35.650; -443.000; -504.000
297.251;  -77.700; -815.000; -755.000
297.389;  131.150; -576.000; -438.000
297.527;   63.925; -145.000;  -83.000
297.666;  -24.450; -486.000; -438.000
297.804;  -56.450; -404.000; -264.000
297.942;   -7.100; -136.000; -161.000
298.081;    1.375; -183.000;   63.000
298.219;   97.300;  -17.000;  -19.000
298.357;   70.500; -144.000;  -71.000
298.495;   63.700; -810.000; -812.000
298.634;   99.475;  245.000;  219.000
298.772;  103.225; -220.000; -338.000
298.910;  -28.175; -309.000; -182.000
299.048;    5.450; -130.000; -153.000
299.187;  -27.800; -350.000; -250.000
299.325;   28.700;   52.000;  122.000
299.463;   67.075; -389.000; -299.000
299.601;  159.225; -327.000; -271.000
299.739;  -90.950; -908.000; -883.000
299.877;  -51.225; -791.000; -703.000
300.016;  -33.775;-1095.000; -935.000
300.154;  208.400;  -19.000; -161.000
300.292;   74.675; -428.000; -348.000
300.430;   74.900; -408.000; -291.000
300.568;  -93.300; -940.000; -874.000
300.706;  -42.800; -366.000; -469.000
300.844;  -50.025;-1108.000; -979.000
300.982;  129.625;  246.000;  282.000
301.120; -106.200; -965.000; -866.000
301.258;  -58.650; -812.000; -705.000
301.396;   61.525;  104.000;  -41.000
301.534;  146.225; -218.000; -293.000
301.672;   30.550; -664.000; -521.000
301.810;   74.175; -613.000; -545.000
301.948;  154.100;   53.000;  149.000
302.086;  761.575; -250.000;  -32.000
302.224; 1168.200; -610.000; -585.000
302.362;   66.725; -558.000; -622.000
302.500;   11.400; -923.000; -893.000
302.638;  150.625;  128.000;  245.000
302.776;    8.425; -352.000; -408.000
302.913;   62.000;  447.000;  236.000
303.051;   12.075;  -86.000;  -23.000
303.189;   73.650;   90.000;  118.000
303.327;  -33.675; -341.000; -256.000
303.465;  -55.825; -832.000; -588.000
303.603;  -87.175; -805.000; -604.000
303.740;  115.425;  417.000;  241.000
303.878;   50.650; -800.000; -759.000
304.016;  -79.125; -915.000; -790.000
304.154; -108.325;-1123.000;-1152.000
304.291;  -24.075; -505.000; -554.000
304.429;    6.425;  102.000;   74.000
304.567; -121.325; -908.000; -893.000
304.705;  -58.475; -408.000; -515.000
304.842;  140.000; -616.000; -540.000
304.980;   55.200;  215.000;   35.000
305.118;   72.475; -367.000; -365.000
305.255;  -50.600; -945.000; -927.000
305.393;   63.075;  178.000;  239.000
305.531;  -95.000;-1173.000; -956.000
305.668;  -50.275; -663.000; -582.000
305.806;   99.575; -358.000; -439.000
305.943;  140.100; -629.000; -637.000
306.081;   71.425; -378.000; -267.000
306.219;  -97.525; -863.000; -748.000
306.356;   -6.500;  158.000;   27.000
306.494;  117.850;  981.000;  761.000
306.631;   -2.750;  -11.000;  -55.000
306.769;    8.350; -613.000; -485.000
306.906;  -13.100; -284.000; -258.000
307.044;  -63.350; -473.000; -488.000
307.181;  -61.175; -410.000; -332.000
307.319;    7.425;  112.000;   87.000
307.456; -172.375;-1191.000;-1153.000
307.594;  -86.000; -980.000; -727.000
307.731;    0.125; -371.000; -164.000
307.868;    6.125;  -15.000;   20.000
308.006; -134.750; -961.000; -847.000
308.143;  -49.500; -618.000; -330.000
308.281;  158.475;  -37.000; -254.000
308.418;    7.675; -748.000; -640.000
308.555;  -69.250; -400.000; -250.000
308.693;  -51.825; -577.000; -573.000
308.830; -104.825; -712.000; -657.000
308.967;  -16.550; -215.000;  -95.000
309.105;  -48.425; -507.000; -396.000
309.242;   35.150; -468.000; -367.000
309.379;  313.225; -577.000; -655.000
309.517;  -41.725; -936.000; -948.000
309.654; -103.950; -910.000; -734.000
309.791;  -59.450; -662.000; -580.000
309.928; -106.775; -977.000; -914.000
310.065;  194.900;  819.000;  697.000
310.203;   23.700; -825.000; -850.000
310.340;   13.825; -465.000; -321.000
310.477;  -66.350; -412.000; -516.000
310.614;  -71.675; -383.000; -473.000
310.751;  -67.375; -427.000; -518.000
310.889;  -13.600;    1.000;   11.000
311.026; -156.325;-1161.000; -939.000
311.163;  -43.075; -386.000; -380.000
311.300;  -69.525; -512.000; -479.000
311.437;  -66.925; -658.000; -619.000
311.574; -150.925;-1226.000; -985.000
311.711;  -41.050; -595.000; -433.000
311.848;  -20.325; -380.000; -388.000
311.985;   26.600;  270.000;   93.000
312.122; -123.325; -932.000; -762.000
312.259; -110.975; -941.000; -994.000
312.396;  -78.000; -508.000; -551.000
312.533;  -73.950; -812.000; -790.000
312.670; -124.425;-1070.000; -898.000
312.807;  -16.725; -352.000; -367.000
312.944;  -81.875; -513.000; -611.000
313.081;  -18.450; -150.000; -415.000
313.218;  -94.375;-1111.000; -867.000
313.355;   36.050; -531.000; -449.000
313.492;   13.225; -455.000; -292.000
313.629;  143.275;  815.000;  735.000
313.766; -148.825;-1176.000;-1008.000
313.902;   -1.550; -186.000;   21.000
314.039;  -50.975; -372.000; -289.000
314.176;   34.150;  286.000;  192.000
314.313;  -74.700; -569.000; -473.000
314.450;  -71.400; -788.000; -684.000
314.587;  -36.425; -468.000; -480.000
314.723;   10.875;  -78.000;  130.000
314.860;   31.175;  318.000;  332.000
314.997;   47.975;  223.000;  142.000
315.134;  -48.800; -385.000; -368.000
315.270;  -15.250; -480.000; -496.000
315.407; -116.625;-1094.000; -967.000
315.544;  -27.125; -657.000; -538.000
315.681;  -51.825; -681.000; -565.000
315.817;   43.825; -133.000; -176.000
315.954;   26.750; -613.000; -392.000
316.091; -123.675;-1045.000;-1023.000
316.227;  -16.475;  -71.000; -179.000
316.364;    0.675;   23.000;    6.000
316.500;  -46.100; -113.000; -300.000
316.637;  -23.500; -181.000; -302.000
316.774;  -81.000; -625.000; -358.000
316.910;  -89.525; -598.000; -629.000
317.047;  -72.525; -487.000; -351.000
317.183;  -35.925; -435.000; -566.000
317.320;  -40.725; -367.000; -321.000
317.456;  -80.325; -733.000; -805.000
317.593;  -97.850; -598.000; -641.000
317.729;   12.425;  168.000;  -67.000
317.866; -209.650;-1434.000;-1285.000
318.002;  -80.350; -708.000; -948.000
318.139;  -84.750; -883.000; -867.000
318.275;  -95.375;-1003.000; -738.000
318.412;  -64.475; -517.000; -336.000
318.548;    1.175; -751.000; -720.000
318.685;  -94.700; -985.000; -888.000
318.821;  -88.450; -762.000; -735.000
318.957;  -16.300;   34.000;  -23.000
319.094;   47.250;  297.000;  154.000
319.230;  -39.125; -756.000; -742.000
319.367;  171.075; -471.000; -520.000
319.503;   45.150; -538.000; -436.000
319.639;  -85.775; -877.000; -793.000
319.775;  -54.900; -750.000; -685.000
319.912;  -44.775; -424.000; -519.000
320.048;  -85.150;-1184.000;-1184.000
320.184;   59.975;   59.000;   70.000
320.321;  -71.575; -497.000; -467.000
320.457;   52.400;  475.000;  662.000
320.593;  -74.500; -375.000; -382.000
320.729; -113.050; -732.000; -734.000
320.866;  -85.550; -577.000; -635.000
321.002;  -58.000; -759.000; -809.000
321.138;   -6.450; -135.000; -211.000
321.274;   93.575; -148.000; -115.000
321.410;  -27.550; -585.000; -353.000
321.546;    0.625;-1011.000; -911.000
321.683;   44.300;  400.000;  185.000
321.819;    7.625;  -48.000; -117.000
321.955; -105.250; -743.000; -722.000
322.091;  -35.950; -585.000; -540.000
322.227;   -4.800; -382.000; -202.000
322.363;   -9.025; -320.000; -215.000
322.499;  -47.725; -343.000; -331.000
322.635;  184.050;  636.000;  443.000
322.771;   34.550; -139.000;   12.000
322.907;  111.775;  129.000;  327.000
323.043;  -13.050; -115.000; -206.000
323.179;  -13.625; -394.000; -363.000
323.315;   65.675; -401.000; -371.000
323.451;  162.000; -328.000; -236.000
323.587;   84.700;  -60.000;  -77.000
323.723;   57.075; -682.000; -601.000
323.859;  -27.275; -258.000;  -76.000
323.995;  -19.200; -467.000; -409.000
324.131; -119.575; -967.000; -892.000
324.267;  -33.775; -254.000; -276.000
324.402; -122.875; -960.000; -983.000
324.538;   -6.275; -279.000; -104.000
324.674;   20.150;  164.000;   77.000
324.810;  188.575;  226.000;  308.000
324.946;   29.000; -810.000; -658.000
325.082;  -61.650; -568.000; -475.000
325.217;  -19.300;  -62.000;   16.000
325.353;  -86.075; -764.000; -659.000
325.489;  -84.800; -540.000; -506.000
325.625;  -65.700; -579.000; -525.000
325.760;   45.300;  517.000;  376.000
325.896;  -41.250; -515.000; -702.000
326.032;  -57.675; -403.000; -352.000
326.168;  -55.225; -462.000; -369.000
326.303;  -57.775; -352.000; -461.000
326.439;  -13.550; -336.000; -276.000
326.575;   24.200; -190.000;  -29.000
326.710;   12.500; -156.000;  -30.000
326.846;  -17.350;  146.000;  103.000
326.982;  -86.400; -530.000; -548.000
327.117;  -72.425; -481.000; -442.000
327.253;  -79.700; -745.000; -742.000
327.388; -131.900;-1137.000;-1153.000
327.524;   -9.400; -811.000; -578.000
327.659;  -28.050;  -58.000;  -22.000
327.795;   -1.250;   69.000;   45.000
327.931;  -84.100; -723.000; -499.000
328.066;  -11.250; -417.000; -276.000
328.202;   -2.300;   12.000; -129.000
328.337;  116.175;  957.000;  713.000
328.473;   45.025;  -12.000;  -74.000
328.608;   -6.650; -256.000; -267.000
328.743;  -72.050; -799.000; -664.000
328.879;   25.900;  214.000;  114.000
329.014;  -32.300; -102.000; -122.000
329.150;  -77.675; -358.000; -483.000
329.285;  -77.200; -465.000; -466.000
329.421;  -49.425; -548.000; -246.000
329.556;  -27.200;  -36.000;   85.000
329.691;  -81.875; -633.000; -615.000
329.827;  -79.625; -626.000; -480.000
329.962;  -41.150;  131.000; -301.000
330.097;  -93.500; -673.000; -585.000
330.233;  -42.700; -410.000; -223.000
330.368; -119.025; -839.000; -628.000
330.503;   -8.125;    3.000;   98.000
330.638;   13.675;  -93.000; -125.000
330.774;  -50.100; -609.000; -530.000
330.909;  -31.425; -434.000; -244.000
331.044; -100.650; -714.000; -708.000
331.179; -165.225;-1217.000;-1109.000
331.315;   19.875;   77.000;   20.000
331.450;   12.450;  157.000;  285.000
331.585;  -71.100; -805.000; -706.000
331.720;  -89.050; -510.000; -460.000
331.855;   -7.525;  -35.000; -102.000
331.990;  163.625;   62.000;  138.000
332.126;  110.375; -110.000;   71.000
332.261;  -33.925; -379.000; -265.000
332.396;    3.025; -135.000; -242.000
332.531; -120.000;-1074.000;-1031.000
332.666;   14.775; -519.000; -363.000
332.801; -102.225; -726.000; -807.000
332.936;   -6.200; -192.000; -122.000
333.071; -129.050; -870.000; -817.000
333.206;   25.425;  307.000;  379.000
333.341;   30.600;  344.000;  418.000
333.476;  -67.675; -627.000; -623.000
333.611;  -47.300; -251.000; -173.000
333.746;  -26.025; -381.000; -464.000
333.881;  -94.475; -973.000; -935.000
334.016; -113.575; -936.000; -917.000
334.151; -118.500; -746.000; -702.000
334.286;   39.550;  152.000;  186.000
334.421;   -1.875; -125.000; -178.000
334.556;  -52.625; -611.000; -567.000
334.690;  -71.900; -631.000; -577.000
334.825;   62.975;  381.000;   83.000
334.960;  -44.200; -285.000; -413.000
335.095;   27.925;  135.000;  -91.000
335.230;  -86.375; -722.000; -738.000
335.365; -115.950;-1084.000; -990.000
335.499; -115.200;-1108.000;-1037.000
335.634;   46.500;    9.000;  534.000
335.769;  -86.175; -755.000; -720.000
335.904;  -30.000; -603.000; -561.000
336.038;  -33.250; -735.000; -657.000
336.173;  -82.300;-1206.000;-1194.000
336.308;   31.775; -116.000; -189.000
336.443;   32.375; -544.000; -634.000
336.577;  -45.750; -936.000; -787.000
336.712;  100.525;   -4.000;  -12.000
336.847;   -1.525; -724.000; -607.000
336.981;  133.025; -272.000; -208.000
337.116;  342.150;  615.000;  501.000
337.250;  232.775; -434.000; -421.000
337.385;  153.325; -297.000; -208.000
337.520;   28.475; -632.000; -603.000
337.654;  -37.025; -215.000; -126.000
337.789; -124.250; -989.000; -933.000
337.923;  -18.050; -104.000; -205.000
338.058;  -85.475; -673.000; -738.000
338.192;  -29.775; -611.000; -488.000
338.327;    3.750;  -18.000; -155.000
338.461;  -62.300; -299.000; -469.000
338.596;  -88.125; -780.000; -638.000
338.730; -108.000; -767.000; -803.000
338.865;   49.750;  -46.000; -140.000
338.999;  -79.075; -846.000; -702.000
339.134;  -40.525; -634.000; -536.000
339.268;   10.200; -741.000; -603.000
339.403;  265.525; -740.000; -775.000
339.537;   36.575; -894.000; -820.000
339.671; -106.250; -829.000; -813.000
339.806;  -78.675; -556.000; -512.000
339.940;    5.875; -261.000; -235.000
340.074;  -99.550; -685.000; -510.000
340.209;  -46.850; -351.000; -230.000
340.343; -102.175; -517.000; -573.000
340.477;  160.375;  998.000; 1036.000
340.612;  -81.325;-1033.000; -900.000
340.746;   86.975; -199.000; -243.000
340.880;  -51.850; -924.000; -785.000
341.014;  -12.500;  -45.000; -154.000
341.149; -111.850; -756.000; -718.000
341.283; -107.850; -839.000; -754.000
341.417;  -72.600;-1124.000; -938.000
341.551;  233.900; -768.000; -708.000
341.685;  -25.175; -633.000; -611.000
341.820;  -56.150; -562.000; -493.000
341.954;  -57.025; -218.000; -349.000
342.088; -148.375;-1102.000;-1019.000
342.222;   57.825;  565.000;  618.000
342.356;  -33.750; -395.000; -335.000
342.490;  -80.375; -880.000; -841.000
342.624;  -26.300; -339.000; -242.000
342.758;   21.375; -364.000; -312.000
342.892;  -38.950; -710.000; -585.000
343.026;  -28.925;  -58.000; -116.000
343.160;  -53.375; -426.000; -376.000
343.294;  -76.825; -474.000; -337.000
343.428;   15.225; -488.000; -448.000
343.562;   -6.350; -172.000;  -23.000
343.696;    2.450; -385.000; -314.000
343.830;   -6.750; -362.000; -356.000
343.964;   33.625; -231.000; -168.000
344.098; 1180.200;  199.000;   70.000
344.232; 1015.050; -266.000; -127.000
344.366;   87.325; -567.000; -453.000
344.500;  106.400; -665.000; -744.000
344.634;   70.950; -324.000; -164.000
344.768;   19.550; -531.000; -341.000
344.902;   27.050;  278.000;  256.000
345.035;  -54.450; -556.000; -496.000
345.169; -145.950; -933.000; -656.000
345.303;  -25.525; -308.000; -482.000
345.437;  -60.325; -826.000; -717.000
345.571;  -91.175; -675.000; -594.000
345.704;  -66.850; -309.000; -532.000
345.838;   -8.275; -331.000; -284.000
345.972;  -43.650; -543.000; -495.000
346.106;  137.650; -179.000; -190.000
346.239;  404.550; -312.000; -243.000
346.373;   20.250; -343.000; -302.000
346.507; -138.850; -950.000; -962.000
346.640;  210.075;  -30.000;   13.000
346.774;  -11.650; -650.000; -797.000
346.908;   -0.725; -138.000;  -11.000
347.041;  -90.775; -646.000; -593.000
347.175;   21.600;  259.000;   27.000
347.309;  -61.425; -698.000; -628.000
347.442;  -75.250; -883.000; -732.000
347.576;  348.825;  670.000;  668.000
347.709;  291.825; -123.000;  -52.000
347.843;  -70.575; -933.000; -825.000
347.976;   50.300;  235.000;  294.000
348.110; -192.925;-1268.000;-1186.000
348.243;  -95.875; -679.000; -772.000
348.377;    5.500;  -26.000;   60.000
348.510;   57.825;  403.000;  540.000
348.644;  -32.150;  -37.000; -159.000
348.777;    7.850;  180.000;  191.000
348.911;  -42.150; -142.000; -112.000
349.044;  214.300;  471.000;  448.000
349.178;  239.200;-1069.000;-1006.000
349.311;  127.950;  141.000;  255.000
349.444;  -43.375; -927.000; -813.000
349.578;   -6.775; -347.000; -200.000
349.711;  -83.625; -959.000; -862.000
349.845;   40.625; -661.000; -591.000
349.978; -141.225;-1224.000;-1137.000
350.111;  -74.900; -546.000; -612.000
350.244;  -61.175; -596.000; -700.000
350.378;   25.075; -392.000; -393.000
350.511;  -77.150; -393.000; -426.000
350.644;  -96.350; -808.000; -806.000
350.778;   17.800;  168.000;  104.000
350.911;    0.425;  134.000;  140.000
351.044;  -86.525; -685.000; -615.000
351.177;   -4.150; -321.000; -281.000
351.310;  -16.175;    3.000; -131.000
351.444;  -45.400; -888.000; -788.000
351.577;  153.700;  140.000;   90.000
351.710;  113.150;  593.000;  417.000
351.843;  -31.200; -165.000;  -77.000
351.976;   -4.950;  149.000;  -79.000
352.109;  -88.525; -621.000; -612.000
352.242;   -0.450; -464.000; -419.000
352.376;  -38.800; -580.000; -636.000
352.509;  273.925; -437.000; -356.000
352.642;   58.800; -654.000; -604.000
352.775;   91.800; -141.000;  -98.000
352.908; -105.325; -933.000; -904.000
353.041;  -92.225; -814.000; -824.000
353.174;  -53.225; -551.000; -424.000
353.307;  -69.800; -753.000; -764.000
353.440;   84.325;  541.000;  453.000
353.573; -109.275; -957.000;-1008.000
353.706;  -50.650; -384.000; -558.000
353.839;  -14.575; -264.000; -220.000
353.971;  -90.600; -657.000; -512.000
354.104;  -71.900; -896.000; -835.000
354.237;  -11.225; -627.000; -662.000
354.370;  -69.925; -846.000; -879.000
354.503; -160.125;-1231.000;-1308.000
354.636;  -18.275; -529.000; -348.000
354.769; -115.075; -937.000; -860.000
354.902;    0.800; -230.000; -139.000
355.034;   -1.000; -164.000; -220.000
355.167;   -7.300; -262.000; -162.000
355.300;  -94.525;-1061.000; -880.000
355.433;  753.500;  -71.000;  -14.000
355.565; 1140.725; -402.000; -384.000
355.698;  290.650; -356.000; -296.000
355.831;   18.275; -882.000; -801.000
355.964;  131.325; -285.000; -170.000
356.096;  -65.250; -856.000; -843.000
356.229;   49.825; -523.000; -530.000
356.362;  240.575; -373.000; -266.000
356.494;  443.650; -229.000; -162.000
356.627;  556.625;  269.000;  377.000
356.760;  562.350;  120.000;   53.000
356.892;  700.150; -286.000; -601.000
357.025;  818.800;  403.000;  389.000
357.157;  766.825; -167.000; -179.000
357.290;  415.525; -856.000; -713.000
357.423;  145.200; -667.000; -556.000
357.555;  157.800; -217.000; -228.000
357.688;  154.325; -483.000; -364.000
357.820;  542.475; -870.000; -877.000
357.953; 4183.850; -563.000; -589.000
358.085; 1028.525; -632.000; -612.000
358.218; 1735.800;-1131.000; -932.000
358.350;  320.200;  -58.000;  312.000
358.483;  -91.350;-1300.000;-1187.000
358.615;   51.575;-1182.000;-1078.000
358.747;  -12.350;-1187.000;-1058.000
358.880;   83.850; -810.000; -744.000
359.012;   -2.125; -376.000; -202.000
359.145;  -25.400; -480.000; -511.000
359.277;   80.575; -962.000; -913.000
359.409; 3514.300;  536.000;  231.000
359.542;  945.875; -738.000; -688.000
359.674;   95.375;   46.000;   13.000
359.806;  -51.825; -565.000; -438.000
359.939;  -41.975; -617.000; -516.000
360.071;  -52.700; -583.000; -579.000
360.203;  -36.725; -411.000; -364.000
360.335;   60.375;  164.000;  -16.000
360.468;  226.625; -249.000; -307.000
360.600; 2691.825; -547.000; -454.000
360.732; 2049.775; -546.000; -423.000
360.864;  265.975;-1216.000;-1044.000
360.996;  401.200; -516.000; -554.000
361.129;   85.150; -389.000; -598.000
361.261;   25.300;  110.000; -113.000
361.393;  -39.900; -252.000; -214.000
361.525;   44.325;   94.000;  244.000
361.657;  -26.775; -821.000; -703.000
361.789;   26.200; -139.000; -155.000
361.921;  349.125; -642.000; -593.000
362.053;  339.600;  524.000;  541.000
362.185;   55.950;  288.000;   72.000
362.318;  -42.275; -709.000; -705.000
362.450;  191.250;  294.000;  444.000
362.582;  307.950; -913.000; -870.000
362.714;  -18.400; -353.000; -332.000
362.846;  -90.000; -606.000; -490.000
362.978; -135.150; -941.000; -811.000
363.109;   91.100; -161.000; -260.000
363.241;  595.025; -739.000; -749.000
363.373;  338.675; -649.000; -564.000
363.505;  460.225; -186.000;  -91.000
363.637;  117.600; -787.000; -601.000
363.769; -118.225;-1067.000;-1080.000
363.901;  -66.175; -596.000; -654.000
364.033; -100.150;-1103.000;-1062.000
364.165;    1.775; -283.000; -283.000
364.296;   59.175; -316.000; -177.000
364.428;    9.575;-1344.000;-1220.000
364.560;  -85.700; -679.000; -661.000
364.692;  -49.400; -738.000; -835.000
364.824;  394.475; -588.000; -456.000
364.955;  415.825; -402.000; -564.000
365.087;  531.025;-1097.000; -852.000
365.219;   -7.900; -686.000; -816.000
365.351;  -71.975; -526.000; -572.000
365.482;   55.850;  300.000;  240.000
365.614;  -40.300; -402.000; -314.000
365.746;  -85.550; -729.000; -752.000
365.877; -101.775; -706.000; -672.000
366.009;  167.150;  -35.000;  -62.000
366.141; -102.200;-1249.000;-1134.000
366.272; -110.625; -803.000; -719.000
366.404; -117.450;-1005.000; -874.000
366.535;  -13.975; -139.000;  -12.000
366.667;  -92.675; -644.000; -649.000
366.799;   38.400;  353.000;  203.000
366.930;  -97.075; -862.000; -996.000
367.062;  115.500; -639.000; -613.000
367.193;   55.125; -872.000; -842.000
367.325;  -65.275; -580.000; -684.000
367.456;  120.200; -246.000;   31.000
367.588;  122.375; -371.000; -318.000
367.719;    9.725;  -44.000;  -45.000
367.851;    9.025; -222.000; -241.000
367.982;  -31.750; -875.000; -732.000
368.113;  153.925; -475.000; -358.000
368.245; -107.175; -960.000; -841.000
368.376;   -1.725; -254.000; -302.000
368.508;  -22.125; -188.000; -263.000
368.639; -112.425;-1166.000;-1034.000
368.770;    1.050; -670.000; -589.000
368.902;  -29.650; -836.000; -926.000
369.033; -101.275; -906.000; -855.000
369.164;  -46.800; -720.000; -653.000
369.296; -114.825; -452.000; -601.000
369.427;   11.775; -209.000; -144.000
369.558;  -29.625; -593.000; -377.000
369.689;  -81.850; -721.000; -569.000
369.821; -135.475; -951.000; -845.000
369.952;   -8.575;   42.000; -108.000
370.083;  -52.050; -229.000; -108.000
370.214;  -74.100; -735.000; -650.000
370.345;   -5.125;   65.000;   81.000
370.477;  -65.950; -810.000; -790.000
370.608;  330.675; -328.000; -264.000
370.739;   -5.975;-1233.000;-1292.000
370.870;   -4.400;-1102.000; -923.000
371.001;  151.950; -378.000; -467.000
371.132;  -62.025; -754.000; -735.000
371.263;  -11.925;  -42.000; -148.000
371.394; -126.775; -841.000; -748.000
371.525;   48.100;  345.000;  225.000
371.657;  -86.000; -808.000; -670.000
371.788;   98.075;  103.000;  199.000
371.919;  259.625; -384.000; -304.000
372.050; 4519.800;  -91.000; -156.000
372.181; 1351.050; -188.000; -294.000
372.311;  499.150;   42.000; -127.000
372.442;   71.850; -457.000; -451.000
372.573;   -1.375; -444.000; -340.000
372.704; -114.175;-1008.000; -980.000
372.835;  127.800; -228.000; -289.000
372.966;  -48.475; -646.000; -554.000
373.097;  -38.425; -575.000; -711.000
373.228;  -15.075; -717.000; -542.000
373.359;  228.350; -824.000; -536.000
373.490; 1262.150; -881.000; -727.000
373.620; 1552.250;-1001.000; -803.000
373.751; 2363.075; -332.000; -396.000
373.882; 1093.175; -663.000; -733.000
374.013;  114.925; -449.000; -262.000
374.143;  -20.675; -581.000; -659.000
374.274;  -84.300; -987.000; -908.000
374.405;  231.825; -388.000; -276.000
374.536;  606.500; -526.000; -387.000
374.666; 1539.300; -759.000; -807.000
374.797;  341.400; -817.000; -868.000
374.928; 1231.100; -710.000; -560.000
375.058; 1196.700; -535.000; -500.000
375.189;  110.875;  -59.000;  -93.000
375.320;  -83.025; -928.000;-1034.000
375.450;  -29.475; -625.000; -616.000
375.581;  -47.100; -526.000; -436.000
375.712;  -18.250; -574.000; -250.000
375.842;  411.125; -438.000; -415.000
375.973;  309.050; -554.000; -513.000
376.103;   -6.700; -665.000; -648.000
376.234;  -56.425; -531.000; -552.000
376.364;   -4.550; -944.000; -867.000
376.495;  401.825;  925.000;  529.000
376.625;   59.150; -472.000; -485.000
376.756;  114.375; -709.000; -678.000
376.886;  -62.400;-1178.000;-1026.000
377.017;    4.100;-1048.000;-1061.000
377.147;  215.300; -786.000; -782.000
377.278;   63.550;  174.000;  228.000
377.408; -134.850; -801.000; -815.000
377.538;  -92.550; -707.000; -693.000
377.669;  -78.350; -537.000; -613.000
377.799;  -59.800; -645.000; -635.000
377.929;  -28.775; -610.000; -428.000
378.060; -118.625; -781.000; -847.000
378.190;  -59.350; -726.000; -531.000
378.320;  -39.875; -401.000; -406.000
378.451;   -5.550; -131.000;  -22.000
378.581;   25.375;  -67.000; -110.000
378.711;  202.225; 1035.000;  866.000
378.841;   17.850; -533.000; -675.000
378.972;  -43.275; -871.000; -751.000
379.102;   45.200; -652.000; -579.000
379.232;   -2.375; -126.000;  -73.000
379.362;  -87.675;-1001.000; -885.000
379.492;   51.750; -373.000; -424.000
379.623;  143.975;    0.000;  111.000
379.753;  -60.000;-1107.000; -974.000
379.883;  250.450;   59.000;  156.000
380.013;   64.550;-1081.000;-1017.000
380.143;  -68.450;-1097.000;-1056.000
380.273;  -75.125; -985.000; -861.000
380.403;   13.450; -344.000; -257.000
380.533;   -0.425; -651.000; -664.000
380.663;  106.350;  173.000;  128.000
380.793;  -54.100;-1027.000;-1074.000
380.923;   -5.475; -103.000;  -34.000
381.053;  -85.475; -613.000; -623.000
381.183;  -18.350; -106.000; -248.000
381.313;   73.050; -656.000; -470.000
381.443;   77.925; -692.000; -473.000
381.573;  307.775; -402.000; -409.000
381.703;  455.800;-1249.000;-1095.000
381.833;  -98.625;-1454.000;-1336.000
381.963;  134.975; -134.000;  -87.000
382.093; 1687.900; -925.000; -909.000
382.223;  564.150; -713.000; -602.000
382.353;   24.625; -801.000; -608.000
382.482;  573.950;-1091.000; -964.000
382.612;  956.450; -872.000; -644.000
382.742;  561.300; -695.000; -622.000
382.872;  395.600; -565.000; -551.000
383.002;   93.750;  347.000; -132.000
383.131;   -2.650; -226.000; -160.000
383.261;  -27.700; -706.000; -768.000
383.391;  268.300; -552.000; -377.000
383.521; 2200.625;  451.000;  263.000
383.650;  455.275; -947.000; -904.000
383.780;  -30.350; -783.000; -656.000
383.910;  113.000;  880.000;  802.000
384.039;   72.450; -794.000; -656.000
384.169;  327.950;-1205.000;-1017.000
384.299;   11.000; -650.000; -662.000
384.428;  -69.500; -764.000; -680.000
384.558;  -25.000; -308.000; -275.000
384.687;  -19.375; -414.000; -334.000
384.817;   47.200;   75.000;   -2.000
384.947;   49.525; -234.000; -141.000
385.076;  361.575;  982.000;  912.000
385.206;  133.675;  369.000;  480.000
385.335;    5.100; -549.000; -417.000
385.465;  -57.825; -655.000; -663.000
385.594;  193.925;  -53.000;  -44.000
385.724;  636.425; -868.000; -838.000
385.853;  185.100; -296.000; -270.000
385.982; 1844.725; -743.000; -787.000
386.112; 2847.300;-1052.000; -871.000
386.241;  203.375; -307.000; -312.000
386.371;   53.525; -174.000;  -87.000
386.500;   22.550; -825.000; -789.000
386.629;   40.650; -874.000; -817.000
386.759;   73.400;  -43.000;   68.000
386.888;   29.525; -170.000; -250.000
387.017;  -43.925; -648.000; -620.000
387.147;  -54.150; -771.000; -798.000
387.276;   32.025; -410.000; -397.000
387.405;   36.550; -398.000; -342.000
387.535;  -47.350; -452.000; -361.000
387.664;  -48.300; -692.000; -620.000
387.793;   97.000; -198.000; -113.000
387.922;  713.800;  255.000;  200.000
388.052;   72.600; -576.000; -423.000
388.181;   83.525; -342.000; -472.000
388.310;  103.275; -889.000; -710.000
388.439;   34.200; -749.000; -742.000
388.568;  282.600;  365.000;  244.000
388.697; 1460.625; -756.000; -653.000
388.826;  335.025; -768.000; -666.000
388.956;  104.875; -285.000; -307.000
389.085;  -18.850; -347.000; -287.000
389.214;  -98.200; -842.000; -872.000
389.343;  -47.875; -645.000; -413.000
389.472;  334.475;  126.000;  149.000
389.601;  465.500;   91.000;    0.000
389.730;   50.225; -568.000; -687.000
389.859;   97.250;  226.000;   46.000
389.988;  269.400; -423.000; -408.000
390.117;  200.925; -168.000; -146.000
390.246;   14.425; -331.000; -320.000
390.375;  176.725; -673.000; -626.000
390.504;  -24.775; -703.000; -621.000
390.633;  -88.775; -672.000; -726.000
390.761;  -49.850; -732.000; -645.000
390.890;   65.975;   -4.000; -130.000
391.019;   15.075; -421.000; -441.000
391.148; -101.150; -826.000; -855.000
391.277;  -58.650; -576.000; -493.000
391.406;  -44.100; -821.000; -805.000
391.534;   32.550;  574.000; -301.000
391.663;  -50.500; -583.000; -645.000
391.792;  -81.125; -673.000; -701.000
391.921;  187.000;   -3.000;   15.000
392.050;  345.375; -287.000; -228.000
392.178;    5.075;-1206.000;-1061.000
392.307;  244.875; -758.000; -712.000
392.436;  130.125; -427.000; -641.000
392.564;   33.750;  166.000;   -6.000
392.693;  -80.100; -860.000; -682.000
392.822;  295.450; -529.000; -534.000
392.950;  184.475; -880.000; -714.000
393.079;  454.525; -188.000; -328.000
393.208;   52.400; -488.000; -511.000
393.336;   -6.700; -170.000; -145.000
393.465;  -47.775; -317.000; -199.000
393.593;   14.125;   62.000;   79.000
393.722; -151.175;-1121.000; -916.000
393.850;  -24.450; -188.000;  -61.000
393.979; -147.625; -926.000; -805.000
394.107;  -56.525; -517.000; -537.000
394.236;  -21.950; -570.000; -507.000
394.364;  217.150;  383.000;  206.000
394.493;  346.425; -911.000; -767.000
394.621;  -26.675; -955.000; -916.000
394.750;  515.225; -873.000; -923.000
394.878; 2258.575; -247.000; -149.000
395.007; 3012.075; -721.000; -807.000
395.135;  204.775; -790.000; -721.000
395.263; -102.375;-1038.000;-1040.000
395.392;    7.775;  -25.000; -107.000
395.520; -139.200; -818.000; -679.000
395.648;  -59.825; -865.000; -915.000
395.777;   -0.700; -366.000; -405.000
395.905;  -37.425; -449.000; -564.000
396.033;   17.375;  217.000;  172.000
396.162;  595.975; -399.000; -453.000
396.290;  522.425;  -17.000;   -2.000
396.418;  163.475; -555.000; -514.000
396.546;  -55.150; -571.000; -466.000
396.674;  -71.825; -850.000; -878.000
396.803;   13.325;  -72.000;  -23.000
396.931;  155.750; -179.000; -199.000
397.059;  132.025;-1026.000; -989.000
397.187;  -88.825;-1026.000; -975.000
397.315; -116.975; -884.000; -649.000
397.443;  -87.425; -592.000; -443.000
397.572;  -88.500; -578.000; -424.000
397.700;   40.100; -607.000; -614.000
397.828;   37.675;  120.000;  -90.000
397.956;  -45.950; -508.000; -478.000
398.084;  -75.425; -767.000; -626.000
398.212;   60.400;  137.000;  124.000
398.340;   33.400;  -56.000;  159.000
398.468;   80.200; -390.000; -169.000
398.596; -111.750; -993.000; -953.000
398.724; -100.275; -762.000; -767.000
398.852; -162.175;-1024.000; -976.000
398.980;  -46.025; -560.000; -560.000
399.108;  -35.725; -982.000; -735.000
399.236;   58.800;   13.000;    8.000
399.363;   15.350;  222.000;  196.000
399.491;  -71.050; -404.000; -398.000
399.619; -118.125; -829.000; -800.000
399.747;  -77.550; -859.000; -771.000
399.875;   95.725;  220.000;  234.000
400.003;  -57.100; -359.000; -284.000
400.130; -100.300; -421.000; -341.000
400.258;  -26.800;  -83.000;   38.000
400.386;  -57.300; -352.000; -168.000
400.514;  -19.825; -526.000; -587.000
400.641;  -72.875; -928.000; -802.000
400.769; -129.250; -979.000; -888.000
400.897; -101.450; -838.000; -793.000
401.025;   -5.625; -166.000; -152.000
401.152;  -13.375;  220.000;   38.000
401.280;  -79.425; -430.000; -429.000
401.408; -118.125; -712.000; -576.000
401.535;  -93.375; -735.000; -758.000
401.663; -195.950;-1134.000;-1054.000
401.790;  -78.475; -514.000; -525.000
401.918;   33.375;  436.000;  405.000
402.046;  -17.775;  134.000;  122.000
402.173;  -31.450;  -18.000;    7.000
402.301;  -69.425; -519.000; -397.000
402.428;   30.000;  528.000;  383.000
402.556; -140.700;-1188.000; -913.000
402.683;  -25.850;  -20.000;   -1.000
402.811;    5.725;  -37.000; -206.000
402.938;  -18.125;   20.000;   27.000
403.066;  294.875; -574.000; -558.000
403.193;  445.375;  299.000;  239.000
403.321;  369.475; -396.000; -574.000
403.448;  437.700;   83.000;   27.000
403.575;  200.000;  -90.000;  -46.000
403.703;  -92.400; -732.000; -557.000
403.830;  -61.500; -531.000; -496.000
403.957; -138.750;-1117.000;-1023.000
404.085;    3.075;  -61.000; -172.000
404.212;  114.825;  -50.000;   63.000
404.339;  216.950; -566.000; -306.000
404.467; 4263.450; -612.000; -524.000
404.594; 3349.300; -287.000; -227.000
404.721;  955.275; -869.000; -764.000
404.848;   92.075; -113.000; -202.000
404.976;  -95.000; -856.000; -783.000
405.103;    0.600;  -14.000;  -82.000
405.230;  -12.200;  190.000;  226.000
405.357;   30.300;  117.000;   44.000
405.484;  202.750;  -49.000;    5.000
405.612;   20.175; -548.000; -563.000
405.739;  -66.600; -488.000; -243.000
405.866;   99.575;  669.000;  385.000
405.993;  -34.025; -398.000; -102.000
406.120; -137.800; -801.000; -887.000
406.247;  -53.500; -323.000; -342.000
406.374;  607.925;  540.000;  629.000
406.501;  199.750; -632.000; -702.000
406.628;  -72.150; -621.000; -589.000
406.755;  -83.175; -803.000; -620.000
406.882;  -28.225; -228.000; -277.000
407.009; -103.850; -719.000; -628.000
407.136;  102.450; -480.000; -401.000
407.263;  240.350; -939.000; -829.000
407.390;  -34.125; -692.000; -614.000
407.517; -147.100;-1139.000;-1187.000
407.644;  -43.325; -332.000; -256.000
407.771;  -77.825; -249.000; -287.000
407.898;   14.375;  168.000;  328.000
408.025;  -65.450; -421.000; -313.000
408.151;   -1.650;   82.000;  153.000
408.278;  -65.425; -267.000; -216.000
408.405;  -96.775; -931.000; -899.000
408.532;  -81.625; -549.000; -542.000
408.659; -110.925; -677.000; -648.000
408.785; -205.575;-1298.000;-1170.000
408.912;  -55.500; -412.000; -296.000
409.039; -118.300; -610.000; -686.000
409.166; -101.850; -591.000; -555.000
409.292; -117.825; -571.000; -534.000
409.419; -116.550; -665.000; -649.000
409.546;  -98.425; -431.000; -192.000
409.672; -108.825; -713.000; -545.000
409.799;  -20.975;  -36.000;   34.000
409.926;  -33.425; -180.000; -179.000
410.052; -173.100;-1127.000;-1091.000
410.179;  -56.575; -368.000; -392.000
410.305;  -97.025; -375.000; -493.000
410.432;  -29.275; -220.000; -333.000
410.558;  -88.375; -305.000; -380.000
410.685; -105.525; -688.000; -431.000
410.812;  -97.100; -409.000; -588.000
410.938; -131.725; -964.000; -808.000
411.065;  -91.025; -671.000; -645.000
411.191;  -10.425; -189.000; -174.000
411.317; -114.900; -823.000; -742.000
411.444;  -57.650; -317.000; -246.000
411.570;  -75.875; -339.000; -294.000
411.697; -123.275; -758.000; -752.000
411.823; -171.700; -989.000; -999.000
411.949;  -13.275;  -56.000;   17.000
412.076; -119.350; -539.000; -519.000
412.202; -102.000; -758.000; -757.000
412.329; -126.350; -798.000; -752.000
412.455; -108.000; -821.000; -657.000
412.581;  -21.500;  -15.000;  172.000
412.707;  -37.800; -540.000; -457.000
412.834;    9.350;  156.000;  219.000
412.960;  -87.800; -785.000; -784.000
413.086; -110.325; -743.000; -701.000
413.212;  207.475;  604.000;  578.000
413.339;  -49.625; -685.000; -701.000
413.465;   42.950; -364.000; -310.000
413.591;  -78.500; -757.000; -474.000
413.717;  -51.550; -358.000; -366.000
413.843; -146.125; -839.000; -861.000
413.969;  -62.675;  -47.000; -292.000
414.096; -101.250; -679.000; -679.000
414.222;    5.175;  -33.000;   85.000
414.348;   14.325; -652.000; -385.000
414.474;  139.575;   38.000;  -52.000
414.600;  -19.625; -126.000; -144.000
414.726;   -9.250;  -96.000;  -55.000
414.852;  -71.200; -365.000; -342.000
414.978;   33.450;  104.000;  -18.000
415.104;   29.700;   38.000;   80.000
415.230;   25.700; -329.000; -330.000
415.356;   26.275; -409.000; -514.000
415.482;  196.300;   13.000;  -35.000
415.608;  212.325; -247.000; -323.000
415.734;  807.300;   67.000;   38.000
415.860;16529.750; -875.000; -767.000
415.986;11996.325; -685.000; -607.000
416.111; 1017.500; -798.000; -652.000
416.237;  179.675; -424.000; -571.000
416.363;  830.800; -765.000; -733.000
416.489; 3153.625; -324.000; -251.000
416.615;  294.550; -707.000; -742.000
416.741;  -44.475; -677.000; -784.000
416.866; -114.325; -673.000; -736.000
416.992; -122.650; -801.000; -818.000
417.118;  -31.675;  -41.000;  -80.000
417.244;  -57.425; -798.000; -531.000
417.369; -101.425; -801.000; -612.000
417.495;   11.975; -325.000; -254.000
417.621;  -70.650;-1015.000; -803.000
417.746;    3.425; -579.000; -572.000
417.872;   30.125; -254.000; -144.000
417.998;   18.650; -515.000; -530.000
418.123;  772.300;-1073.000; -845.000
418.249; 4102.200; -512.000; -601.000
418.374;  549.250; -916.000; -824.000
418.500;   82.525; -383.000; -482.000
418.626;   84.925;   70.000;  -59.000
418.751;   82.700; -549.000; -448.000
418.877;  155.075; -637.000; -643.000
419.002; 1360.225; -688.000; -560.000
419.128; 9598.150; -930.000; -721.000
419.253; 2320.875; -967.000; -837.000
419.379;  275.650; -391.000; -338.000
419.504;  315.875;  325.000;  415.000
419.629;  363.875; -393.000; -212.000
419.755; 2513.800; -317.000; -254.000
419.880;14989.375;  -98.000;   67.000
420.006; 8787.000; -280.000; -221.000
420.131;23483.450; -662.000; -775.000
420.256; 3452.050; -315.000; -316.000
420.382;  443.300; -665.000; -687.000
420.507;   43.300; -649.000; -778.000
420.632;  209.875; -337.000; -339.000
420.758;  394.500; -251.000; -425.000
420.883;  -74.550; -876.000; -672.000
421.008;  -92.375; -775.000; -619.000
421.133;  -67.525; -509.000; -467.000
421.259;  -48.125; -325.000; -259.000
421.384; -104.200; -834.000; -693.000
421.509;   10.450;-1052.000; -862.000
421.634; 1816.375; -936.000; -820.000
421.759;  781.300; -359.000; -327.000
421.885;  -17.075; -717.000; -656.000
422.010;  -58.750; -673.000; -542.000
422.135; -145.500; -695.000; -727.000
422.260;   37.225;  340.000;  280.000
422.385;  -49.775;   12.000;  -98.000
422.510;    9.900;  151.000;  -26.000
422.635;    9.025;  -87.000;  -43.000
422.760;  118.925; -766.000; -791.000
422.885;   52.275;  -57.000;  -80.000
423.010;  -29.775; -112.000; -169.000
423.135;  -96.575; -481.000; -561.000
423.260;    6.000; -150.000; -245.000
423.385;   77.500;  476.000;  222.000
423.510;   51.300;   71.000;  -22.000
423.635;  104.475;  133.000;   45.000
423.760;   69.750;  383.000;  328.000
423.885;   50.300;  336.000;  391.000
424.010;   14.875;  -68.000;  -13.000
424.135;  -25.900;    5.000;  -33.000
424.259;  -93.075; -654.000; -457.000
424.384;  -68.625; -279.000; -272.000
424.509;  -18.100; -260.000; -186.000
424.634; -115.400; -761.000; -623.000
424.759;  -35.175; -688.000; -544.000
424.883;  -24.375; -506.000; -527.000
425.008;  135.700; -502.000; -410.000
425.133; 1548.750; -679.000; -653.000
425.258;  735.750; -517.000; -381.000
425.382; 1229.325; -867.000; -774.000
425.507; 3253.500; -487.000; -543.000
425.632;  447.950; -802.000; -663.000
425.756;  348.650; -256.000; -146.000
425.881; 4417.675; -831.000; -857.000
426.006;11688.275; -604.000; -355.000
426.130; 1976.550; -696.000; -508.000
426.255;  234.025; -611.000; -491.000
426.379;   91.800; -189.000; -577.000
426.504;  333.100;  660.000;  544.000
426.629; 3336.925; -519.000; -466.000
426.753; 2335.300;   64.000;  -46.000
426.878;  256.475; -252.000; -288.000
427.002;  147.725; -651.000; -668.000
427.127; 1294.975;  -35.000; -158.000
427.251; 8758.300;  372.000;  401.000
427.375; 2544.750; -191.000; -173.000
427.500; 2754.550; -616.000; -610.000
427.624;  957.050; -234.000; -400.000
427.749;  132.600; -216.000; -225.000
427.873;  -29.250; -499.000; -412.000
427.997;  -22.175; -222.000; -230.000
428.122;   79.400;  795.000;  703.000
428.246;   97.800;  433.000;  434.000
428.371; -114.525; -869.000; -773.000
428.495;  -98.425; -624.000; -646.000
428.619;  -30.050; -186.000; -117.000
428.743;   27.375;   65.000;  132.000
428.868;   40.075; -732.000; -643.000
428.992; 1821.500; -219.000; -326.000
429.116;  790.100; -329.000; -357.000
429.240;  390.650;  419.000;  426.000
429.365;  -13.425; -454.000; -574.000
429.489;  -20.800; -638.000; -647.000
429.613;   20.150; -236.000; -177.000
429.737;   26.400; -563.000; -432.000
429.861;  234.250; -247.000; -133.000
429.985; 4379.275; -425.000; -305.000
430.109; 4763.800; -770.000; -908.000
430.234;  553.775;   76.000;  -50.000
430.358;   39.275; -250.000; -160.000
430.482;  -67.050; -672.000; -564.000
430.606;  -74.825; -655.000; -375.000
430.730;   34.125; -437.000; -388.000
430.854;  213.775; -909.000; -835.000
430.978;  -34.700; -795.000; -764.000
431.102;  -63.775; -499.000; -422.000
431.226;  -88.325; -874.000; -815.000
431.350;   45.175;  345.000;  422.000
431.474;  -46.450; -661.000; -373.000
431.597; -146.475;-1060.000; -848.000
431.721;  -67.300; -276.000; -267.000
431.845; -140.850; -704.000; -472.000
431.969;  -80.125; -304.000; -349.000
432.093;  -99.500; -395.000; -317.000
432.217;  -23.000;   32.000;   82.000
432.341; -100.475; -523.000; -518.000
432.464;   28.525;   96.000;   40.000
432.588;  289.925; -401.000; -329.000
432.712;  140.675;  -52.000;  -52.000
432.836;   46.625;  213.000;  263.000
432.959;  -18.075; -372.000; -311.000
433.083;   43.075;   11.000;    2.000
433.207;  322.150;  285.000;  930.000
433.330; 3764.525; -391.000; -200.000
433.454; 4629.650; -654.000; -638.000
433.578; 2734.750;  583.000;  278.000
433.701;  536.125; -623.000; -675.000
433.825;  203.925; -292.000; -299.000
433.949;  327.450;   28.000;  -72.000
434.072;  151.000; -410.000; -323.000
434.196;    4.425; -309.000; -117.000
434.319; 3728.225;25482.000;25124.000
434.443;  693.375; -656.000; -603.000
434.566; 2094.025;  281.000;   62.000
434.690;  315.550; -637.000; -383.000
434.813;   58.025; -251.000; -173.000
434.937;  -60.900; -569.000; -696.000
435.060;    8.125; -423.000; -332.000
435.184;  591.875; -492.000; -217.000
435.307;  311.350;  159.000;  102.000
435.431;    9.050;  -40.000;   24.000
435.554;  -83.875; -399.000; -240.000
435.677;  -78.150; -350.000; -258.000
435.801;  -29.375;  -25.000;   49.000
435.924;   25.525;    1.000;  -67.000
436.048;  -70.325;-1019.000; -732.000
436.171;  -55.375; -240.000;  -66.000
436.294;  -34.625; -248.000; -229.000
436.417;   38.450; -963.000; -849.000
436.541; -113.650; -814.000; -840.000
436.664;  -44.950; -242.000; -316.000
436.787;  -19.650;   13.000;  113.000
436.910;  -96.100; -792.000; -422.000
437.034;   21.300;  142.000;  143.000
437.157;  118.775;  -11.000;    0.000
437.280;  -19.775; -392.000; -292.000
437.403;  -35.375; -982.000; -869.000
437.526; 1073.425; -903.000; -865.000
437.649; 3648.825; -505.000; -332.000
437.772;  602.950; -692.000; -540.000
437.896;  165.450;  700.000;  544.000
438.019;  -91.625; -758.000; -503.000
438.142;  -68.675; -596.000; -506.000
438.265;   40.825; -639.000; -670.000
438.388;  852.100; -520.000; -410.000
438.511;  214.350; -597.000; -394.000
438.634;  -12.150; -247.000; -125.000
438.757; -135.050; -693.000; -619.000
438.880;  -18.350;  -34.000;  -57.000
439.003;  -75.175; -417.000; -437.000
439.126;  -60.325; -287.000; -167.000
439.248;  -68.100;  -98.000; -139.000
439.371;  -34.975;    9.000;  -53.000
439.494;    2.325;  510.000;  439.000
439.617;  -54.050;   65.000;  -88.000
439.740; -189.775; -968.000; -816.000
439.863; -140.925; -755.000; -595.000
439.986; -123.700; -476.000; -431.000
440.108;  -43.225; -161.000; -112.000
440.231; -161.175; -950.000; -836.000
440.354;  -26.450;  -64.000; -150.000
440.477;   84.800; -566.000; -542.000
440.599;   57.625; -200.000; -225.000
440.722; -133.225; -709.000; -586.000
440.845;   63.175;  751.000;  928.000
440.968; -112.600; -415.000; -311.000
441.090;  -69.075; -199.000;  -33.000
441.213; -169.200;-1021.000; -825.000
441.336;  -45.925; -159.000;   -5.000
441.458;  -71.975; -549.000; -396.000
441.581;  -56.250; -628.000; -629.000
441.703;  -76.200; -152.000;   13.000
441.826; -108.925; -557.000; -400.000
441.948;  -55.025;   56.000;   51.000
442.071;   30.100;  555.000;  424.000
442.193; -119.625; -531.000; -485.000
442.316;   24.850;  152.000;   97.000
442.438;   22.275; -233.000;  -10.000
442.561;   83.650;  272.000;  262.000
442.683;  885.275; -809.000; -522.000
442.806; 1798.000;   -8.000;   74.000
442.928;  127.575; -859.000; -604.000
443.051;  -51.150; -577.000; -373.000
443.173;  -82.200; -341.000; -339.000
443.295;  -79.200; -263.000; -371.000
443.418;  -85.450; -321.000;  -29.000
443.540;   -3.775; -106.000;   -4.000
443.662; -112.900; -563.000; -465.000
443.785;   -6.250;  335.000;  199.000
443.907; -112.100; -362.000; -208.000
444.029; -128.075; -767.000; -494.000
444.152; -148.075; -644.000; -554.000
444.274;  -43.300;  -18.000;  -24.000
444.396; -107.150; -461.000; -221.000
444.518; -136.500; -691.000; -454.000
444.640; -114.950; -268.000; -111.000
444.763;   -6.350;  388.000;  249.000
444.885; -112.175; -432.000; -392.000
445.007;  -23.725;   35.000;   86.000
445.129; -130.800; -610.000; -515.000
445.251;  -90.375; -372.000; -439.000
445.373; -156.500; -537.000; -386.000
445.495;    0.125;  242.000;  350.000
445.617;   50.000;  853.000;  753.000
445.739;  -66.675; -215.000;  -97.000
445.861;  -35.275; -245.000; -112.000
445.984;  -22.975; -267.000; -101.000
446.105;  300.175; -418.000; -251.000
446.227;  886.475; -176.000;  -19.000
446.349;   66.625; -358.000; -249.000
446.471;  -75.900; -615.000; -448.000
446.593;  -67.300; -316.000;   19.000
446.715;   19.075;  -67.000;   41.000
446.837;   52.550;  697.000;  832.000
446.959;  -97.100; -457.000; -478.000
447.081; -130.550; -628.000; -518.000
447.203;   61.475;  862.000;  834.000
447.325;  -95.025; -270.000;   42.000
447.446;   -8.600;  286.000;  530.000
447.568; -142.200; -921.000; -803.000
447.690;  -67.825; -236.000; -245.000
447.812; -156.125; -798.000; -519.000
447.933;  -27.250;  155.000;  127.000
448.055;  -72.100; -306.000; -261.000
448.177;  207.275;   31.000;   79.000
448.299;  158.700; -935.000; -727.000
448.420;   40.025;  -25.000;  159.000
448.542;  -40.125;   -3.000;   33.000
448.664;  -25.925;  109.000;  322.000
448.785;  -42.875;  265.000;   83.000
448.907;  -63.000; -614.000; -353.000
449.028;  -23.525; -771.000; -471.000
449.150;   52.025;  492.000;  589.000
449.272; -180.150;-1044.000; -913.000
449.393;   26.200;  612.000;  694.000
449.515; -139.175; -634.000; -581.000
449.636;  -47.350; -264.000; -155.000
449.758;   83.150;  763.000;  622.000
449.879;  -96.975; -498.000; -396.000
450.001;  -66.500; -149.000;  -49.000
450.122;  -37.650;  -95.000;  162.000
450.244;  -16.700;   37.000;  364.000
450.365;  -90.800; -495.000; -301.000
450.486;  -47.600;   80.000;  268.000
450.608;    9.950;  393.000;  326.000
450.729;   28.650;  578.000;  645.000
450.850;  -36.250; -574.000; -466.000
450.972;  469.775; -552.000; -389.000
451.093; 3461.175;  190.000;  588.000
451.214; 1487.775; -516.000; -337.000
451.336;  296.175;  773.000;  579.000
451.457;   33.925;  264.000;  393.000
451.578;  -42.275; -118.000;  -74.000
451.699; -145.075; -546.000; -540.000
451.821;  -78.450; -284.000;  -50.000
451.942;  -27.825;  278.000;  285.000
452.063;   17.575;  228.000;  419.000
452.184;  382.525;  -54.000;  -49.000
452.305;  832.100;  103.000;  170.000
452.427;   51.225; -549.000; -301.000
452.548;  -22.600;   23.000;   79.000
452.669;  -47.725; -257.000;  -89.000
452.790;  -30.600;    3.000;  -18.000
452.911;   -8.950;  195.000;  259.000
453.032;  -55.950; -289.000;  -60.000
453.153;  -31.125;  -29.000;   81.000
453.274;   58.750;  737.000;  868.000
453.395;  -53.925;  -51.000;  175.000
453.516;  127.200; 1317.000; 1388.000
453.637;  -54.200; -205.000; -150.000
453.758;  -49.075;   15.000;   69.000
453.879; -124.450; -462.000; -250.000
454.000;   87.550; 1086.000;  948.000
454.121; -109.975; -554.000; -326.000
454.242; -107.500; -599.000; -383.000
454.362;  -59.175;  -99.000;  114.000
454.483;  -28.225; -309.000; -229.000
454.604;   74.125;  512.000;  580.000
454.725; -129.700; -627.000; -555.000
454.846; -120.000; -474.000; -406.000
454.967;  -27.275;  230.000;  539.000
455.087;  -54.925;  179.000;  153.000
455.208;   14.075;  554.000;  856.000
455.329;  -63.650;  -22.000;   82.000
455.450;   31.975;  473.000;  633.000
455.570;  -83.175; -234.000; -211.000
455.691;  -40.675;  201.000;  407.000
455.812; -116.750; -270.000;  -92.000
455.932;  -62.450;  107.000;  -97.000
456.053;  -99.250;   36.000;   24.000
456.173; -102.225; -433.000; -355.000
456.294; -145.175; -476.000; -303.000
456.415;  -68.150;  -73.000;   70.000
456.535;  -56.175;  297.000;  273.000
456.656;  -40.250;  132.000;  240.000
456.776;  -77.275;    3.000;  298.000
456.897;  -20.550;  308.000;  513.000
457.017;  -74.550; -153.000;   -3.000
457.138;  -98.550; -402.000; -249.000
457.258;  -30.150;  263.000;  224.000
457.379;  -15.575;  509.000;  521.000
457.499;  -35.400;  443.000;  432.000
457.620; -116.750; -407.000; -231.000
457.740;  -96.200; -132.000;  -11.000
457.860;  -68.375;   87.000;   44.000
457.981;  -58.050;  132.000;  124.000
458.101;  -63.850;  -89.000;   40.000
458.221;  -27.025;  336.000;  402.000
458.342;  -53.025;   -4.000;  -37.000
458.462;    9.450;  617.000;  352.000
458.582;  -67.975; -302.000; -294.000
458.703;  -26.950;  303.000;  154.000
458.823;  -38.675;   22.000;  163.000
458.943;    0.450;  341.000;  467.000
459.063;   -8.350; 1124.000;  192.000
459.183;  -15.875;  328.000;  313.000
459.304;    6.475;  315.000;  517.000
459.424;  -72.950; -246.000;  -89.000
459.544;  259.925;  388.000;  764.000
459.664;  609.575;  499.000;  506.000
459.784;  250.625; 1004.000; 1175.000
459.904;   52.025;  867.000;  744.000
460.024;   78.175;  867.000;  684.000
460.144;   15.625;  449.000;  554.000
460.264;  -13.100;  515.000;  327.000
460.385; -107.800; -145.000; -119.000
460.505;   30.525;  905.000;  858.000
460.625; -105.425;  -17.000;  -68.000
460.745;  -17.400;  396.000;  541.000
460.864;  -44.925;  153.000;  469.000
460.984;   32.675;  499.000;  573.000
461.104;  124.525; 1656.000; 1775.000
461.224;   28.050;  657.000;  650.000
461.344;  -20.000;  431.000;  360.000
461.464;  -14.375;  258.000;  513.000
461.584;   -3.650;  283.000;  466.000
461.704;  -35.250;   58.000;  108.000
461.824;  -62.275;  238.000;  259.000
461.943;  -41.125;  191.000;  130.000
462.063;  -79.275;    2.000;  324.000
462.183;   29.850;  639.000;  717.000
462.303;  103.075; 1678.000; 1230.000
462.422;   28.125;  781.000;  840.000
462.542;  -36.425;  271.000;  391.000
462.662;   33.200;  353.000;  380.000
462.782;  189.175;  833.000;  572.000
462.901;  367.625;  545.000;  717.000
463.021;  242.900; 1702.000; 1638.000
463.141;  -12.700;  337.000;  770.000
463.260;  -33.200;  614.000;  474.000
463.380;    6.650;  902.000;  884.000
463.499;  -55.125;  342.000;  332.000
463.619;  -22.800;  581.000;  559.000
463.738;  113.800; 1644.000;  903.000
463.858;   12.775;  657.000;  811.000
463.978;  -37.300;  542.000;  396.000
464.097;   31.550;  921.000; 1114.000
464.217;   86.025; 1196.000; 1143.000
464.336;   95.100; 1068.000; 1130.000
464.455;  -40.925;  328.000;  659.000
464.575;   66.125;  597.000;  602.000
464.694;  196.200; 1204.000; 1179.000
464.814;  108.725; 1190.000; 1138.000
464.933;   71.975; 1095.000; 1027.000
465.052;  102.600; 1412.000; 1054.000
465.172;   69.850;  922.000;  799.000
465.291;  164.125; 1376.000; 1320.000
465.410;   11.375;  462.000;  735.000
465.530;   95.750; 1355.000; 1310.000
465.649;   55.475; 1209.000; 1273.000
465.768;  154.275; 1673.000; 1508.000
465.888;   42.900;  941.000; 1174.000
466.007;   83.850; 1335.000; 1440.000
466.126;  -12.750;  721.000;  641.000
466.245;   55.750; 1176.000; 1187.000
466.364;   20.075;  950.000; 1060.000
466.484;   55.550; 1024.000; 1213.000
466.603;   28.275; 1101.000; 1222.000
466.722;  132.350; 1490.000; 1769.000
466.841;   75.725; 1151.000; 1401.000
466.960;   32.400; 1069.000;  972.000
467.079;  132.050; 1971.000; 1786.000
467.198;   47.700; 1238.000; 1181.000
467.317;   82.225; 1768.000; 1162.000
467.436;   77.500; 1709.000; 1261.000
467.555;  125.275; 1796.000; 1746.000
467.674;   54.050; 1227.000; 1329.000
467.793;   46.950; 1376.000; 1374.000
467.912;  107.200; 1658.000; 1539.000
468.031;  128.300; 2038.000; 1930.000
468.150;  137.450; 1842.000; 1837.000
468.269;  207.475; 2313.000; 2090.000
468.388;  206.850; 2168.000; 2339.000
468.507;  253.375; 2884.000; 2903.000
468.626;  231.075; 2555.000; 2541.000
468.744;  138.650; 2018.000; 2174.000
468.863;  195.350; 2312.000; 2523.000
468.982;   84.200; 1503.000; 1555.000
469.101;  219.300; 2788.000; 2692.000
469.220;  146.750; 2333.000; 2176.000
469.338;  245.075; 2935.000; 3051.000
469.457;  198.900; 2719.000; 2545.000
469.576;  353.175; 3953.000; 3784.000
469.695;  232.225; 2877.000; 3066.000
469.813;  430.525; 4148.000; 4192.000
469.932;  412.250; 4255.000; 4485.000
470.051;  409.000; 4075.000; 4161.000
470.169;  721.200; 4470.000; 4338.000
470.288; 1232.375; 4700.000; 4809.000
470.406;  771.875; 5059.000; 5194.000
470.525;  621.575; 6101.000; 5787.000
470.644;  672.475; 6847.000; 6794.000
470.762;  831.700; 8397.000; 7873.000
470.881;  874.100; 8651.000; 8464.000
470.999; 1012.150; 9685.000; 9151.000
471.118; 1085.150;11174.000;10711.000

