
Integration time [ms]: 100.000
Averaging Nr. [scans]: 40
Smoothing Nr. [pixels]: 0
Data measured with spectrometer [name]: 2101012U2
Wave   ;Sample   ;Dark     ;Reference
[nm]   ;[counts] ;[counts] ;[counts] 

197.733;   67.050;  516.000;  404.000
197.879;  -63.500; -610.000; -634.000
198.025;  -46.175; -475.000; -420.000
198.171;  -69.825; -602.000; -612.000
198.317;  -38.650; -401.000; -316.000
198.463;  -64.600; -655.000; -404.000
198.609;   35.475;  181.000; -137.000
198.755;  -83.950; -644.000; -410.000
198.901;  -72.675; -505.000; -424.000
199.047;  -55.325; -615.000; -488.000
199.193;  -36.275; -230.000; -468.000
199.339;  -39.925; -222.000; -369.000
199.485;   41.600;  330.000;  271.000
199.631;   14.250;  227.000;  310.000
199.777;  -54.475; -466.000; -398.000
199.923;  -57.750; -610.000; -424.000
200.069;  -14.825; -141.000;  -58.000
200.215;   60.575;  128.000;  453.000
200.361;   41.000;  243.000;  477.000
200.507;  -57.250; -600.000; -373.000
200.653;  -14.775; -371.000; -194.000
200.798;  -33.625; -215.000; -125.000
200.944;   -5.000; -146.000;  -41.000
201.090;   43.975;   61.000;  222.000
201.236;    4.200; -116.000; -158.000
201.382;  117.200;  874.000;  903.000
201.528;    8.975;  -58.000;  -48.000
201.674;  -43.300; -386.000; -293.000
201.819;  -64.375; -540.000; -439.000
201.965;  -75.975; -699.000; -447.000
202.111;  -20.550; -273.000; -226.000
202.257;  -13.925; -250.000; -238.000
202.402;   -1.350;   13.000;  -36.000
202.548;  -18.475; -169.000; -116.000
202.694;   75.950;  410.000; -183.000
202.840;  -81.050; -603.000; -531.000
202.985;  -66.525; -681.000; -639.000
203.131; -100.025; -832.000; -666.000
203.277;  -10.050; -199.000; -262.000
203.423;  -54.725; -434.000; -520.000
203.568;  -42.075; -462.000; -237.000
203.714;  -58.550; -535.000; -542.000
203.860;  -70.675; -682.000; -641.000
204.005;   12.000;  112.000;  167.000
204.151;   73.825;  561.000;  556.000
204.296;  -49.675; -354.000; -221.000
204.442;  -74.900; -600.000; -547.000
204.588;  -78.875; -592.000; -579.000
204.733;    8.725;  178.000;  168.000
204.879; -124.525;-1018.000; -822.000
205.025;    2.500;  -99.000;  126.000
205.170;    3.625;  -17.000;   94.000
205.316;   87.375;  438.000;  661.000
205.461;  -65.675; -698.000; -554.000
205.607;   86.650;  609.000;  665.000
205.752;  -72.550; -626.000; -551.000
205.898;  -45.350; -501.000; -391.000
206.043;  -49.875; -578.000; -506.000
206.189;  -30.425; -243.000; -285.000
206.334;   73.150;  554.000;  606.000
206.480;   70.975;  409.000;  239.000
206.625;  -82.075; -529.000; -552.000
206.771;  -42.725; -451.000; -373.000
206.916;  -40.925; -210.000; -537.000
207.062;  -78.125; -545.000; -591.000
207.207;  -67.750; -546.000; -443.000
207.353;   40.950;  185.000;  460.000
207.498;   20.425;  196.000;   85.000
207.643;  -58.525; -501.000; -370.000
207.789; -131.275;-1069.000; -910.000
207.934; -102.325; -665.000; -713.000
208.080;  -24.400; -154.000;   66.000
208.225;   -7.500;  -22.000;  -57.000
208.370;  -72.925; -727.000; -619.000
208.516;  -85.175; -741.000; -487.000
208.661;  -36.650; -127.000;  -69.000
208.806;  -33.000; -165.000; -171.000
208.952; -115.200;-1044.000; -731.000
209.097;   62.150;  378.000;  349.000
209.242;  -37.600; -307.000; -382.000
209.387;   50.650;  392.000;  350.000
209.533;  -49.025; -321.000; -350.000
209.678;   83.575;  472.000;  543.000
209.823;  -62.925; -408.000; -310.000
209.969;  -91.250; -860.000; -757.000
210.114;  -96.675; -907.000; -719.000
210.259; -114.275; -939.000; -889.000
210.404;  -12.450; -171.000;  103.000
210.549;   17.350;  108.000;    3.000
210.695;  -15.775;   -3.000;  -95.000
210.840;   31.250;   94.000;   67.000
210.985;  -65.450; -484.000; -303.000
211.130;   59.925;  268.000;  406.000
211.275;    6.450;  207.000;  199.000
211.420;  -49.800; -300.000; -289.000
211.566;  -71.075; -536.000; -489.000
211.711;   26.500;  218.000;  157.000
211.856;  -50.375; -545.000; -519.000
212.001;    8.450;  151.000;   44.000
212.146;   20.550;  153.000;   49.000
212.291;  -19.475; -210.000; -186.000
212.436;  -30.375; -280.000;   -6.000
212.581;  -83.175; -685.000; -653.000
212.726;  -70.650; -487.000; -538.000
212.871;  -54.950; -552.000; -217.000
213.016; -143.100;-1172.000;-1029.000
213.161;   63.050;  406.000;  291.000
213.306;  -66.425; -435.000; -577.000
213.451; -101.125; -778.000; -689.000
213.596;  -53.975; -455.000; -347.000
213.741;  -59.900; -448.000; -538.000
213.886;  -83.075; -498.000; -517.000
214.031;  -22.875; -294.000; -124.000
214.176;  -52.925; -408.000; -341.000
214.321;  -12.775; -296.000; -157.000
214.466;  -24.925; -163.000;  -43.000
214.611;   -7.125;  -61.000;  -10.000
214.756; -120.525; -948.000; -858.000
214.901;  -28.875; -388.000; -226.000
215.046; -107.300; -797.000; -825.000
215.191;    9.450;  128.000;   35.000
215.336;  -15.825; -157.000;  -19.000
215.480;  -72.275; -684.000; -505.000
215.625;  -22.850; -175.000;  -19.000
215.770;  -84.000; -757.000; -662.000
215.915;  -15.550;   -5.000;  -97.000
216.060;   -9.250; -113.000;  -21.000
216.205; -114.500; -731.000; -779.000
216.349;  -72.975; -470.000; -533.000
216.494; -133.700; -939.000; -867.000
216.639; -117.500; -823.000; -888.000
216.784;  -78.400; -577.000; -525.000
216.929;   54.050;  392.000;  281.000
217.073;  -21.825; -244.000;  -31.000
217.218;   -1.175;   78.000;  -47.000
217.363;  -91.000; -656.000; -618.000
217.507;  -64.775; -623.000; -588.000
217.652; -125.275; -845.000; -874.000
217.797;  -75.925; -708.000; -659.000
217.942; -110.975; -856.000; -720.000
218.086;   54.925;  608.000;  539.000
218.231;  -15.850; -174.000;  -26.000
218.376;  -41.750; -337.000; -229.000
218.520;   -8.775;  -41.000;   96.000
218.665;  -39.450; -338.000; -204.000
218.810;  -48.575; -275.000; -233.000
218.954;   12.500;  201.000;   35.000
219.099; -101.750; -713.000; -963.000
219.243;  -67.125; -589.000; -554.000
219.388;  -23.525; -264.000; -136.000
219.532;  -21.050; -116.000; -116.000
219.677;  -81.425; -564.000; -521.000
219.822;   -6.825;   33.000;   89.000
219.966;    8.950;   17.000;  -99.000
220.111;  -33.275; -328.000;  -40.000
220.255; -102.100; -797.000; -750.000
220.400;  -21.250; -180.000; -146.000
220.544;  -54.475; -516.000; -450.000
220.689;  -50.575; -422.000; -451.000
220.833;  -18.675; -123.000;  -58.000
220.978;  -50.100; -393.000; -563.000
221.122;   27.625;  319.000;  307.000
221.267; -119.125; -906.000; -837.000
221.411;  -66.500; -478.000; -394.000
221.555;   -6.000; -104.000;  -23.000
221.700;  -46.125; -329.000; -222.000
221.844;   29.175;  255.000;  272.000
221.989;  -51.450; -328.000; -311.000
222.133;  -37.200; -289.000; -307.000
222.277;   -6.425;    5.000;   78.000
222.422;   10.775;  227.000;  113.000
222.566;  -42.600; -381.000; -214.000
222.711;  -52.575; -414.000; -479.000
222.855;  -78.775; -643.000; -586.000
222.999;  -81.875; -642.000; -717.000
223.144;  -27.575; -195.000; -194.000
223.288;   56.975;  423.000;  251.000
223.432;   16.900;  184.000;  230.000
223.576;    4.475;  152.000;  -21.000
223.721;   28.575;  364.000;  273.000
223.865;  -57.200; -472.000; -475.000
224.009;  252.350; 1673.000; 1631.000
224.153;  -83.000; -660.000; -671.000
224.298;  -56.875; -531.000; -489.000
224.442;  -11.975;  -74.000;  -33.000
224.586;  -23.525; -169.000; -106.000
224.730;  -93.150; -858.000; -670.000
224.875; -104.725; -739.000; -688.000
225.019;   17.650;  102.000;  188.000
225.163;   45.675;  208.000;  341.000
225.307;    7.550;   97.000;  -91.000
225.451;   32.175;  360.000;  481.000
225.595;   30.100;  264.000;  176.000
225.739;  -14.275; -170.000;  -94.000
225.884;   11.925;   86.000;    5.000
226.028; -100.475; -760.000; -626.000
226.172;  -30.050; -260.000; -273.000
226.316; -131.975; -941.000; -902.000
226.460;  -64.625; -645.000; -493.000
226.604;  -47.400; -406.000; -400.000
226.748; -108.375; -836.000; -733.000
226.892;  -32.975; -227.000; -181.000
227.036;  -38.425; -537.000; -447.000
227.180;  -62.550; -551.000; -375.000
227.324;  -68.050; -561.000; -580.000
227.468; -115.900; -819.000; -717.000
227.612;    7.900;  242.000;  -28.000
227.756;  -86.150; -845.000; -698.000
227.900;   50.500;  342.000;  441.000
228.044;  -59.125; -509.000; -290.000
228.188;   49.400;  448.000;  568.000
228.332;  -91.600; -546.000; -472.000
228.476;  -26.800; -223.000; -149.000
228.620;  -43.150; -210.000; -150.000
228.764;   51.200;  431.000;  349.000
228.908;   -8.300; -155.000;   30.000
229.052;  -54.375; -615.000; -528.000
229.195;  -28.600; -172.000;   13.000
229.339;  -19.300; -235.000; -305.000
229.483;  -30.825;    5.000; -162.000
229.627;    0.275; -156.000;  139.000
229.771;  -52.875; -218.000; -294.000
229.915;   14.225;  230.000;   79.000
230.059;  -77.625; -648.000; -663.000
230.202;  -49.050; -370.000; -317.000
230.346;  -14.500; -107.000;  107.000
230.490;  -57.900; -489.000; -521.000
230.634; -107.700; -736.000; -553.000
230.777;   59.825;  478.000;  509.000
230.921;  -49.675; -450.000; -359.000
231.065;  -43.575; -246.000; -286.000
231.209;   15.850;  261.000;  265.000
231.352;   32.075;   54.000;   40.000
231.496;   22.275;  568.000;  188.000
231.640;  -88.400; -693.000; -621.000
231.783;   69.475;  546.000;  525.000
231.927;  -41.125; -294.000; -365.000
232.071; -111.775; -962.000; -736.000
232.214; -110.050; -980.000; -764.000
232.358;  -98.275; -683.000; -599.000
232.502;    6.025;  -19.000;    7.000
232.645; -125.575;-1090.000; -927.000
232.789;  -31.500; -257.000; -218.000
232.933;  -42.450; -407.000; -224.000
233.076; -122.075;-1038.000; -897.000
233.220;  -96.025; -752.000; -777.000
233.363;  -74.200; -669.000; -477.000
233.507;   51.550;  371.000;  129.000
233.650;  -98.300; -764.000; -834.000
233.794;   34.575;  438.000;  461.000
233.938;  -58.750; -530.000; -362.000
234.081;  -28.100;  -93.000;   31.000
234.225;  -76.350; -631.000; -539.000
234.368; -105.150; -773.000; -723.000
234.512;  -26.125; -385.000; -299.000
234.655;  -91.525; -582.000; -555.000
234.798;  -63.925; -493.000; -466.000
234.942; -123.875; -884.000;-1002.000
235.085;  -82.925; -651.000; -443.000
235.229;  -76.100; -405.000; -410.000
235.372;  -60.950; -247.000; -191.000
235.516;  -47.525; -397.000; -321.000
235.659;   20.025;   92.000;  121.000
235.802;  -14.850;  -38.000;  -22.000
235.946;   13.250;  335.000;  215.000
236.089;   19.550;  126.000;  250.000
236.233;   50.575;  275.000;  298.000
236.376;  -53.850; -235.000; -378.000
236.519;  -56.475; -297.000; -319.000
236.663;  -24.500; -215.000; -117.000
236.806; -125.750;-1029.000; -999.000
236.949;   63.700;  543.000;  431.000
237.092;   45.375;  412.000;  391.000
237.236;  -81.875; -589.000; -502.000
237.379;   57.750;  352.000;  428.000
237.522; -123.125; -879.000; -768.000
237.666;  -17.100; -271.000;   18.000
237.809; -120.300; -851.000; -823.000
237.952;   23.100;  469.000;  271.000
238.095;  -62.575; -447.000; -442.000
238.238;   76.175;  688.000;  700.000
238.382;   -5.250;  166.000;  103.000
238.525;  -72.850; -598.000; -511.000
238.668; -134.625;-1060.000; -985.000
238.811;  -84.450; -638.000; -643.000
238.954;  -70.025; -483.000; -334.000
239.097;   85.150;  617.000;  664.000
239.241;   16.000;  394.000;  326.000
239.384;  -27.600; -254.000; -214.000
239.527;  -64.775; -424.000; -224.000
239.670; -141.800; -994.000;-1091.000
239.813;  -95.300; -696.000; -658.000
239.956;   72.925;  579.000;  473.000
240.099; -121.800; -778.000; -725.000
240.242;   54.300;  428.000;  432.000
240.385;   31.250;  466.000;  450.000
240.528;  -68.175; -706.000; -473.000
240.671;   14.275;  189.000;  134.000
240.814;  -54.200; -441.000; -158.000
240.957;  -90.825; -767.000; -578.000
241.100;  -87.550; -779.000; -755.000
241.243; -142.700;-1234.000; -893.000
241.386;  -55.750; -508.000; -379.000
241.529;  -77.825; -735.000; -547.000
241.672;  -66.800; -566.000; -495.000
241.815; -112.075; -832.000; -808.000
241.958;  -35.175; -125.000; -182.000
242.101;  -81.000; -545.000; -390.000
242.244;  -40.750; -270.000; -325.000
242.387;  -34.975; -304.000; -246.000
242.530;   47.800;  470.000;  134.000
242.673;  -45.400; -381.000; -309.000
242.815; -102.975; -925.000; -899.000
242.958;  -72.225; -482.000; -381.000
243.101;    0.625;  132.000;  187.000
243.244;  -84.175; -564.000; -521.000
243.387;  -48.875; -313.000; -316.000
243.530;  -88.900; -657.000; -674.000
243.672;   -0.450;   43.000;  -92.000
243.815;  -54.000; -355.000; -283.000
243.958;   -3.725;   98.000;  -26.000
244.101;  -12.175;   59.000;  -16.000
244.243;  -20.200;  -47.000;  101.000
244.386; -107.725; -761.000; -630.000
244.529;  -36.700; -132.000; -139.000
244.672; -159.000;-1154.000; -951.000
244.814;  -88.475; -621.000; -794.000
244.957;  -39.650; -380.000; -304.000
245.100;  -69.025; -489.000; -489.000
245.242;  -52.725; -387.000; -374.000
245.385;  -13.850;  -59.000;  -39.000
245.528; -114.675; -871.000; -705.000
245.670;   69.725;  612.000;  634.000
245.813;  -91.625; -599.000; -547.000
245.956;  -42.225; -324.000; -275.000
246.098;  -68.100; -508.000; -650.000
246.241;   16.650;  194.000;   48.000
246.383;   -6.775; -119.000;  -73.000
246.526;  -78.025; -454.000; -525.000
246.669; -111.850; -889.000; -780.000
246.811;   15.400;  172.000;   -1.000
246.954;  -69.250; -512.000; -426.000
247.096;  -26.900;  -84.000;   -6.000
247.239;  -63.250; -482.000; -445.000
247.381;  -67.125; -647.000; -488.000
247.524;   75.825;  645.000;  679.000
247.666;  -20.550;   58.000;   11.000
247.809; -108.875; -887.000; -691.000
247.951;  -12.425;  -75.000;  138.000
248.094;   11.175;  432.000;  308.000
248.236; -155.450;-1262.000;-1238.000
248.378;   -4.225; -356.000;  -81.000
248.521;  -29.925; -334.000; -337.000
248.663;  -36.575; -236.000; -267.000
248.806;  -14.625; -300.000; -266.000
248.948;  -93.250; -886.000; -763.000
249.090;  -45.175; -428.000; -398.000
249.233;  -39.300; -344.000; -381.000
249.375;  -68.150; -474.000; -451.000
249.518;  -26.025;  -83.000; -133.000
249.660;   -5.550; -103.000;    3.000
249.802; -161.625;-1303.000;-1189.000
249.945;  -67.750; -612.000; -540.000
250.087; -115.000; -834.000; -768.000
250.229;  -62.675; -362.000; -480.000
250.371;  -68.425; -494.000; -439.000
250.514;  -46.100; -310.000; -244.000
250.656;  -70.150;   69.000;  102.000
250.798; -118.775; -849.000; -800.000
250.940;  -62.225; -322.000; -322.000
251.083;  -27.175; -335.000; -111.000
251.225;   62.450;  338.000;  310.000
251.367;  -45.450; -274.000; -373.000
251.509;  -35.875; -265.000; -210.000
251.651;  -92.775; -731.000; -671.000
251.794;   54.050;  538.000;  632.000
251.936; -101.975; -821.000; -747.000
252.078;  -69.300; -540.000; -461.000
252.220;  -67.525; -645.000; -477.000
252.362;   85.800;  344.000;  462.000
252.504;  -62.025; -677.000; -584.000
252.646; -110.275; -875.000; -722.000
252.788;   -1.325;   14.000; -128.000
252.931;  -26.000; -257.000; -253.000
253.073;  -43.450; -376.000; -317.000
253.215;  -16.075;  141.000;  122.000
253.357;  -25.775;   82.000; -153.000
253.499;  -52.750; -374.000; -234.000
253.641;  -88.525; -749.000; -594.000
253.783;  -86.800; -609.000; -527.000
253.925;  -83.875; -586.000; -591.000
254.067; -111.300; -744.000; -667.000
254.209;  -20.750; -391.000; -259.000
254.351; -126.300; -865.000; -883.000
254.493;  -55.200; -441.000; -417.000
254.635; -132.675; -936.000; -818.000
254.777;  -83.350; -752.000; -687.000
254.918;  -57.975; -512.000; -430.000
255.060;  -60.625; -551.000; -395.000
255.202;  -54.600; -473.000; -261.000
255.344;  -87.000; -658.000; -455.000
255.486;  -72.100; -471.000; -406.000
255.628;  -97.400; -780.000; -781.000
255.770;  -86.925; -676.000; -536.000
255.912;  -58.200; -559.000; -468.000
256.053;  -93.150; -730.000; -508.000
256.195;  138.850; 1008.000;  903.000
256.337;  -92.525; -861.000; -595.000
256.479;   46.600;  532.000;  416.000
256.621;  -60.325; -394.000; -212.000
256.762; -110.125; -789.000; -742.000
256.904;   56.200;  485.000;  487.000
257.046;  -49.950; -381.000; -271.000
257.188;  -48.800; -351.000; -264.000
257.329;  -77.875; -525.000; -464.000
257.471; -127.250; -939.000; -807.000
257.613;  -59.925; -584.000; -498.000
257.755; -142.450;-1073.000; -982.000
257.896;   21.025;  286.000;  392.000
258.038;  -60.500; -403.000; -352.000
258.180;  -33.525; -354.000; -279.000
258.321;  -75.175; -581.000; -457.000
258.463;   -4.800;  -71.000;  133.000
258.605;  -97.350; -562.000; -570.000
258.746;  -93.925; -886.000; -772.000
258.888; -147.550;-1026.000;-1020.000
259.029;    2.925;  121.000;   -8.000
259.171;  -86.575; -614.000; -550.000
259.313;    1.250;  -49.000;  -47.000
259.454;  -74.650; -536.000; -414.000
259.596;  -68.425; -483.000; -390.000
259.737;  -73.150; -590.000; -474.000
259.879;   46.825;  217.000;  311.000
260.020;   84.275;  901.000;  636.000
260.162;  -24.900; -146.000; -253.000
260.303; -119.050; -768.000; -687.000
260.445;  -93.800; -609.000; -613.000
260.586;   16.075;  392.000;  157.000
260.728;  -32.850; -360.000; -248.000
260.869;  -57.050; -350.000; -343.000
261.011;   67.600;  706.000;  537.000
261.152;  -67.550; -479.000; -319.000
261.293;  -85.950; -576.000; -595.000
261.435;  -39.025; -219.000; -184.000
261.576;  -50.125; -455.000; -325.000
261.718;   48.650;  420.000;  470.000
261.859; -126.325; -940.000; -949.000
262.000; -128.475; -951.000;-1016.000
262.142;  -25.950;  -52.000;  -60.000
262.283; -112.025; -808.000; -691.000
262.424;  -97.825; -666.000; -625.000
262.566; -141.700;-1161.000; -983.000
262.707; -114.175; -840.000; -830.000
262.848; -117.975; -769.000; -726.000
262.990;  -54.850; -362.000; -345.000
263.131;   70.325;  650.000;  681.000
263.272;  -33.175;  -61.000;  -41.000
263.413;  -82.450; -589.000; -561.000
263.555;  -63.500; -669.000; -143.000
263.696;  -88.100; -550.000; -641.000
263.837;  -64.075; -449.000; -551.000
263.978;  -19.375;   -5.000;  -77.000
264.119;  -44.800; -283.000; -264.000
264.261; -102.025; -847.000; -630.000
264.402;   -3.525;   33.000;   40.000
264.543;  -68.150; -509.000; -524.000
264.684;  -18.350;   61.000;  -50.000
264.825;  -72.275; -816.000; -538.000
264.966;   -7.975;  -84.000;  -67.000
265.107; -101.275; -646.000; -670.000
265.248; -116.025; -825.000; -812.000
265.390;   -6.975;  152.000;   -9.000
265.531;  -25.875; -238.000; -107.000
265.672;  -90.825; -557.000; -630.000
265.813;   51.925;  563.000;  439.000
265.954; -141.675; -959.000; -940.000
266.095;  -18.175; -372.000; -322.000
266.236;  -96.225; -686.000; -548.000
266.377;  -31.175; -243.000; -297.000
266.518;  -73.425; -619.000; -547.000
266.659;   16.900;  170.000;  268.000
266.800;    3.850;   83.000;   85.000
266.941;  -75.000; -487.000; -478.000
267.082;    8.450;  354.000;   99.000
267.223;  -50.425; -344.000; -273.000
267.364; -106.775; -892.000; -686.000
267.504;  -15.125;    3.000;  135.000
267.645;   -1.825;  160.000;   67.000
267.786;  -30.950; -147.000;  -86.000
267.927;  -62.775; -473.000; -379.000
268.068;  -31.250; -186.000;  -61.000
268.209;  -47.850; -175.000; -413.000
268.350;  -68.625; -388.000; -532.000
268.490;  -86.775; -648.000; -521.000
268.631;   42.125;  127.000;  225.000
268.772; -120.675; -874.000; -647.000
268.913;  -52.275; -328.000; -476.000
269.054;  -13.725; -117.000;   12.000
269.194;  -50.675; -418.000; -402.000
269.335; -146.725;-1137.000;-1074.000
269.476;  -15.625;   33.000;  -35.000
269.617;  -38.675; -347.000; -392.000
269.757; -105.250; -713.000; -646.000
269.898; -101.000; -856.000; -613.000
270.039;  -65.250; -415.000; -405.000
270.180; -138.375; -952.000; -816.000
270.320;  -32.750; -190.000; -250.000
270.461;  -46.400; -277.000; -249.000
270.602;  -22.400; -186.000; -156.000
270.742; -107.975; -868.000; -943.000
270.883;  -50.950; -442.000; -390.000
271.023;  -63.025; -358.000; -357.000
271.164;  -73.050; -607.000; -528.000
271.305; -110.175; -666.000; -654.000
271.445; -102.475; -722.000; -683.000
271.586;  -62.050; -462.000; -283.000
271.726;  -39.100; -397.000; -322.000
271.867;  -61.625; -594.000; -534.000
272.008;  202.975; -473.000; -285.000
272.148;  138.975;  462.000;  468.000
272.289;   16.075; -113.000; -181.000
272.429;   16.825;   19.000;  185.000
272.570;  -95.375; -633.000; -737.000
272.710;  -95.525; -825.000; -775.000
272.851;  -28.200;  113.000; -130.000
272.991; -150.150;-1173.000;-1077.000
273.131;  -64.500; -419.000; -459.000
273.272;  -99.200; -683.000; -723.000
273.412;    0.125; -143.000;  -31.000
273.553;  -37.375; -488.000; -507.000
273.693;  128.250;  913.000;  858.000
273.834;  -89.300; -894.000; -692.000
273.974;  -62.375; -664.000; -615.000
274.114;  -91.350; -772.000; -560.000
274.255;   72.750;  414.000;  373.000
274.395;    7.950; -180.000; -125.000
274.535;   37.225;  199.000;  350.000
274.676;   11.925;  225.000;   94.000
274.816;    2.600;  110.000;   34.000
274.956;  -79.325; -624.000; -690.000
275.097;  -48.150;-1014.000; -922.000
275.237; -108.900; -913.000; -803.000
275.377;  -94.475; -778.000; -689.000
275.517; -146.425; -878.000; -937.000
275.658;  -58.625; -590.000; -555.000
275.798;  -64.325; -606.000; -413.000
275.938;   16.550;  215.000;  323.000
276.078;  -84.600; -626.000; -395.000
276.218;   15.950;   99.000;  104.000
276.359;  -74.875;-1026.000;-1024.000
276.499;  -63.550; -605.000; -446.000
276.639;  -29.250; -305.000; -151.000
276.779;  -44.075; -475.000; -357.000
276.919; -106.600; -783.000; -624.000
277.059;  -10.075; -261.000; -212.000
277.199;  -41.275; -357.000; -259.000
277.340;   60.975;  287.000;  175.000
277.480; -116.150; -840.000; -693.000
277.620;   17.350;  192.000;   16.000
277.760; -182.750;-1533.000;-1294.000
277.900;   33.375;  113.000;   33.000
278.040;   26.175;  137.000;  159.000
278.180;   46.900;  270.000;  170.000
278.320;    6.125;   21.000;   56.000
278.460;  -66.625; -443.000; -469.000
278.600;  -90.650; -708.000; -598.000
278.740;   45.800;  448.000;  224.000
278.880;  -15.625; -768.000; -791.000
279.020;   -9.400; -194.000; -144.000
279.160;  -73.150; -672.000; -595.000
279.300; -120.500; -926.000; -873.000
279.440;  -92.850; -709.000; -622.000
279.579;   -7.325;-1014.000; -929.000
279.719;  -48.775; -410.000; -394.000
279.859;   94.425;   -4.000;   41.000
279.999;   34.625; -208.000;  101.000
280.139;  -17.600; -435.000; -387.000
280.279;  -82.325; -708.000; -745.000
280.419;  -23.050; -229.000; -147.000
280.559;  -18.300; -259.000; -180.000
280.698;  -78.500; -790.000; -639.000
280.838;  -85.650; -778.000; -800.000
280.978;  -91.450; -846.000; -790.000
281.118; -108.700; -811.000; -704.000
281.257;   -1.125;   24.000;    6.000
281.397;  -92.075;-1094.000; -960.000
281.537;  -82.825; -599.000; -712.000
281.677;  -15.175; -150.000; -101.000
281.816;  -86.800; -700.000; -630.000
281.956;  -36.075; -193.000; -257.000
282.096;  -58.025; -539.000; -396.000
282.235; -107.375; -672.000; -638.000
282.375;  -28.350; -243.000;  -98.000
282.515; -102.175; -715.000; -707.000
282.654;   30.800;   29.000;  106.000
282.794;   18.150;  388.000;  244.000
282.934;  -62.850; -530.000; -491.000
283.073; -120.775;-1030.000; -857.000
283.213;  -46.100; -460.000; -467.000
283.353;  -16.675; -408.000; -349.000
283.492;  -20.150; -264.000; -296.000
283.632;  -41.425; -254.000; -168.000
283.771; -101.650; -859.000; -730.000
283.911;  -46.875; -369.000; -260.000
284.050; -101.075; -794.000; -748.000
284.190; -156.475;-1229.000;-1096.000
284.329; -148.500;-1055.000; -964.000
284.469;  -57.600; -516.000; -591.000
284.608;  -60.200; -559.000; -598.000
284.748;  -76.175; -614.000; -570.000
284.887;  -11.250;  -87.000;  -20.000
285.027; -116.925; -844.000; -892.000
285.166;  -28.125; -192.000; -249.000
285.306;   29.800; -116.000;  -33.000
285.445;  -35.750; -229.000; -343.000
285.584;  -97.225; -630.000; -494.000
285.724;  -40.700; -282.000; -322.000
285.863; -109.825; -857.000; -507.000
286.002;  -50.200; -366.000; -276.000
286.142;  -95.150; -715.000; -622.000
286.281;  -79.725; -525.000; -493.000
286.420;  -72.550; -554.000; -417.000
286.560;   97.450;  653.000;  623.000
286.699; -131.250; -958.000; -912.000
286.838;  -79.850; -590.000; -591.000
286.978;  -91.450; -533.000; -537.000
287.117; -122.475;-1085.000; -950.000
287.256;  -38.950; -228.000; -211.000
287.395;  -43.450; -197.000; -378.000
287.535;  -54.100; -370.000; -298.000
287.674;  -64.450; -509.000; -484.000
287.813;   53.100;  661.000;  533.000
287.952; -118.675;-1010.000; -871.000
288.091; -142.800;-1049.000; -915.000
288.231;   11.425;   13.000;   15.000
288.370; -160.675;-1217.000;-1200.000
288.509;  -83.300; -728.000; -645.000
288.648;  -80.325; -770.000; -548.000
288.787;  -26.575; -243.000;  -87.000
288.926;  -55.850; -454.000; -475.000
289.065;  113.500;  859.000;  672.000
289.204;  -59.275; -377.000; -217.000
289.344;  -82.825; -791.000; -690.000
289.483;   29.425;  416.000;  304.000
289.622;  -24.775; -291.000; -149.000
289.761;  -12.000; -309.000; -166.000
289.900;  -97.775; -785.000; -626.000
290.039;  -15.175;  -12.000;  -95.000
290.178;  -32.750; -274.000; -180.000
290.317;  -78.775; -618.000; -479.000
290.456;  -64.025; -463.000; -451.000
290.595; -113.950; -961.000; -833.000
290.734; -135.825; -904.000; -891.000
290.873;  -79.975; -456.000; -420.000
291.011; -118.500; -833.000; -843.000
291.150; -101.675; -770.000; -682.000
291.289;  -21.850; -343.000; -110.000
291.428;  -91.775; -599.000; -480.000
291.567;  -57.125; -370.000; -442.000
291.706;   -6.425;  109.000;  154.000
291.845;  -89.775; -597.000; -505.000
291.984; -154.675;-1234.000;-1061.000
292.122;   72.850;  602.000;  582.000
292.261;   38.575;  620.000;  463.000
292.400;    4.800; -144.000;  211.000
292.539; -118.000; -959.000; -813.000
292.678;  -41.675; -325.000; -300.000
292.816; -155.000;-1136.000; -965.000
292.955;  -72.275; -844.000; -684.000
293.094;  -12.075; -173.000; -337.000
293.233;  -60.075; -556.000; -400.000
293.371;  -37.075; -225.000;  -84.000
293.510; -102.425; -866.000; -780.000
293.649; -123.375; -959.000; -924.000
293.787;  -44.825;-1083.000;-1012.000
293.926;   -2.975; -113.000;  -32.000
294.065;  -36.225; -379.000; -290.000
294.203;   30.175;  298.000;  406.000
294.342;   31.650;   74.000;  156.000
294.481; 5238.400;51180.000; -836.000
294.619;  -32.225; -425.000; -582.000
294.758; -124.350;-1230.000;-1137.000
294.896;   79.775; -125.000;    5.000
295.035; -114.025;-1040.000;-1006.000
295.174; -113.400;-1082.000; -954.000
295.312;  -41.675; -323.000; -203.000
295.451;   19.600; -307.000; -428.000
295.589;  -47.225; -389.000; -518.000
295.728;   33.925; -292.000; -165.000
295.866;   20.075;  -36.000;  -51.000
296.005;  -56.500; -584.000; -341.000
296.143;  -65.025; -558.000; -596.000
296.282;  -96.100; -957.000; -881.000
296.420;  -77.375; -657.000; -557.000
296.559;  -72.175; -892.000; -633.000
296.697;   84.675; -847.000; -665.000
296.835;  117.425;-1141.000;-1002.000
296.974;   65.075;  -23.000;   39.000
297.112;   44.125; -443.000; -504.000
297.251;  -73.075; -815.000; -755.000
297.389;  135.850; -576.000; -438.000
297.527;   45.000; -145.000;  -83.000
297.666;  -57.475; -486.000; -438.000
297.804;  -44.975; -404.000; -264.000
297.942;   -7.900; -136.000; -161.000
298.081;    4.825; -183.000;   63.000
298.219;   86.975;  -17.000;  -19.000
298.357;   57.875; -144.000;  -71.000
298.495;   74.400; -810.000; -812.000
298.634;  105.350;  245.000;  219.000
298.772;   90.825; -220.000; -338.000
298.910;  -24.300; -309.000; -182.000
299.048;   -1.250; -130.000; -153.000
299.187;  -21.325; -350.000; -250.000
299.325;   10.550;   52.000;  122.000
299.463;   93.000; -389.000; -299.000
299.601;  160.425; -327.000; -271.000
299.739;  -93.500; -908.000; -883.000
299.877;  -74.825; -791.000; -703.000
300.016;  -30.175;-1095.000; -935.000
300.154;  213.275;  -19.000; -161.000
300.292;   94.225; -428.000; -348.000
300.430;   41.950; -408.000; -291.000
300.568;  -87.300; -940.000; -874.000
300.706;  -30.375; -366.000; -469.000
300.844;  -44.300;-1108.000; -979.000
300.982;  132.225;  246.000;  282.000
301.120;  -95.825; -965.000; -866.000
301.258;  -51.275; -812.000; -705.000
301.396;   39.150;  104.000;  -41.000
301.534;  117.750; -218.000; -293.000
301.672;   24.950; -664.000; -521.000
301.810;   85.625; -613.000; -545.000
301.948;  148.275;   53.000;  149.000
302.086;  781.625; -250.000;  -32.000
302.224; 1163.725; -610.000; -585.000
302.362;   71.275; -558.000; -622.000
302.500;   28.675; -923.000; -893.000
302.638;  140.075;  128.000;  245.000
302.776;   17.175; -352.000; -408.000
302.913;   34.800;  447.000;  236.000
303.051;    6.675;  -86.000;  -23.000
303.189;   68.300;   90.000;  118.000
303.327;  -32.275; -341.000; -256.000
303.465;  -75.000; -832.000; -588.000
303.603;  -80.600; -805.000; -604.000
303.740;  109.575;  417.000;  241.000
303.878;   56.175; -800.000; -759.000
304.016;  -88.850; -915.000; -790.000
304.154; -108.875;-1123.000;-1152.000
304.291;  -16.700; -505.000; -554.000
304.429;   17.400;  102.000;   74.000
304.567; -135.600; -908.000; -893.000
304.705;  -45.750; -408.000; -515.000
304.842;  146.850; -616.000; -540.000
304.980;   62.850;  215.000;   35.000
305.118;   68.700; -367.000; -365.000
305.255;  -58.825; -945.000; -927.000
305.393;   48.675;  178.000;  239.000
305.531;  -77.625;-1173.000; -956.000
305.668;  -53.225; -663.000; -582.000
305.806;  147.925; -358.000; -439.000
305.943;  147.350; -629.000; -637.000
306.081;   80.475; -378.000; -267.000
306.219;  -91.200; -863.000; -748.000
306.356;   -0.250;  158.000;   27.000
306.494;   98.150;  981.000;  761.000
306.631;    1.475;  -11.000;  -55.000
306.769;   14.875; -613.000; -485.000
306.906;   -1.100; -284.000; -258.000
307.044;  -61.925; -473.000; -488.000
307.181;  -55.625; -410.000; -332.000
307.319;    5.250;  112.000;   87.000
307.456; -158.475;-1191.000;-1153.000
307.594;  -89.750; -980.000; -727.000
307.731;    0.075; -371.000; -164.000
307.868;   12.225;  -15.000;   20.000
308.006; -126.525; -961.000; -847.000
308.143;  -49.975; -618.000; -330.000
308.281;  231.100;  -37.000; -254.000
308.418;   21.850; -748.000; -640.000
308.555;  -63.000; -400.000; -250.000
308.693;  -65.325; -577.000; -573.000
308.830;  -98.675; -712.000; -657.000
308.967;  -21.450; -215.000;  -95.000
309.105;  -25.375; -507.000; -396.000
309.242;   72.300; -468.000; -367.000
309.379;  443.575; -577.000; -655.000
309.517;  -46.000; -936.000; -948.000
309.654;  -95.850; -910.000; -734.000
309.791;  -73.250; -662.000; -580.000
309.928;  -94.775; -977.000; -914.000
310.065;  198.225;  819.000;  697.000
310.203;   39.775; -825.000; -850.000
310.340;    9.225; -465.000; -321.000
310.477;  -75.925; -412.000; -516.000
310.614;  -55.500; -383.000; -473.000
310.751;  -71.450; -427.000; -518.000
310.889;  -18.425;    1.000;   11.000
311.026; -141.900;-1161.000; -939.000
311.163;  -38.125; -386.000; -380.000
311.300;  -71.200; -512.000; -479.000
311.437;  -64.150; -658.000; -619.000
311.574; -132.350;-1226.000; -985.000
311.711;  -53.900; -595.000; -433.000
311.848;  -41.000; -380.000; -388.000
311.985;   10.425;  270.000;   93.000
312.122;  -99.125; -932.000; -762.000
312.259; -115.650; -941.000; -994.000
312.396;  -83.750; -508.000; -551.000
312.533;  -83.000; -812.000; -790.000
312.670; -120.075;-1070.000; -898.000
312.807;  -33.300; -352.000; -367.000
312.944;  -77.050; -513.000; -611.000
313.081;  -24.900; -150.000; -415.000
313.218;  -99.600;-1111.000; -867.000
313.355;   10.925; -531.000; -449.000
313.492;   31.475; -455.000; -292.000
313.629;  145.050;  815.000;  735.000
313.766; -142.800;-1176.000;-1008.000
313.902;  -16.475; -186.000;   21.000
314.039;  -44.875; -372.000; -289.000
314.176;   13.000;  286.000;  192.000
314.313;  -72.850; -569.000; -473.000
314.450;  -61.875; -788.000; -684.000
314.587;  -46.550; -468.000; -480.000
314.723;    7.425;  -78.000;  130.000
314.860;   33.675;  318.000;  332.000
314.997;   22.850;  223.000;  142.000
315.134;  -33.650; -385.000; -368.000
315.270;  -25.025; -480.000; -496.000
315.407; -102.600;-1094.000; -967.000
315.544;  -34.050; -657.000; -538.000
315.681;  -56.950; -681.000; -565.000
315.817;   38.925; -133.000; -176.000
315.954;   27.175; -613.000; -392.000
316.091; -110.700;-1045.000;-1023.000
316.227;  -20.625;  -71.000; -179.000
316.364;   -4.300;   23.000;    6.000
316.500;  -27.550; -113.000; -300.000
316.637;  -40.175; -181.000; -302.000
316.774;  -76.850; -625.000; -358.000
316.910;  -87.525; -598.000; -629.000
317.047;  -60.400; -487.000; -351.000
317.183;  -47.625; -435.000; -566.000
317.320;  -33.100; -367.000; -321.000
317.456;  -61.275; -733.000; -805.000
317.593;  -77.375; -598.000; -641.000
317.729;    0.350;  168.000;  -67.000
317.866; -180.625;-1434.000;-1285.000
318.002; -103.125; -708.000; -948.000
318.139;  -87.300; -883.000; -867.000
318.275;  -94.175;-1003.000; -738.000
318.412;  -67.375; -517.000; -336.000
318.548;   -6.375; -751.000; -720.000
318.685;  -73.700; -985.000; -888.000
318.821;  -83.700; -762.000; -735.000
318.957;  -10.900;   34.000;  -23.000
319.094;   20.925;  297.000;  154.000
319.230;  -35.425; -756.000; -742.000
319.367;  173.450; -471.000; -520.000
319.503;  101.025; -538.000; -436.000
319.639;  -86.875; -877.000; -793.000
319.775;  -40.725; -750.000; -685.000
319.912;  -42.000; -424.000; -519.000
320.048;  -50.800;-1184.000;-1184.000
320.184;   63.750;   59.000;   70.000
320.321;  -67.500; -497.000; -467.000
320.457;   63.000;  475.000;  662.000
320.593;  -66.425; -375.000; -382.000
320.729;  -98.925; -732.000; -734.000
320.866;  -68.175; -577.000; -635.000
321.002;  -72.325; -759.000; -809.000
321.138;  -15.475; -135.000; -211.000
321.274;   93.625; -148.000; -115.000
321.410;   -6.275; -585.000; -353.000
321.546;    3.850;-1011.000; -911.000
321.683;   65.900;  400.000;  185.000
321.819;   15.450;  -48.000; -117.000
321.955; -104.050; -743.000; -722.000
322.091;  -39.250; -585.000; -540.000
322.227;    5.900; -382.000; -202.000
322.363;  -13.875; -320.000; -215.000
322.499;  -30.775; -343.000; -331.000
322.635;  190.775;  636.000;  443.000
322.771;   38.150; -139.000;   12.000
322.907;   97.050;  129.000;  327.000
323.043;   -7.400; -115.000; -206.000
323.179;  -31.750; -394.000; -363.000
323.315;   61.925; -401.000; -371.000
323.451;  141.375; -328.000; -236.000
323.587;   81.850;  -60.000;  -77.000
323.723;   50.950; -682.000; -601.000
323.859;  -15.650; -258.000;  -76.000
323.995;  -33.125; -467.000; -409.000
324.131; -112.025; -967.000; -892.000
324.267;  -41.525; -254.000; -276.000
324.402; -115.475; -960.000; -983.000
324.538;   -6.000; -279.000; -104.000
324.674;   18.250;  164.000;   77.000
324.810;  176.850;  226.000;  308.000
324.946;   34.975; -810.000; -658.000
325.082;  -70.575; -568.000; -475.000
325.217;   -9.325;  -62.000;   16.000
325.353;  -92.850; -764.000; -659.000
325.489;  -85.900; -540.000; -506.000
325.625;  -66.450; -579.000; -525.000
325.760;   56.500;  517.000;  376.000
325.896;  -42.950; -515.000; -702.000
326.032;  -51.800; -403.000; -352.000
326.168;  -56.475; -462.000; -369.000
326.303;  -50.950; -352.000; -461.000
326.439;  -19.400; -336.000; -276.000
326.575;   -7.075; -190.000;  -29.000
326.710;   -1.450; -156.000;  -30.000
326.846;  -20.600;  146.000;  103.000
326.982;  -91.600; -530.000; -548.000
327.117;  -75.250; -481.000; -442.000
327.253;  -82.450; -745.000; -742.000
327.388; -140.475;-1137.000;-1153.000
327.524;  -38.550; -811.000; -578.000
327.659;  -17.550;  -58.000;  -22.000
327.795;  -14.700;   69.000;   45.000
327.931;  -84.900; -723.000; -499.000
328.066;  -20.000; -417.000; -276.000
328.202;    2.100;   12.000; -129.000
328.337;  108.800;  957.000;  713.000
328.473;   28.200;  -12.000;  -74.000
328.608;  -27.350; -256.000; -267.000
328.743;  -66.125; -799.000; -664.000
328.879;   18.125;  214.000;  114.000
329.014;  -34.425; -102.000; -122.000
329.150;  -87.650; -358.000; -483.000
329.285;  -71.325; -465.000; -466.000
329.421;  -50.125; -548.000; -246.000
329.556;  -29.625;  -36.000;   85.000
329.691;  -97.275; -633.000; -615.000
329.827;  -71.675; -626.000; -480.000
329.962;  -48.600;  131.000; -301.000
330.097;  -87.725; -673.000; -585.000
330.233;  -45.725; -410.000; -223.000
330.368; -118.650; -839.000; -628.000
330.503;   -7.775;    3.000;   98.000
330.638;   21.875;  -93.000; -125.000
330.774;  -37.950; -609.000; -530.000
330.909;  -45.775; -434.000; -244.000
331.044;  -87.775; -714.000; -708.000
331.179; -157.575;-1217.000;-1109.000
331.315;   20.775;   77.000;   20.000
331.450;   17.425;  157.000;  285.000
331.585;  -88.075; -805.000; -706.000
331.720;  -81.650; -510.000; -460.000
331.855;   -5.850;  -35.000; -102.000
331.990;  213.900;   62.000;  138.000
332.126;  111.950; -110.000;   71.000
332.261;  -22.875; -379.000; -265.000
332.396;  -10.825; -135.000; -242.000
332.531; -104.000;-1074.000;-1031.000
332.666;   18.425; -519.000; -363.000
332.801; -107.625; -726.000; -807.000
332.936;  -24.800; -192.000; -122.000
333.071; -139.575; -870.000; -817.000
333.206;    9.225;  307.000;  379.000
333.341;   27.975;  344.000;  418.000
333.476;  -97.275; -627.000; -623.000
333.611;  -20.475; -251.000; -173.000
333.746;  -35.825; -381.000; -464.000
333.881; -114.775; -973.000; -935.000
334.016; -122.475; -936.000; -917.000
334.151; -110.000; -746.000; -702.000
334.286;   21.875;  152.000;  186.000
334.421;  -10.125; -125.000; -178.000
334.556;  -58.975; -611.000; -567.000
334.690;  -69.650; -631.000; -577.000
334.825;   55.100;  381.000;   83.000
334.960;  -61.650; -285.000; -413.000
335.095;   19.525;  135.000;  -91.000
335.230;  -86.000; -722.000; -738.000
335.365; -124.200;-1084.000; -990.000
335.499; -123.875;-1108.000;-1037.000
335.634;   21.825;    9.000;  534.000
335.769;  -93.425; -755.000; -720.000
335.904;  -46.575; -603.000; -561.000
336.038;  -38.575; -735.000; -657.000
336.173;  -96.375;-1206.000;-1194.000
336.308;    1.250; -116.000; -189.000
336.443;   16.275; -544.000; -634.000
336.577;  -57.275; -936.000; -787.000
336.712;   78.675;   -4.000;  -12.000
336.847;   -8.925; -724.000; -607.000
336.981;  102.075; -272.000; -208.000
337.116;  331.500;  615.000;  501.000
337.250;  203.075; -434.000; -421.000
337.385;  214.475; -297.000; -208.000
337.520;   48.950; -632.000; -603.000
337.654;  -41.700; -215.000; -126.000
337.789; -111.050; -989.000; -933.000
337.923;  -24.150; -104.000; -205.000
338.058;  -82.600; -673.000; -738.000
338.192;  -19.075; -611.000; -488.000
338.327;   -5.375;  -18.000; -155.000
338.461;  -42.825; -299.000; -469.000
338.596;  -86.450; -780.000; -638.000
338.730; -109.600; -767.000; -803.000
338.865;   65.075;  -46.000; -140.000
338.999;  -54.425; -846.000; -702.000
339.134;  -42.625; -634.000; -536.000
339.268;   17.350; -741.000; -603.000
339.403;  331.025; -740.000; -775.000
339.537;   87.275; -894.000; -820.000
339.671; -111.050; -829.000; -813.000
339.806;  -61.675; -556.000; -512.000
339.940;   15.075; -261.000; -235.000
340.074;  -94.200; -685.000; -510.000
340.209;  -50.025; -351.000; -230.000
340.343;  -97.275; -517.000; -573.000
340.477;  148.025;  998.000; 1036.000
340.612;  -66.750;-1033.000; -900.000
340.746;  119.650; -199.000; -243.000
340.880;  -52.075; -924.000; -785.000
341.014;  -25.375;  -45.000; -154.000
341.149; -122.200; -756.000; -718.000
341.283; -101.800; -839.000; -754.000
341.417;  -63.450;-1124.000; -938.000
341.551;  211.250; -768.000; -708.000
341.685;  -20.850; -633.000; -611.000
341.820;  -55.175; -562.000; -493.000
341.954;  -33.050; -218.000; -349.000
342.088; -158.100;-1102.000;-1019.000
342.222;   49.650;  565.000;  618.000
342.356;  -56.825; -395.000; -335.000
342.490;  -84.725; -880.000; -841.000
342.624;  -27.825; -339.000; -242.000
342.758;   19.575; -364.000; -312.000
342.892;  -56.675; -710.000; -585.000
343.026;  -29.425;  -58.000; -116.000
343.160;  -57.625; -426.000; -376.000
343.294;  -80.175; -474.000; -337.000
343.428;   -5.350; -488.000; -448.000
343.562;    1.850; -172.000;  -23.000
343.696;  -11.100; -385.000; -314.000
343.830;   -1.625; -362.000; -356.000
343.964;   23.400; -231.000; -168.000
344.098; 1150.175;  199.000;   70.000
344.232;  960.600; -266.000; -127.000
344.366;  120.650; -567.000; -453.000
344.500;   99.025; -665.000; -744.000
344.634;   50.675; -324.000; -164.000
344.768;   21.650; -531.000; -341.000
344.902;   26.625;  278.000;  256.000
345.035;  -65.375; -556.000; -496.000
345.169; -122.500; -933.000; -656.000
345.303;   -3.750; -308.000; -482.000
345.437;  -47.750; -826.000; -717.000
345.571;  -77.750; -675.000; -594.000
345.704;  -60.275; -309.000; -532.000
345.838;   -9.725; -331.000; -284.000
345.972;  -21.375; -543.000; -495.000
346.106;  140.225; -179.000; -190.000
346.239;  444.675; -312.000; -243.000
346.373;   25.200; -343.000; -302.000
346.507; -135.550; -950.000; -962.000
346.640;  196.050;  -30.000;   13.000
346.774;  -20.100; -650.000; -797.000
346.908;   -3.775; -138.000;  -11.000
347.041;  -94.950; -646.000; -593.000
347.175;    4.300;  259.000;   27.000
347.309;  -55.075; -698.000; -628.000
347.442; -101.825; -883.000; -732.000
347.576;  323.650;  670.000;  668.000
347.709;  272.525; -123.000;  -52.000
347.843;  -65.475; -933.000; -825.000
347.976;   30.925;  235.000;  294.000
348.110; -161.125;-1268.000;-1186.000
348.243; -105.950; -679.000; -772.000
348.377;    8.550;  -26.000;   60.000
348.510;   55.375;  403.000;  540.000
348.644;  -22.050;  -37.000; -159.000
348.777;    0.000;  180.000;  191.000
348.911;  -44.350; -142.000; -112.000
349.044;  212.625;  471.000;  448.000
349.178;  232.175;-1069.000;-1006.000
349.311;  123.250;  141.000;  255.000
349.444;   -1.050; -927.000; -813.000
349.578;   -2.100; -347.000; -200.000
349.711;  -89.975; -959.000; -862.000
349.845;   39.450; -661.000; -591.000
349.978; -131.775;-1224.000;-1137.000
350.111;  -79.975; -546.000; -612.000
350.244;  -56.675; -596.000; -700.000
350.378;   30.800; -392.000; -393.000
350.511;  -63.525; -393.000; -426.000
350.644;  -98.925; -808.000; -806.000
350.778;   11.275;  168.000;  104.000
350.911;    0.900;  134.000;  140.000
351.044;  -90.425; -685.000; -615.000
351.177;  -18.950; -321.000; -281.000
351.310;  -13.650;    3.000; -131.000
351.444;  -57.975; -888.000; -788.000
351.577;  159.225;  140.000;   90.000
351.710;  100.925;  593.000;  417.000
351.843;  -27.200; -165.000;  -77.000
351.976;   -2.850;  149.000;  -79.000
352.109;  -78.350; -621.000; -612.000
352.242;  -20.225; -464.000; -419.000
352.376;  -29.650; -580.000; -636.000
352.509;  247.950; -437.000; -356.000
352.642;   66.950; -654.000; -604.000
352.775;   80.325; -141.000;  -98.000
352.908; -105.000; -933.000; -904.000
353.041;  -92.925; -814.000; -824.000
353.174;  -49.300; -551.000; -424.000
353.307;  -76.450; -753.000; -764.000
353.440;   66.975;  541.000;  453.000
353.573; -101.175; -957.000;-1008.000
353.706;   -1.950; -384.000; -558.000
353.839;  -13.500; -264.000; -220.000
353.971;  -80.975; -657.000; -512.000
354.104;  -77.450; -896.000; -835.000
354.237;  -11.525; -627.000; -662.000
354.370;  -68.975; -846.000; -879.000
354.503; -158.250;-1231.000;-1308.000
354.636;  -26.550; -529.000; -348.000
354.769; -116.000; -937.000; -860.000
354.902;   -5.000; -230.000; -139.000
355.034;    7.150; -164.000; -220.000
355.167;  -20.200; -262.000; -162.000
355.300;  -69.775;-1061.000; -880.000
355.433;  888.575;  -71.000;  -14.000
355.565; 1385.050; -402.000; -384.000
355.698;  342.950; -356.000; -296.000
355.831;   32.125; -882.000; -801.000
355.964;  125.900; -285.000; -170.000
356.096;  -63.200; -856.000; -843.000
356.229;   28.575; -523.000; -530.000
356.362;  277.875; -373.000; -266.000
356.494;  552.100; -229.000; -162.000
356.627;  580.475;  269.000;  377.000
356.760;  638.900;  120.000;   53.000
356.892;  870.675; -286.000; -601.000
357.025;  810.425;  403.000;  389.000
357.157;  767.850; -167.000; -179.000
357.290;  560.025; -856.000; -713.000
357.423;  182.625; -667.000; -556.000
357.555;  138.600; -217.000; -228.000
357.688;  168.100; -483.000; -364.000
357.820;  560.925; -870.000; -877.000
357.953; 4262.375; -563.000; -589.000
358.085; 1031.125; -632.000; -612.000
358.218; 1625.450;-1131.000; -932.000
358.350;  299.000;  -58.000;  312.000
358.483;  -94.525;-1300.000;-1187.000
358.615;   37.200;-1182.000;-1078.000
358.747;    1.675;-1187.000;-1058.000
358.880;   53.125; -810.000; -744.000
359.012;   10.425; -376.000; -202.000
359.145;  -33.775; -480.000; -511.000
359.277;  103.700; -962.000; -913.000
359.409; 3553.875;  536.000;  231.000
359.542;  989.075; -738.000; -688.000
359.674;   87.400;   46.000;   13.000
359.806;  -48.650; -565.000; -438.000
359.939;  -50.475; -617.000; -516.000
360.071;  -18.325; -583.000; -579.000
360.203;   -6.725; -411.000; -364.000
360.335;   74.725;  164.000;  -16.000
360.468;  233.925; -249.000; -307.000
360.600; 2757.350; -547.000; -454.000
360.732; 2540.975; -546.000; -423.000
360.864;  386.750;-1216.000;-1044.000
360.996;  403.650; -516.000; -554.000
361.129;   90.800; -389.000; -598.000
361.261;   39.450;  110.000; -113.000
361.393;  -26.925; -252.000; -214.000
361.525;   36.225;   94.000;  244.000
361.657;  -21.300; -821.000; -703.000
361.789;   19.625; -139.000; -155.000
361.921;  364.450; -642.000; -593.000
362.053;  329.075;  524.000;  541.000
362.185;   68.350;  288.000;   72.000
362.318;  -64.975; -709.000; -705.000
362.450;  170.075;  294.000;  444.000
362.582;  249.575; -913.000; -870.000
362.714;  -17.750; -353.000; -332.000
362.846;  -84.675; -606.000; -490.000
362.978; -151.200; -941.000; -811.000
363.109;   73.450; -161.000; -260.000
363.241;  589.475; -739.000; -749.000
363.373;  407.775; -649.000; -564.000
363.505;  594.700; -186.000;  -91.000
363.637;  146.475; -787.000; -601.000
363.769; -102.100;-1067.000;-1080.000
363.901;  -70.825; -596.000; -654.000
364.033;  -97.300;-1103.000;-1062.000
364.165;    9.625; -283.000; -283.000
364.296;   72.850; -316.000; -177.000
364.428;   57.400;-1344.000;-1220.000
364.560;  -61.925; -679.000; -661.000
364.692;  -44.575; -738.000; -835.000
364.824;  384.000; -588.000; -456.000
364.955;  478.150; -402.000; -564.000
365.087;  749.600;-1097.000; -852.000
365.219;   34.650; -686.000; -816.000
365.351;  -59.375; -526.000; -572.000
365.482;   68.450;  300.000;  240.000
365.614;  -23.700; -402.000; -314.000
365.746;  -86.925; -729.000; -752.000
365.877;  -95.600; -706.000; -672.000
366.009;  213.025;  -35.000;  -62.000
366.141;  -91.575;-1249.000;-1134.000
366.272;  -90.800; -803.000; -719.000
366.404; -105.875;-1005.000; -874.000
366.535;   11.525; -139.000;  -12.000
366.667;  -91.250; -644.000; -649.000
366.799;   42.500;  353.000;  203.000
366.930;  -97.350; -862.000; -996.000
367.062;  110.400; -639.000; -613.000
367.193;  128.800; -872.000; -842.000
367.325;  -56.225; -580.000; -684.000
367.456;  109.925; -246.000;   31.000
367.588;  159.500; -371.000; -318.000
367.719;   19.625;  -44.000;  -45.000
367.851;   -6.950; -222.000; -241.000
367.982;  -24.200; -875.000; -732.000
368.113;  140.125; -475.000; -358.000
368.245;  -91.650; -960.000; -841.000
368.376;  -19.625; -254.000; -302.000
368.508;  -21.075; -188.000; -263.000
368.639; -133.325;-1166.000;-1034.000
368.770;    6.425; -670.000; -589.000
368.902;  -35.150; -836.000; -926.000
369.033;  -99.975; -906.000; -855.000
369.164;  -52.725; -720.000; -653.000
369.296; -106.975; -452.000; -601.000
369.427;   17.725; -209.000; -144.000
369.558;  -24.925; -593.000; -377.000
369.689;  -81.600; -721.000; -569.000
369.821; -124.550; -951.000; -845.000
369.952;  -17.675;   42.000; -108.000
370.083;  -46.425; -229.000; -108.000
370.214;  -77.800; -735.000; -650.000
370.345;   -9.300;   65.000;   81.000
370.477;  -64.375; -810.000; -790.000
370.608;  322.525; -328.000; -264.000
370.739;    4.700;-1233.000;-1292.000
370.870;    1.925;-1102.000; -923.000
371.001;  146.725; -378.000; -467.000
371.132;  -63.625; -754.000; -735.000
371.263;  -10.800;  -42.000; -148.000
371.394; -113.575; -841.000; -748.000
371.525;   28.500;  345.000;  225.000
371.657;  -68.475; -808.000; -670.000
371.788;   83.350;  103.000;  199.000
371.919;  220.375; -384.000; -304.000
372.050; 4402.325;  -91.000; -156.000
372.181; 1409.200; -188.000; -294.000
372.311;  477.425;   42.000; -127.000
372.442;   92.775; -457.000; -451.000
372.573;  -10.350; -444.000; -340.000
372.704; -102.400;-1008.000; -980.000
372.835;  128.475; -228.000; -289.000
372.966;  -29.050; -646.000; -554.000
373.097;  -41.075; -575.000; -711.000
373.228;   -8.250; -717.000; -542.000
373.359;  216.325; -824.000; -536.000
373.490; 1219.100; -881.000; -727.000
373.620; 1555.975;-1001.000; -803.000
373.751; 2264.625; -332.000; -396.000
373.882; 1101.275; -663.000; -733.000
374.013;  126.700; -449.000; -262.000
374.143;  -14.700; -581.000; -659.000
374.274;  -81.475; -987.000; -908.000
374.405;  232.550; -388.000; -276.000
374.536;  581.450; -526.000; -387.000
374.666; 1484.000; -759.000; -807.000
374.797;  345.700; -817.000; -868.000
374.928; 1162.675; -710.000; -560.000
375.058; 1188.725; -535.000; -500.000
375.189;  114.125;  -59.000;  -93.000
375.320;  -86.725; -928.000;-1034.000
375.450;  -21.925; -625.000; -616.000
375.581;  -41.300; -526.000; -436.000
375.712;  -14.725; -574.000; -250.000
375.842;  415.575; -438.000; -415.000
375.973;  322.350; -554.000; -513.000
376.103;   -5.900; -665.000; -648.000
376.234;  -72.200; -531.000; -552.000
376.364;   -0.300; -944.000; -867.000
376.495;  385.700;  925.000;  529.000
376.625;   49.425; -472.000; -485.000
376.756;  113.150; -709.000; -678.000
376.886;  -33.900;-1178.000;-1026.000
377.017;   34.800;-1048.000;-1061.000
377.147;  299.225; -786.000; -782.000
377.278;   42.375;  174.000;  228.000
377.408; -110.275; -801.000; -815.000
377.538;  -91.050; -707.000; -693.000
377.669;  -68.775; -537.000; -613.000
377.799;  -65.250; -645.000; -635.000
377.929;  -27.800; -610.000; -428.000
378.060; -125.800; -781.000; -847.000
378.190;  -59.125; -726.000; -531.000
378.320;  -64.825; -401.000; -406.000
378.451;   -9.500; -131.000;  -22.000
378.581;    9.325;  -67.000; -110.000
378.711;  178.675; 1035.000;  866.000
378.841;   -2.025; -533.000; -675.000
378.972;  -44.350; -871.000; -751.000
379.102;   38.600; -652.000; -579.000
379.232;    0.175; -126.000;  -73.000
379.362;  -80.825;-1001.000; -885.000
379.492;   52.050; -373.000; -424.000
379.623;  121.525;    0.000;  111.000
379.753;  -80.075;-1107.000; -974.000
379.883;  253.500;   59.000;  156.000
380.013;   67.350;-1081.000;-1017.000
380.143;  -67.500;-1097.000;-1056.000
380.273;  -84.000; -985.000; -861.000
380.403;   18.650; -344.000; -257.000
380.533;   -2.675; -651.000; -664.000
380.663;  102.350;  173.000;  128.000
380.793;  -52.825;-1027.000;-1074.000
380.923;  -12.200; -103.000;  -34.000
381.053;  -81.600; -613.000; -623.000
381.183;  -19.250; -106.000; -248.000
381.313;   77.625; -656.000; -470.000
381.443;   86.975; -692.000; -473.000
381.573;  309.225; -402.000; -409.000
381.703;  467.600;-1249.000;-1095.000
381.833;  -89.000;-1454.000;-1336.000
381.963;  133.600; -134.000;  -87.000
382.093; 1688.725; -925.000; -909.000
382.223;  579.150; -713.000; -602.000
382.353;   32.275; -801.000; -608.000
382.482;  526.475;-1091.000; -964.000
382.612;  987.275; -872.000; -644.000
382.742;  574.725; -695.000; -622.000
382.872;  405.750; -565.000; -551.000
383.002;   94.600;  347.000; -132.000
383.131;    2.025; -226.000; -160.000
383.261;  -20.175; -706.000; -768.000
383.391;  288.000; -552.000; -377.000
383.521; 2771.575;  451.000;  263.000
383.650;  656.900; -947.000; -904.000
383.780;  -19.300; -783.000; -656.000
383.910;  104.975;  880.000;  802.000
384.039;   60.000; -794.000; -656.000
384.169;  313.450;-1205.000;-1017.000
384.299;   23.700; -650.000; -662.000
384.428;  -65.000; -764.000; -680.000
384.558;  -33.150; -308.000; -275.000
384.687;  -19.550; -414.000; -334.000
384.817;   30.500;   75.000;   -2.000
384.947;   41.850; -234.000; -141.000
385.076;  346.975;  982.000;  912.000
385.206;  150.450;  369.000;  480.000
385.335;  -10.175; -549.000; -417.000
385.465;  -43.150; -655.000; -663.000
385.594;  189.975;  -53.000;  -44.000
385.724;  621.700; -868.000; -838.000
385.853;  185.150; -296.000; -270.000
385.982; 1718.325; -743.000; -787.000
386.112; 2845.000;-1052.000; -871.000
386.241;  212.275; -307.000; -312.000
386.371;   33.175; -174.000;  -87.000
386.500;   39.750; -825.000; -789.000
386.629;   52.125; -874.000; -817.000
386.759;   77.775;  -43.000;   68.000
386.888;   23.875; -170.000; -250.000
387.017;  -46.525; -648.000; -620.000
387.147;  -56.250; -771.000; -798.000
387.276;   41.825; -410.000; -397.000
387.405;   44.875; -398.000; -342.000
387.535;  -27.775; -452.000; -361.000
387.664;  -39.925; -692.000; -620.000
387.793;  100.225; -198.000; -113.000
387.922;  696.250;  255.000;  200.000
388.052;   94.825; -576.000; -423.000
388.181;   66.650; -342.000; -472.000
388.310;   82.500; -889.000; -710.000
388.439;    3.850; -749.000; -742.000
388.568;  234.950;  365.000;  244.000
388.697; 1376.225; -756.000; -653.000
388.826;  322.175; -768.000; -666.000
388.956;   89.525; -285.000; -307.000
389.085;  -21.700; -347.000; -287.000
389.214;  -90.725; -842.000; -872.000
389.343;  -55.675; -645.000; -413.000
389.472;  370.625;  126.000;  149.000
389.601;  513.525;   91.000;    0.000
389.730;   54.800; -568.000; -687.000
389.859;   84.525;  226.000;   46.000
389.988;  253.950; -423.000; -408.000
390.117;  216.475; -168.000; -146.000
390.246;    7.575; -331.000; -320.000
390.375;  176.600; -673.000; -626.000
390.504;  -24.175; -703.000; -621.000
390.633;  -85.875; -672.000; -726.000
390.761;  -36.250; -732.000; -645.000
390.890;   47.225;   -4.000; -130.000
391.019;   -9.100; -421.000; -441.000
391.148; -125.375; -826.000; -855.000
391.277;  -48.950; -576.000; -493.000
391.406;  -47.125; -821.000; -805.000
391.534;   30.950;  574.000; -301.000
391.663;  -47.750; -583.000; -645.000
391.792;  -62.050; -673.000; -701.000
391.921;  150.300;   -3.000;   15.000
392.050;  284.925; -287.000; -228.000
392.178;   14.275;-1206.000;-1061.000
392.307;  199.000; -758.000; -712.000
392.436;  123.425; -427.000; -641.000
392.564;   28.600;  166.000;   -6.000
392.693;  -62.275; -860.000; -682.000
392.822;  285.100; -529.000; -534.000
392.950;  169.050; -880.000; -714.000
393.079;  432.925; -188.000; -328.000
393.208;   75.825; -488.000; -511.000
393.336;    1.575; -170.000; -145.000
393.465;  -27.275; -317.000; -199.000
393.593;    8.025;   62.000;   79.000
393.722; -136.825;-1121.000; -916.000
393.850;  -29.500; -188.000;  -61.000
393.979; -145.600; -926.000; -805.000
394.107;  -62.900; -517.000; -537.000
394.236;   -4.350; -570.000; -507.000
394.364;  257.250;  383.000;  206.000
394.493;  518.725; -911.000; -767.000
394.621;    1.400; -955.000; -916.000
394.750;  632.325; -873.000; -923.000
394.878; 2624.600; -247.000; -149.000
395.007; 3770.150; -721.000; -807.000
395.135;  308.125; -790.000; -721.000
395.263;  -87.225;-1038.000;-1040.000
395.392;    0.900;  -25.000; -107.000
395.520; -113.100; -818.000; -679.000
395.648;  -80.850; -865.000; -915.000
395.777;   13.625; -366.000; -405.000
395.905;  -27.325; -449.000; -564.000
396.033;   16.450;  217.000;  172.000
396.162;  761.700; -399.000; -453.000
396.290;  708.225;  -17.000;   -2.000
396.418;  177.375; -555.000; -514.000
396.546;  -41.075; -571.000; -466.000
396.674;  -91.100; -850.000; -878.000
396.803;   38.500;  -72.000;  -23.000
396.931;  142.150; -179.000; -199.000
397.059;  150.375;-1026.000; -989.000
397.187;  -94.825;-1026.000; -975.000
397.315; -122.850; -884.000; -649.000
397.443;  -90.325; -592.000; -443.000
397.572;  -87.800; -578.000; -424.000
397.700;   25.250; -607.000; -614.000
397.828;   40.775;  120.000;  -90.000
397.956;  -49.675; -508.000; -478.000
398.084;  -63.300; -767.000; -626.000
398.212;   43.975;  137.000;  124.000
398.340;   28.350;  -56.000;  159.000
398.468;   57.700; -390.000; -169.000
398.596; -108.200; -993.000; -953.000
398.724; -125.800; -762.000; -767.000
398.852; -152.925;-1024.000; -976.000
398.980;  -50.100; -560.000; -560.000
399.108;  -26.425; -982.000; -735.000
399.236;   61.000;   13.000;    8.000
399.363;   23.250;  222.000;  196.000
399.491;  -73.250; -404.000; -398.000
399.619; -126.300; -829.000; -800.000
399.747;  -81.450; -859.000; -771.000
399.875;   96.750;  220.000;  234.000
400.003;  -45.000; -359.000; -284.000
400.130;  -89.475; -421.000; -341.000
400.258;  -23.025;  -83.000;   38.000
400.386;  -56.400; -352.000; -168.000
400.514;  -15.575; -526.000; -587.000
400.641;  -54.475; -928.000; -802.000
400.769; -136.450; -979.000; -888.000
400.897;  -87.225; -838.000; -793.000
401.025;   -5.875; -166.000; -152.000
401.152;   -2.850;  220.000;   38.000
401.280;  -89.925; -430.000; -429.000
401.408; -111.750; -712.000; -576.000
401.535;  -94.825; -735.000; -758.000
401.663; -187.600;-1134.000;-1054.000
401.790;  -91.225; -514.000; -525.000
401.918;   39.400;  436.000;  405.000
402.046;  -24.850;  134.000;  122.000
402.173;  -37.475;  -18.000;    7.000
402.301;  -61.500; -519.000; -397.000
402.428;   30.125;  528.000;  383.000
402.556; -136.775;-1188.000; -913.000
402.683;  -22.175;  -20.000;   -1.000
402.811;  -26.775;  -37.000; -206.000
402.938;  -13.850;   20.000;   27.000
403.066;  258.650; -574.000; -558.000
403.193;  441.925;  299.000;  239.000
403.321;  344.875; -396.000; -574.000
403.448;  406.025;   83.000;   27.000
403.575;  193.625;  -90.000;  -46.000
403.703;  -86.775; -732.000; -557.000
403.830;  -64.525; -531.000; -496.000
403.957; -124.275;-1117.000;-1023.000
404.085;   13.325;  -61.000; -172.000
404.212;  109.700;  -50.000;   63.000
404.339;  231.750; -566.000; -306.000
404.467; 5118.200; -612.000; -524.000
404.594; 3918.050; -287.000; -227.000
404.721; 1073.750; -869.000; -764.000
404.848;  111.125; -113.000; -202.000
404.976;  -89.125; -856.000; -783.000
405.103;  -24.025;  -14.000;  -82.000
405.230;   -5.600;  190.000;  226.000
405.357;   33.675;  117.000;   44.000
405.484;  236.650;  -49.000;    5.000
405.612;   62.275; -548.000; -563.000
405.739;  -51.950; -488.000; -243.000
405.866;   86.400;  669.000;  385.000
405.993;  -29.325; -398.000; -102.000
406.120; -135.150; -801.000; -887.000
406.247;  -41.100; -323.000; -342.000
406.374;  550.375;  540.000;  629.000
406.501;  215.025; -632.000; -702.000
406.628;  -70.725; -621.000; -589.000
406.755;  -76.075; -803.000; -620.000
406.882;  -39.475; -228.000; -277.000
407.009; -102.850; -719.000; -628.000
407.136;   74.000; -480.000; -401.000
407.263;  260.300; -939.000; -829.000
407.390;  -55.225; -692.000; -614.000
407.517; -149.425;-1139.000;-1187.000
407.644;  -49.200; -332.000; -256.000
407.771;  -75.900; -249.000; -287.000
407.898;   11.250;  168.000;  328.000
408.025;  -54.050; -421.000; -313.000
408.151;   -9.175;   82.000;  153.000
408.278;  -60.700; -267.000; -216.000
408.405; -112.200; -931.000; -899.000
408.532;  -56.400; -549.000; -542.000
408.659; -114.525; -677.000; -648.000
408.785; -195.525;-1298.000;-1170.000
408.912;  -67.675; -412.000; -296.000
409.039; -108.825; -610.000; -686.000
409.166; -107.475; -591.000; -555.000
409.292; -116.000; -571.000; -534.000
409.419; -122.000; -665.000; -649.000
409.546;  -92.625; -431.000; -192.000
409.672; -110.525; -713.000; -545.000
409.799;  -37.650;  -36.000;   34.000
409.926;  -47.100; -180.000; -179.000
410.052; -168.850;-1127.000;-1091.000
410.179;  -61.400; -368.000; -392.000
410.305;  -81.250; -375.000; -493.000
410.432;  -39.575; -220.000; -333.000
410.558;  -92.150; -305.000; -380.000
410.685; -102.400; -688.000; -431.000
410.812;  -89.525; -409.000; -588.000
410.938; -134.250; -964.000; -808.000
411.065;  -82.225; -671.000; -645.000
411.191;  -16.525; -189.000; -174.000
411.317;  -97.050; -823.000; -742.000
411.444;  -67.200; -317.000; -246.000
411.570;  -68.550; -339.000; -294.000
411.697; -122.200; -758.000; -752.000
411.823; -159.125; -989.000; -999.000
411.949;  -28.975;  -56.000;   17.000
412.076; -107.700; -539.000; -519.000
412.202; -116.400; -758.000; -757.000
412.329; -116.225; -798.000; -752.000
412.455; -115.700; -821.000; -657.000
412.581;  -26.125;  -15.000;  172.000
412.707;  -53.700; -540.000; -457.000
412.834;    6.200;  156.000;  219.000
412.960;  -86.325; -785.000; -784.000
413.086; -100.325; -743.000; -701.000
413.212;  173.700;  604.000;  578.000
413.339;  -36.975; -685.000; -701.000
413.465;   30.375; -364.000; -310.000
413.591;  -72.775; -757.000; -474.000
413.717;  -43.025; -358.000; -366.000
413.843; -129.700; -839.000; -861.000
413.969;  -63.525;  -47.000; -292.000
414.096;  -92.275; -679.000; -679.000
414.222;    5.800;  -33.000;   85.000
414.348;    0.400; -652.000; -385.000
414.474;  134.625;   38.000;  -52.000
414.600;  -10.450; -126.000; -144.000
414.726;  -16.050;  -96.000;  -55.000
414.852;  -59.725; -365.000; -342.000
414.978;   32.350;  104.000;  -18.000
415.104;   42.175;   38.000;   80.000
415.230;   22.775; -329.000; -330.000
415.356;   39.150; -409.000; -514.000
415.482;  218.750;   13.000;  -35.000
415.608;  262.025; -247.000; -323.000
415.734;  914.525;   67.000;   38.000
415.860;18386.450; -875.000; -767.000
415.986;14744.225; -685.000; -607.000
416.111; 1323.875; -798.000; -652.000
416.237;  271.725; -424.000; -571.000
416.363;  947.250; -765.000; -733.000
416.489; 3872.925; -324.000; -251.000
416.615;  464.800; -707.000; -742.000
416.741;  -22.425; -677.000; -784.000
416.866;  -98.175; -673.000; -736.000
416.992; -115.575; -801.000; -818.000
417.118;  -35.600;  -41.000;  -80.000
417.244;  -48.825; -798.000; -531.000
417.369;  -82.875; -801.000; -612.000
417.495;    6.875; -325.000; -254.000
417.621;  -79.775;-1015.000; -803.000
417.746;   16.175; -579.000; -572.000
417.872;   44.550; -254.000; -144.000
417.998;   47.175; -515.000; -530.000
418.123;  865.025;-1073.000; -845.000
418.249; 5020.450; -512.000; -601.000
418.374;  765.925; -916.000; -824.000
418.500;  118.000; -383.000; -482.000
418.626;  108.175;   70.000;  -59.000
418.751;  137.575; -549.000; -448.000
418.877;  187.225; -637.000; -643.000
419.002; 1525.150; -688.000; -560.000
419.128;11460.100; -930.000; -721.000
419.253; 3088.225; -967.000; -837.000
419.379;  398.750; -391.000; -338.000
419.504;  365.300;  325.000;  415.000
419.629;  479.825; -393.000; -212.000
419.755; 2896.800; -317.000; -254.000
419.880;18540.950;  -98.000;   67.000
420.006;10374.475; -280.000; -221.000
420.131;27975.925; -662.000; -775.000
420.256; 4449.500; -315.000; -316.000
420.382;  587.725; -665.000; -687.000
420.507;   96.475; -649.000; -778.000
420.632;  192.300; -337.000; -339.000
420.758;  371.125; -251.000; -425.000
420.883;  -51.675; -876.000; -672.000
421.008;  -93.925; -775.000; -619.000
421.133;  -74.775; -509.000; -467.000
421.259;  -43.800; -325.000; -259.000
421.384; -109.750; -834.000; -693.000
421.509;  -18.875;-1052.000; -862.000
421.634; 1597.850; -936.000; -820.000
421.759;  780.400; -359.000; -327.000
421.885;  -26.600; -717.000; -656.000
422.010;  -68.925; -673.000; -542.000
422.135; -138.725; -695.000; -727.000
422.260;   26.275;  340.000;  280.000
422.385;  -36.075;   12.000;  -98.000
422.510;    0.275;  151.000;  -26.000
422.635;   28.775;  -87.000;  -43.000
422.760;  132.275; -766.000; -791.000
422.885;   66.500;  -57.000;  -80.000
423.010;  -33.225; -112.000; -169.000
423.135;  -83.325; -481.000; -561.000
423.260;   -5.175; -150.000; -245.000
423.385;   80.525;  476.000;  222.000
423.510;   42.475;   71.000;  -22.000
423.635;  102.975;  133.000;   45.000
423.760;   75.150;  383.000;  328.000
423.885;   59.625;  336.000;  391.000
424.010;   22.850;  -68.000;  -13.000
424.135;  -17.450;    5.000;  -33.000
424.259;  -81.725; -654.000; -457.000
424.384;  -67.775; -279.000; -272.000
424.509;    1.525; -260.000; -186.000
424.634;  -82.350; -761.000; -623.000
424.759;  -20.450; -688.000; -544.000
424.883;   -1.000; -506.000; -527.000
425.008;  169.300; -502.000; -410.000
425.133; 1821.425; -679.000; -653.000
425.258;  946.175; -517.000; -381.000
425.382; 1153.325; -867.000; -774.000
425.507; 3261.475; -487.000; -543.000
425.632;  518.650; -802.000; -663.000
425.756;  414.875; -256.000; -146.000
425.881; 5224.525; -831.000; -857.000
426.006;15318.950; -604.000; -355.000
426.130; 2735.625; -696.000; -508.000
426.255;  356.725; -611.000; -491.000
426.379;  146.275; -189.000; -577.000
426.504;  351.250;  660.000;  544.000
426.629; 3755.575; -519.000; -466.000
426.753; 2859.050;   64.000;  -46.000
426.878;  333.775; -252.000; -288.000
427.002;  197.125; -651.000; -668.000
427.127; 1407.500;  -35.000; -158.000
427.251;10413.050;  372.000;  401.000
427.375; 3370.300; -191.000; -173.000
427.500; 2683.300; -616.000; -610.000
427.624; 1039.450; -234.000; -400.000
427.749;  120.625; -216.000; -225.000
427.873;  -21.200; -499.000; -412.000
427.997;  -41.400; -222.000; -230.000
428.122;   74.550;  795.000;  703.000
428.246;   83.925;  433.000;  434.000
428.371; -104.700; -869.000; -773.000
428.495; -101.325; -624.000; -646.000
428.619;  -24.425; -186.000; -117.000
428.743;   44.175;   65.000;  132.000
428.868;   39.125; -732.000; -643.000
428.992; 1697.225; -219.000; -326.000
429.116;  775.300; -329.000; -357.000
429.240;  363.500;  419.000;  426.000
429.365;   -7.925; -454.000; -574.000
429.489;  -11.150; -638.000; -647.000
429.613;   32.000; -236.000; -177.000
429.737;   47.975; -563.000; -432.000
429.861;  271.325; -247.000; -133.000
429.985; 4925.050; -425.000; -305.000
430.109; 5984.250; -770.000; -908.000
430.234;  737.125;   76.000;  -50.000
430.358;   89.325; -250.000; -160.000
430.482;  -52.600; -672.000; -564.000
430.606;  -51.575; -655.000; -375.000
430.730;   45.075; -437.000; -388.000
430.854;  219.350; -909.000; -835.000
430.978;  -36.100; -795.000; -764.000
431.102;  -78.525; -499.000; -422.000
431.226;  -99.250; -874.000; -815.000
431.350;   40.875;  345.000;  422.000
431.474;  -64.250; -661.000; -373.000
431.597; -118.525;-1060.000; -848.000
431.721;  -75.675; -276.000; -267.000
431.845; -133.850; -704.000; -472.000
431.969;  -76.850; -304.000; -349.000
432.093; -104.175; -395.000; -317.000
432.217;  -28.425;   32.000;   82.000
432.341;  -83.725; -523.000; -518.000
432.464;   11.975;   96.000;   40.000
432.588;  291.100; -401.000; -329.000
432.712;  160.075;  -52.000;  -52.000
432.836;   49.550;  213.000;  263.000
432.959;  -21.575; -372.000; -311.000
433.083;   71.850;   11.000;    2.000
433.207;  332.925;  285.000;  930.000
433.330; 4328.425; -391.000; -200.000
433.454; 5890.375; -654.000; -638.000
433.578; 3394.475;  583.000;  278.000
433.701;  701.900; -623.000; -675.000
433.825;  212.375; -292.000; -299.000
433.949;  257.675;   28.000;  -72.000
434.072;  134.550; -410.000; -323.000
434.196;   -1.850; -309.000; -117.000
434.319; 3557.250;25482.000;25124.000
434.443;  713.375; -656.000; -603.000
434.566; 2525.575;  281.000;   62.000
434.690;  451.200; -637.000; -383.000
434.813;   63.325; -251.000; -173.000
434.937;  -82.950; -569.000; -696.000
435.060;  -23.400; -423.000; -332.000
435.184;  492.425; -492.000; -217.000
435.307;  291.850;  159.000;  102.000
435.431;    7.725;  -40.000;   24.000
435.554;  -89.650; -399.000; -240.000
435.677;  -80.300; -350.000; -258.000
435.801;  -45.000;  -25.000;   49.000
435.924;    6.500;    1.000;  -67.000
436.048;  -83.425;-1019.000; -732.000
436.171;  -57.650; -240.000;  -66.000
436.294;  -28.025; -248.000; -229.000
436.417;   74.300; -963.000; -849.000
436.541;  -73.075; -814.000; -840.000
436.664;  -48.025; -242.000; -316.000
436.787;  -12.525;   13.000;  113.000
436.910; -114.000; -792.000; -422.000
437.034;    8.350;  142.000;  143.000
437.157;   91.750;  -11.000;    0.000
437.280;  -26.850; -392.000; -292.000
437.403;  -56.825; -982.000; -869.000
437.526;  850.825; -903.000; -865.000
437.649; 3223.950; -505.000; -332.000
437.772;  611.675; -692.000; -540.000
437.896;  155.025;  700.000;  544.000
438.019;  -80.375; -758.000; -503.000
438.142;  -85.450; -596.000; -506.000
438.265;    9.000; -639.000; -670.000
438.388;  795.325; -520.000; -410.000
438.511;  224.750; -597.000; -394.000
438.634;  -21.775; -247.000; -125.000
438.757; -128.050; -693.000; -619.000
438.880;  -18.225;  -34.000;  -57.000
439.003;  -67.300; -417.000; -437.000
439.126;  -66.600; -287.000; -167.000
439.248;  -63.650;  -98.000; -139.000
439.371;  -49.425;    9.000;  -53.000
439.494;   30.150;  510.000;  439.000
439.617;  -58.500;   65.000;  -88.000
439.740; -171.300; -968.000; -816.000
439.863; -157.050; -755.000; -595.000
439.986; -111.675; -476.000; -431.000
440.108;  -48.550; -161.000; -112.000
440.231; -158.950; -950.000; -836.000
440.354;  -41.925;  -64.000; -150.000
440.477;   93.875; -566.000; -542.000
440.599;   39.775; -200.000; -225.000
440.722; -114.000; -709.000; -586.000
440.845;   56.000;  751.000;  928.000
440.968; -106.750; -415.000; -311.000
441.090;  -68.175; -199.000;  -33.000
441.213; -153.875;-1021.000; -825.000
441.336;  -57.700; -159.000;   -5.000
441.458;  -67.850; -549.000; -396.000
441.581;  -65.150; -628.000; -629.000
441.703;  -61.150; -152.000;   13.000
441.826; -103.625; -557.000; -400.000
441.948;  -43.400;   56.000;   51.000
442.071;   23.650;  555.000;  424.000
442.193; -110.775; -531.000; -485.000
442.316;    5.325;  152.000;   97.000
442.438;   54.150; -233.000;  -10.000
442.561;   89.725;  272.000;  262.000
442.683;  719.250; -809.000; -522.000
442.806; 1637.075;   -8.000;   74.000
442.928;  132.875; -859.000; -604.000
443.051;  -53.125; -577.000; -373.000
443.173;  -88.900; -341.000; -339.000
443.295;  -85.250; -263.000; -371.000
443.418;  -76.300; -321.000;  -29.000
443.540;    0.850; -106.000;   -4.000
443.662;  -99.200; -563.000; -465.000
443.785;  -16.700;  335.000;  199.000
443.907; -111.200; -362.000; -208.000
444.029; -138.025; -767.000; -494.000
444.152; -155.500; -644.000; -554.000
444.274;  -37.550;  -18.000;  -24.000
444.396; -109.075; -461.000; -221.000
444.518; -131.400; -691.000; -454.000
444.640;  -97.325; -268.000; -111.000
444.763;  -24.175;  388.000;  249.000
444.885; -118.475; -432.000; -392.000
445.007;  -33.550;   35.000;   86.000
445.129; -112.525; -610.000; -515.000
445.251; -107.125; -372.000; -439.000
445.373; -126.750; -537.000; -386.000
445.495;   -6.050;  242.000;  350.000
445.617;   48.025;  853.000;  753.000
445.739;  -68.050; -215.000;  -97.000
445.861;  -31.250; -245.000; -112.000
445.984;  -22.650; -267.000; -101.000
446.105;  278.850; -418.000; -251.000
446.227;  835.825; -176.000;  -19.000
446.349;   60.625; -358.000; -249.000
446.471;  -85.975; -615.000; -448.000
446.593;  -44.175; -316.000;   19.000
446.715;    8.250;  -67.000;   41.000
446.837;   64.375;  697.000;  832.000
446.959;  -90.075; -457.000; -478.000
447.081; -118.025; -628.000; -518.000
447.203;   59.425;  862.000;  834.000
447.325;  -86.750; -270.000;   42.000
447.446;   -8.775;  286.000;  530.000
447.568; -149.200; -921.000; -803.000
447.690;  -76.000; -236.000; -245.000
447.812; -142.625; -798.000; -519.000
447.933;  -21.125;  155.000;  127.000
448.055;  -59.825; -306.000; -261.000
448.177;  180.950;   31.000;   79.000
448.299;  182.475; -935.000; -727.000
448.420;   33.375;  -25.000;  159.000
448.542;  -44.875;   -3.000;   33.000
448.664;  -17.500;  109.000;  322.000
448.785;  -42.625;  265.000;   83.000
448.907;  -70.050; -614.000; -353.000
449.028;    4.000; -771.000; -471.000
449.150;   59.000;  492.000;  589.000
449.272; -165.775;-1044.000; -913.000
449.393;   29.150;  612.000;  694.000
449.515; -137.675; -634.000; -581.000
449.636;  -54.225; -264.000; -155.000
449.758;  103.350;  763.000;  622.000
449.879;  -96.125; -498.000; -396.000
450.001;  -75.450; -149.000;  -49.000
450.122;  -37.475;  -95.000;  162.000
450.244;  -35.100;   37.000;  364.000
450.365;  -85.975; -495.000; -301.000
450.486;  -36.975;   80.000;  268.000
450.608;   13.350;  393.000;  326.000
450.729;   55.650;  578.000;  645.000
450.850;   -2.800; -574.000; -466.000
450.972;  586.675; -552.000; -389.000
451.093; 4158.025;  190.000;  588.000
451.214; 2035.300; -516.000; -337.000
451.336;  378.700;  773.000;  579.000
451.457;   55.225;  264.000;  393.000
451.578;  -44.150; -118.000;  -74.000
451.699; -122.075; -546.000; -540.000
451.821;  -58.900; -284.000;  -50.000
451.942;  -19.200;  278.000;  285.000
452.063;   30.425;  228.000;  419.000
452.184;  467.350;  -54.000;  -49.000
452.305; 1045.275;  103.000;  170.000
452.427;  139.375; -549.000; -301.000
452.548;   -8.325;   23.000;   79.000
452.669;  -39.400; -257.000;  -89.000
452.790;  -39.550;    3.000;  -18.000
452.911;   -5.200;  195.000;  259.000
453.032;  -55.700; -289.000;  -60.000
453.153;  -39.675;  -29.000;   81.000
453.274;   56.025;  737.000;  868.000
453.395;  -47.550;  -51.000;  175.000
453.516;   33.650; 1317.000; 1388.000
453.637;  -43.000; -205.000; -150.000
453.758;  -48.100;   15.000;   69.000
453.879; -114.575; -462.000; -250.000
454.000;   76.500; 1086.000;  948.000
454.121; -101.025; -554.000; -326.000
454.242; -103.425; -599.000; -383.000
454.362;  -46.500;  -99.000;  114.000
454.483;  -34.900; -309.000; -229.000
454.604;   70.675;  512.000;  580.000
454.725; -124.975; -627.000; -555.000
454.846; -109.825; -474.000; -406.000
454.967;  -25.750;  230.000;  539.000
455.087;  -41.275;  179.000;  153.000
455.208;   13.350;  554.000;  856.000
455.329;  -68.650;  -22.000;   82.000
455.450;   35.050;  473.000;  633.000
455.570;  -95.850; -234.000; -211.000
455.691;  -42.125;  201.000;  407.000
455.812; -108.600; -270.000;  -92.000
455.932;  -60.800;  107.000;  -97.000
456.053;  -93.725;   36.000;   24.000
456.173; -115.550; -433.000; -355.000
456.294; -143.350; -476.000; -303.000
456.415;  -73.625;  -73.000;   70.000
456.535;  -33.050;  297.000;  273.000
456.656;  -39.925;  132.000;  240.000
456.776;  -76.950;    3.000;  298.000
456.897;  -18.325;  308.000;  513.000
457.017;  -74.275; -153.000;   -3.000
457.138; -105.000; -402.000; -249.000
457.258;  -32.525;  263.000;  224.000
457.379;  -34.250;  509.000;  521.000
457.499;  -39.600;  443.000;  432.000
457.620; -112.500; -407.000; -231.000
457.740;  -94.425; -132.000;  -11.000
457.860;  -64.950;   87.000;   44.000
457.981;  -45.325;  132.000;  124.000
458.101;  -76.500;  -89.000;   40.000
458.221;  -20.975;  336.000;  402.000
458.342;  -57.500;   -4.000;  -37.000
458.462;   18.125;  617.000;  352.000
458.582;  -44.025; -302.000; -294.000
458.703;   -1.175;  303.000;  154.000
458.823;  -36.925;   22.000;  163.000
458.943;    9.175;  341.000;  467.000
459.063;  -15.775; 1124.000;  192.000
459.183;  -11.925;  328.000;  313.000
459.304;  -18.650;  315.000;  517.000
459.424;  -71.300; -246.000;  -89.000
459.544;  278.500;  388.000;  764.000
459.664;  760.825;  499.000;  506.000
459.784;  312.075; 1004.000; 1175.000
459.904;   56.375;  867.000;  744.000
460.024;   70.100;  867.000;  684.000
460.144;   12.975;  449.000;  554.000
460.264;    4.050;  515.000;  327.000
460.385;  -78.450; -145.000; -119.000
460.505;   41.075;  905.000;  858.000
460.625;  -81.850;  -17.000;  -68.000
460.745;  -24.400;  396.000;  541.000
460.864;  -39.950;  153.000;  469.000
460.984;    9.850;  499.000;  573.000
461.104;  135.100; 1656.000; 1775.000
461.224;   25.875;  657.000;  650.000
461.344;  -29.900;  431.000;  360.000
461.464;  -21.775;  258.000;  513.000
461.584;    0.625;  283.000;  466.000
461.704;  -33.125;   58.000;  108.000
461.824;  -38.025;  238.000;  259.000
461.943;  -48.550;  191.000;  130.000
462.063;  -76.800;    2.000;  324.000
462.183;   38.250;  639.000;  717.000
462.303;   94.900; 1678.000; 1230.000
462.422;   30.950;  781.000;  840.000
462.542;  -43.850;  271.000;  391.000
462.662;   33.000;  353.000;  380.000
462.782;  216.075;  833.000;  572.000
462.901;  444.100;  545.000;  717.000
463.021;  283.775; 1702.000; 1638.000
463.141;   -5.925;  337.000;  770.000
463.260;  -12.925;  614.000;  474.000
463.380;   24.975;  902.000;  884.000
463.499;  -33.250;  342.000;  332.000
463.619;  -34.025;  581.000;  559.000
463.738;  108.225; 1644.000;  903.000
463.858;   19.750;  657.000;  811.000
463.978;  -36.925;  542.000;  396.000
464.097;   45.850;  921.000; 1114.000
464.217;   97.625; 1196.000; 1143.000
464.336;  106.000; 1068.000; 1130.000
464.455;  -25.825;  328.000;  659.000
464.575;   47.250;  597.000;  602.000
464.694;  194.100; 1204.000; 1179.000
464.814;  124.200; 1190.000; 1138.000
464.933;   81.075; 1095.000; 1027.000
465.052;   92.425; 1412.000; 1054.000
465.172;   87.375;  922.000;  799.000
465.291;  156.925; 1376.000; 1320.000
465.410;   29.300;  462.000;  735.000
465.530;   78.575; 1355.000; 1310.000
465.649;   80.850; 1209.000; 1273.000
465.768;  124.375; 1673.000; 1508.000
465.888;   41.250;  941.000; 1174.000
466.007;   99.075; 1335.000; 1440.000
466.126;   -6.750;  721.000;  641.000
466.245;   36.575; 1176.000; 1187.000
466.364;    9.725;  950.000; 1060.000
466.484;   46.875; 1024.000; 1213.000
466.603;   49.575; 1101.000; 1222.000
466.722;  119.000; 1490.000; 1769.000
466.841;   83.150; 1151.000; 1401.000
466.960;   43.250; 1069.000;  972.000
467.079;  137.050; 1971.000; 1786.000
467.198;   48.550; 1238.000; 1181.000
467.317;   88.975; 1768.000; 1162.000
467.436;   72.550; 1709.000; 1261.000
467.555;  112.350; 1796.000; 1746.000
467.674;   61.200; 1227.000; 1329.000
467.793;   47.300; 1376.000; 1374.000
467.912;  100.575; 1658.000; 1539.000
468.031;  150.150; 2038.000; 1930.000
468.150;  149.775; 1842.000; 1837.000
468.269;  220.300; 2313.000; 2090.000
468.388;  189.950; 2168.000; 2339.000
468.507;  241.400; 2884.000; 2903.000
468.626;  261.000; 2555.000; 2541.000
468.744;  138.600; 2018.000; 2174.000
468.863;  181.000; 2312.000; 2523.000
468.982;   86.225; 1503.000; 1555.000
469.101;  202.700; 2788.000; 2692.000
469.220;  156.925; 2333.000; 2176.000
469.338;  248.450; 2935.000; 3051.000
469.457;  202.900; 2719.000; 2545.000
469.576;  347.000; 3953.000; 3784.000
469.695;  254.725; 2877.000; 3066.000
469.813;  417.625; 4148.000; 4192.000
469.932;  396.000; 4255.000; 4485.000
470.051;  402.425; 4075.000; 4161.000
470.169;  772.975; 4470.000; 4338.000
470.288; 1389.650; 4700.000; 4809.000
470.406;  894.125; 5059.000; 5194.000
470.525;  632.450; 6101.000; 5787.000
470.644;  647.525; 6847.000; 6794.000
470.762;  805.100; 8397.000; 7873.000
470.881;  894.050; 8651.000; 8464.000
470.999; 1018.625; 9685.000; 9151.000
471.118; 1088.700;11174.000;10711.000

