
Integration time [ms]: 200.000
Averaging Nr. [scans]: 10
Smoothing Nr. [pixels]: 0
Data measured with spectrometer [name]: 2101012U2
Wave   ;Sample   ;Dark     ;Reference
[nm]   ;[counts] ;[counts] ;[counts] 

197.733;  137.400;  516.000;  404.000
197.879; -164.800; -610.000; -634.000
198.025; -100.200; -475.000; -420.000
198.171; -144.400; -602.000; -612.000
198.317;  -71.900; -401.000; -316.000
198.463; -128.700; -655.000; -404.000
198.609;   72.500;  181.000; -137.000
198.755; -171.800; -644.000; -410.000
198.901; -140.200; -505.000; -424.000
199.047; -113.500; -615.000; -488.000
199.193; -118.200; -230.000; -468.000
199.339;  -57.800; -222.000; -369.000
199.485;   66.600;  330.000;  271.000
199.631;   42.400;  227.000;  310.000
199.777; -120.800; -466.000; -398.000
199.923; -148.400; -610.000; -424.000
200.069;  -32.100; -141.000;  -58.000
200.215;  126.900;  128.000;  453.000
200.361;   89.300;  243.000;  477.000
200.507; -132.300; -600.000; -373.000
200.653;  -69.000; -371.000; -194.000
200.798;  -50.600; -215.000; -125.000
200.944;  -11.900; -146.000;  -41.000
201.090;  104.000;   61.000;  222.000
201.236;    8.000; -116.000; -158.000
201.382;  286.800;  874.000;  903.000
201.528;  -19.800;  -58.000;  -48.000
201.674; -127.900; -386.000; -293.000
201.819; -138.000; -540.000; -439.000
201.965; -176.900; -699.000; -447.000
202.111;  -78.000; -273.000; -226.000
202.257;  -78.400; -250.000; -238.000
202.402;    3.700;   13.000;  -36.000
202.548;  -70.200; -169.000; -116.000
202.694;  173.400;  410.000; -183.000
202.840; -168.400; -603.000; -531.000
202.985; -158.300; -681.000; -639.000
203.131; -223.400; -832.000; -666.000
203.277;  -80.800; -199.000; -262.000
203.423; -106.500; -434.000; -520.000
203.568;  -81.400; -462.000; -237.000
203.714;  -96.000; -535.000; -542.000
203.860; -194.200; -682.000; -641.000
204.005;   26.100;  112.000;  167.000
204.151;  157.500;  561.000;  556.000
204.296;  -85.600; -354.000; -221.000
204.442; -187.900; -600.000; -547.000
204.588; -141.300; -592.000; -579.000
204.733;   37.700;  178.000;  168.000
204.879; -273.700;-1018.000; -822.000
205.025;   22.100;  -99.000;  126.000
205.170;   22.300;  -17.000;   94.000
205.316;  129.600;  438.000;  661.000
205.461; -148.400; -698.000; -554.000
205.607;  158.100;  609.000;  665.000
205.752; -151.000; -626.000; -551.000
205.898; -117.300; -501.000; -391.000
206.043; -122.900; -578.000; -506.000
206.189;  -72.200; -243.000; -285.000
206.334;  207.200;  554.000;  606.000
206.480;  147.900;  409.000;  239.000
206.625; -159.200; -529.000; -552.000
206.771; -122.900; -451.000; -373.000
206.916;  -65.600; -210.000; -537.000
207.062; -160.600; -545.000; -591.000
207.207; -106.500; -546.000; -443.000
207.353;   74.800;  185.000;  460.000
207.498;   34.200;  196.000;   85.000
207.643; -120.500; -501.000; -370.000
207.789; -274.200;-1069.000; -910.000
207.934; -203.200; -665.000; -713.000
208.080;  -10.200; -154.000;   66.000
208.225;  -29.500;  -22.000;  -57.000
208.370; -191.400; -727.000; -619.000
208.516; -162.400; -741.000; -487.000
208.661;  -44.100; -127.000;  -69.000
208.806;  -51.900; -165.000; -171.000
208.952; -263.800;-1044.000; -731.000
209.097;  164.000;  378.000;  349.000
209.242;  -78.600; -307.000; -382.000
209.387;  102.700;  392.000;  350.000
209.533; -110.100; -321.000; -350.000
209.678;  180.100;  472.000;  543.000
209.823; -107.000; -408.000; -310.000
209.969; -220.600; -860.000; -757.000
210.114; -197.300; -907.000; -719.000
210.259; -244.700; -939.000; -889.000
210.404;   23.800; -171.000;  103.000
210.549;  -16.700;  108.000;    3.000
210.695;  -27.200;   -3.000;  -95.000
210.840;   72.100;   94.000;   67.000
210.985; -124.000; -484.000; -303.000
211.130;  100.500;  268.000;  406.000
211.275;   76.500;  207.000;  199.000
211.420; -131.400; -300.000; -289.000
211.566; -135.400; -536.000; -489.000
211.711;   28.900;  218.000;  157.000
211.856; -126.000; -545.000; -519.000
212.001;   32.800;  151.000;   44.000
212.146;   35.400;  153.000;   49.000
212.291;  -53.400; -210.000; -186.000
212.436;  -42.900; -280.000;   -6.000
212.581; -180.000; -685.000; -653.000
212.726; -141.700; -487.000; -538.000
212.871;  -75.000; -552.000; -217.000
213.016; -315.100;-1172.000;-1029.000
213.161;  128.400;  406.000;  291.000
213.306; -144.600; -435.000; -577.000
213.451; -215.000; -778.000; -689.000
213.596;  -44.000; -455.000; -347.000
213.741; -112.900; -448.000; -538.000
213.886; -160.100; -498.000; -517.000
214.031;  -54.400; -294.000; -124.000
214.176;  -86.700; -408.000; -341.000
214.321;  -35.200; -296.000; -157.000
214.466;  -49.600; -163.000;  -43.000
214.611;  -11.900;  -61.000;  -10.000
214.756; -243.900; -948.000; -858.000
214.901;  -62.700; -388.000; -226.000
215.046; -256.400; -797.000; -825.000
215.191;   29.300;  128.000;   35.000
215.336;  -29.100; -157.000;  -19.000
215.480; -157.900; -684.000; -505.000
215.625;    2.500; -175.000;  -19.000
215.770; -182.900; -757.000; -662.000
215.915;    9.300;   -5.000;  -97.000
216.060;   -4.000; -113.000;  -21.000
216.205; -203.900; -731.000; -779.000
216.349; -165.000; -470.000; -533.000
216.494; -261.200; -939.000; -867.000
216.639; -238.400; -823.000; -888.000
216.784; -184.600; -577.000; -525.000
216.929;  102.600;  392.000;  281.000
217.073;  -32.700; -244.000;  -31.000
217.218;    8.300;   78.000;  -47.000
217.363; -167.000; -656.000; -618.000
217.507; -148.600; -623.000; -588.000
217.652; -251.400; -845.000; -874.000
217.797; -181.100; -708.000; -659.000
217.942; -211.500; -856.000; -720.000
218.086;  150.600;  608.000;  539.000
218.231;  -53.300; -174.000;  -26.000
218.376;  -89.500; -337.000; -229.000
218.520;   25.800;  -41.000;   96.000
218.665;  -60.800; -338.000; -204.000
218.810; -100.400; -275.000; -233.000
218.954;   16.500;  201.000;   35.000
219.099; -232.200; -713.000; -963.000
219.243; -163.000; -589.000; -554.000
219.388;  -50.000; -264.000; -136.000
219.532;  -35.200; -116.000; -116.000
219.677; -135.200; -564.000; -521.000
219.822;   -6.800;   33.000;   89.000
219.966;   20.600;   17.000;  -99.000
220.111;  -75.700; -328.000;  -40.000
220.255; -201.100; -797.000; -750.000
220.400;  -49.400; -180.000; -146.000
220.544; -152.600; -516.000; -450.000
220.689; -128.400; -422.000; -451.000
220.833;  -12.900; -123.000;  -58.000
220.978; -107.400; -393.000; -563.000
221.122;   66.900;  319.000;  307.000
221.267; -254.100; -906.000; -837.000
221.411; -132.800; -478.000; -394.000
221.555;  -12.500; -104.000;  -23.000
221.700;  -97.000; -329.000; -222.000
221.844;  103.600;  255.000;  272.000
221.989;  -86.300; -328.000; -311.000
222.133;  -71.400; -289.000; -307.000
222.277;   20.000;    5.000;   78.000
222.422;   26.300;  227.000;  113.000
222.566;  -52.700; -381.000; -214.000
222.711; -103.700; -414.000; -479.000
222.855; -165.000; -643.000; -586.000
222.999; -187.100; -642.000; -717.000
223.144;  -33.000; -195.000; -194.000
223.288;  117.800;  423.000;  251.000
223.432;   47.100;  184.000;  230.000
223.576;   31.900;  152.000;  -21.000
223.721;   95.100;  364.000;  273.000
223.865; -132.400; -472.000; -475.000
224.009;  538.100; 1673.000; 1631.000
224.153; -171.900; -660.000; -671.000
224.298; -121.900; -531.000; -489.000
224.442;  -51.100;  -74.000;  -33.000
224.586;  -13.200; -169.000; -106.000
224.730; -219.500; -858.000; -670.000
224.875; -227.300; -739.000; -688.000
225.019;   27.300;  102.000;  188.000
225.163;  137.400;  208.000;  341.000
225.307;   62.900;   97.000;  -91.000
225.451;  110.200;  360.000;  481.000
225.595;   65.500;  264.000;  176.000
225.739;  -30.300; -170.000;  -94.000
225.884;   17.800;   86.000;    5.000
226.028; -212.100; -760.000; -626.000
226.172;  -78.900; -260.000; -273.000
226.316; -245.100; -941.000; -902.000
226.460; -143.100; -645.000; -493.000
226.604;  -91.800; -406.000; -400.000
226.748; -179.000; -836.000; -733.000
226.892;  -45.300; -227.000; -181.000
227.036;  -65.200; -537.000; -447.000
227.180; -113.200; -551.000; -375.000
227.324; -176.700; -561.000; -580.000
227.468; -232.300; -819.000; -717.000
227.612;   28.700;  242.000;  -28.000
227.756; -189.100; -845.000; -698.000
227.900;  115.900;  342.000;  441.000
228.044; -102.800; -509.000; -290.000
228.188;  124.800;  448.000;  568.000
228.332; -173.500; -546.000; -472.000
228.476;  -27.100; -223.000; -149.000
228.620;  -32.300; -210.000; -150.000
228.764;  146.400;  431.000;  349.000
228.908;  -12.600; -155.000;   30.000
229.052; -144.700; -615.000; -528.000
229.195;  -17.000; -172.000;   13.000
229.339;  -72.300; -235.000; -305.000
229.483;  -40.700;    5.000; -162.000
229.627;   16.300; -156.000;  139.000
229.771;  -64.900; -218.000; -294.000
229.915;   26.400;  230.000;   79.000
230.059; -186.600; -648.000; -663.000
230.202;  -64.300; -370.000; -317.000
230.346;  -14.000; -107.000;  107.000
230.490; -126.100; -489.000; -521.000
230.634; -187.900; -736.000; -553.000
230.777;  160.800;  478.000;  509.000
230.921;  -90.000; -450.000; -359.000
231.065;  -75.300; -246.000; -286.000
231.209;   89.700;  261.000;  265.000
231.352;   49.800;   54.000;   40.000
231.496;   64.800;  568.000;  188.000
231.640; -179.600; -693.000; -621.000
231.783;  142.100;  546.000;  525.000
231.927; -126.000; -294.000; -365.000
232.071; -237.100; -962.000; -736.000
232.214; -213.300; -980.000; -764.000
232.358; -194.600; -683.000; -599.000
232.502;   25.600;  -19.000;    7.000
232.645; -266.000;-1090.000; -927.000
232.789;  -28.200; -257.000; -218.000
232.933;  -54.600; -407.000; -224.000
233.076; -266.400;-1038.000; -897.000
233.220; -191.700; -752.000; -777.000
233.363; -162.100; -669.000; -477.000
233.507;  148.400;  371.000;  129.000
233.650; -202.400; -764.000; -834.000
233.794;   90.000;  438.000;  461.000
233.938;  -96.500; -530.000; -362.000
234.081;   -5.700;  -93.000;   31.000
234.225; -125.100; -631.000; -539.000
234.368; -215.900; -773.000; -723.000
234.512; -108.900; -385.000; -299.000
234.655; -179.500; -582.000; -555.000
234.798; -155.000; -493.000; -466.000
234.942; -251.900; -884.000;-1002.000
235.085; -157.300; -651.000; -443.000
235.229; -142.500; -405.000; -410.000
235.372; -132.900; -247.000; -191.000
235.516; -116.200; -397.000; -321.000
235.659;   48.200;   92.000;  121.000
235.802;  -23.100;  -38.000;  -22.000
235.946;   57.900;  335.000;  215.000
236.089;   95.000;  126.000;  250.000
236.233;   88.500;  275.000;  298.000
236.376;  -86.500; -235.000; -378.000
236.519;  -75.600; -297.000; -319.000
236.663;  -49.400; -215.000; -117.000
236.806; -288.800;-1029.000; -999.000
236.949;  139.500;  543.000;  431.000
237.092;  131.000;  412.000;  391.000
237.236; -154.900; -589.000; -502.000
237.379;  140.400;  352.000;  428.000
237.522; -234.600; -879.000; -768.000
237.666;  -22.300; -271.000;   18.000
237.809; -258.200; -851.000; -823.000
237.952;   82.800;  469.000;  271.000
238.095; -113.400; -447.000; -442.000
238.238;  188.700;  688.000;  700.000
238.382;   31.300;  166.000;  103.000
238.525; -132.300; -598.000; -511.000
238.668; -266.900;-1060.000; -985.000
238.811; -195.800; -638.000; -643.000
238.954;  -90.000; -483.000; -334.000
239.097;  215.800;  617.000;  664.000
239.241;   84.200;  394.000;  326.000
239.384;  -58.300; -254.000; -214.000
239.527; -128.000; -424.000; -224.000
239.670; -302.500; -994.000;-1091.000
239.813; -244.300; -696.000; -658.000
239.956;  158.000;  579.000;  473.000
240.099; -197.300; -778.000; -725.000
240.242;  135.500;  428.000;  432.000
240.385;  118.900;  466.000;  450.000
240.528; -149.400; -706.000; -473.000
240.671;   65.000;  189.000;  134.000
240.814;  -76.500; -441.000; -158.000
240.957; -188.600; -767.000; -578.000
241.100; -196.700; -779.000; -755.000
241.243; -268.900;-1234.000; -893.000
241.386; -108.600; -508.000; -379.000
241.529; -140.100; -735.000; -547.000
241.672; -124.600; -566.000; -495.000
241.815; -228.000; -832.000; -808.000
241.958;  -44.400; -125.000; -182.000
242.101; -129.500; -545.000; -390.000
242.244;  -58.600; -270.000; -325.000
242.387;  -47.800; -304.000; -246.000
242.530;   99.600;  470.000;  134.000
242.673;  -62.600; -381.000; -309.000
242.815; -239.200; -925.000; -899.000
242.958; -112.000; -482.000; -381.000
243.101;   28.900;  132.000;  187.000
243.244; -143.600; -564.000; -521.000
243.387; -118.100; -313.000; -316.000
243.530; -195.100; -657.000; -674.000
243.672;    8.200;   43.000;  -92.000
243.815;  -77.300; -355.000; -283.000
243.958;  -11.900;   98.000;  -26.000
244.101;   36.200;   59.000;  -16.000
244.243;  -33.600;  -47.000;  101.000
244.386; -185.800; -761.000; -630.000
244.529;  -46.900; -132.000; -139.000
244.672; -301.000;-1154.000; -951.000
244.814; -218.600; -621.000; -794.000
244.957;  -81.200; -380.000; -304.000
245.100; -165.800; -489.000; -489.000
245.242;  -89.100; -387.000; -374.000
245.385;  -12.700;  -59.000;  -39.000
245.528; -212.800; -871.000; -705.000
245.670;  188.400;  612.000;  634.000
245.813; -140.800; -599.000; -547.000
245.956;  -60.500; -324.000; -275.000
246.098; -131.800; -508.000; -650.000
246.241;   20.600;  194.000;   48.000
246.383;   -2.200; -119.000;  -73.000
246.526; -164.600; -454.000; -525.000
246.669; -221.000; -889.000; -780.000
246.811;   44.500;  172.000;   -1.000
246.954; -115.400; -512.000; -426.000
247.096;  -30.100;  -84.000;   -6.000
247.239;  -91.600; -482.000; -445.000
247.381; -162.400; -647.000; -488.000
247.524;  202.300;  645.000;  679.000
247.666;    8.400;   58.000;   11.000
247.809; -238.400; -887.000; -691.000
247.951;    8.700;  -75.000;  138.000
248.094;   66.100;  432.000;  308.000
248.236; -320.900;-1262.000;-1238.000
248.378;   -2.500; -356.000;  -81.000
248.521;  -48.400; -334.000; -337.000
248.663;  -44.000; -236.000; -267.000
248.806;  -43.200; -300.000; -266.000
248.948; -185.900; -886.000; -763.000
249.090;  -90.800; -428.000; -398.000
249.233;  -59.200; -344.000; -381.000
249.375; -128.500; -474.000; -451.000
249.518;  -16.700;  -83.000; -133.000
249.660;    4.500; -103.000;    3.000
249.802; -348.200;-1303.000;-1189.000
249.945; -144.800; -612.000; -540.000
250.087; -212.200; -834.000; -768.000
250.229;  -83.600; -362.000; -480.000
250.371; -139.500; -494.000; -439.000
250.514; -123.300; -310.000; -244.000
250.656; -113.000;   69.000;  102.000
250.798; -237.300; -849.000; -800.000
250.940; -115.000; -322.000; -322.000
251.083;  -43.300; -335.000; -111.000
251.225;  147.700;  338.000;  310.000
251.367;  -82.000; -274.000; -373.000
251.509;  -37.400; -265.000; -210.000
251.651; -207.800; -731.000; -671.000
251.794;  136.700;  538.000;  632.000
251.936; -213.600; -821.000; -747.000
252.078; -128.300; -540.000; -461.000
252.220; -152.900; -645.000; -477.000
252.362;  173.000;  344.000;  462.000
252.504; -148.900; -677.000; -584.000
252.646; -222.500; -875.000; -722.000
252.788;   -7.400;   14.000; -128.000
252.931;  -74.900; -257.000; -253.000
253.073;  -85.400; -376.000; -317.000
253.215;   25.500;  141.000;  122.000
253.357;  -21.100;   82.000; -153.000
253.499;  -75.500; -374.000; -234.000
253.641; -186.200; -749.000; -594.000
253.783; -183.800; -609.000; -527.000
253.925; -191.700; -586.000; -591.000
254.067; -183.700; -744.000; -667.000
254.209;  -68.400; -391.000; -259.000
254.351; -225.400; -865.000; -883.000
254.493; -136.500; -441.000; -417.000
254.635; -189.900; -936.000; -818.000
254.777; -176.400; -752.000; -687.000
254.918; -137.500; -512.000; -430.000
255.060; -111.900; -551.000; -395.000
255.202;  -93.100; -473.000; -261.000
255.344; -186.300; -658.000; -455.000
255.486; -145.600; -471.000; -406.000
255.628; -236.500; -780.000; -781.000
255.770; -154.400; -676.000; -536.000
255.912; -117.700; -559.000; -468.000
256.053; -181.800; -730.000; -508.000
256.195;  332.400; 1008.000;  903.000
256.337; -174.300; -861.000; -595.000
256.479;  147.300;  532.000;  416.000
256.621;  -74.900; -394.000; -212.000
256.762; -211.400; -789.000; -742.000
256.904;  134.900;  485.000;  487.000
257.046;  -98.900; -381.000; -271.000
257.188;  -79.100; -351.000; -264.000
257.329; -154.300; -525.000; -464.000
257.471; -221.900; -939.000; -807.000
257.613; -134.500; -584.000; -498.000
257.755; -293.100;-1073.000; -982.000
257.896;   98.300;  286.000;  392.000
258.038; -116.600; -403.000; -352.000
258.180; -106.500; -354.000; -279.000
258.321; -168.900; -581.000; -457.000
258.463;    0.300;  -71.000;  133.000
258.605; -166.100; -562.000; -570.000
258.746; -209.900; -886.000; -772.000
258.888; -270.300;-1026.000;-1020.000
259.029;   34.000;  121.000;   -8.000
259.171; -148.100; -614.000; -550.000
259.313;  -20.900;  -49.000;  -47.000
259.454; -125.200; -536.000; -414.000
259.596;  -95.400; -483.000; -390.000
259.737; -117.100; -590.000; -474.000
259.879;   66.800;  217.000;  311.000
260.020;  230.200;  901.000;  636.000
260.162;  -22.700; -146.000; -253.000
260.303; -216.500; -768.000; -687.000
260.445; -184.500; -609.000; -613.000
260.586;   98.200;  392.000;  157.000
260.728;  -97.300; -360.000; -248.000
260.869; -115.800; -350.000; -343.000
261.011;  197.900;  706.000;  537.000
261.152;  -99.300; -479.000; -319.000
261.293; -145.500; -576.000; -595.000
261.435;  -43.800; -219.000; -184.000
261.576;  -79.800; -455.000; -325.000
261.718;  153.000;  420.000;  470.000
261.859; -260.900; -940.000; -949.000
262.000; -208.400; -951.000;-1016.000
262.142;  -30.000;  -52.000;  -60.000
262.283; -199.000; -808.000; -691.000
262.424; -159.100; -666.000; -625.000
262.566; -282.600;-1161.000; -983.000
262.707; -214.200; -840.000; -830.000
262.848; -248.200; -769.000; -726.000
262.990;  -72.100; -362.000; -345.000
263.131;  201.200;  650.000;  681.000
263.272;  -15.700;  -61.000;  -41.000
263.413; -168.900; -589.000; -561.000
263.555; -122.200; -669.000; -143.000
263.696; -156.900; -550.000; -641.000
263.837; -117.500; -449.000; -551.000
263.978;    5.500;   -5.000;  -77.000
264.119;  -85.600; -283.000; -264.000
264.261; -202.400; -847.000; -630.000
264.402;    4.800;   33.000;   40.000
264.543; -126.100; -509.000; -524.000
264.684;  -30.200;   61.000;  -50.000
264.825; -125.900; -816.000; -538.000
264.966;  -11.400;  -84.000;  -67.000
265.107; -197.600; -646.000; -670.000
265.248; -214.900; -825.000; -812.000
265.390;   11.700;  152.000;   -9.000
265.531;  -33.800; -238.000; -107.000
265.672; -149.200; -557.000; -630.000
265.813;  169.100;  563.000;  439.000
265.954; -270.700; -959.000; -940.000
266.095;  -44.000; -372.000; -322.000
266.236; -186.800; -686.000; -548.000
266.377;  -92.400; -243.000; -297.000
266.518; -123.800; -619.000; -547.000
266.659;   77.700;  170.000;  268.000
266.800;   15.600;   83.000;   85.000
266.941; -141.300; -487.000; -478.000
267.082;   55.500;  354.000;   99.000
267.223;  -76.200; -344.000; -273.000
267.364; -223.900; -892.000; -686.000
267.504;  -32.000;    3.000;  135.000
267.645;   48.100;  160.000;   67.000
267.786;  -46.700; -147.000;  -86.000
267.927; -118.900; -473.000; -379.000
268.068;   15.200; -186.000;  -61.000
268.209;  -69.800; -175.000; -413.000
268.350; -118.500; -388.000; -532.000
268.490; -148.300; -648.000; -521.000
268.631;   83.500;  127.000;  225.000
268.772; -197.300; -874.000; -647.000
268.913; -110.900; -328.000; -476.000
269.054;    6.900; -117.000;   12.000
269.194;  -96.100; -418.000; -402.000
269.335; -305.100;-1137.000;-1074.000
269.476;  -37.000;   33.000;  -35.000
269.617;  -49.800; -347.000; -392.000
269.757; -165.200; -713.000; -646.000
269.898; -171.000; -856.000; -613.000
270.039; -142.400; -415.000; -405.000
270.180; -260.200; -952.000; -816.000
270.320;  -44.500; -190.000; -250.000
270.461;  -50.800; -277.000; -249.000
270.602;    2.000; -186.000; -156.000
270.742; -220.100; -868.000; -943.000
270.883; -116.100; -442.000; -390.000
271.023;  -95.100; -358.000; -357.000
271.164; -122.800; -607.000; -528.000
271.305; -203.300; -666.000; -654.000
271.445; -173.500; -722.000; -683.000
271.586; -104.300; -462.000; -283.000
271.726;  -80.200; -397.000; -322.000
271.867;  -90.800; -594.000; -534.000
272.008;  322.100; -473.000; -285.000
272.148;  288.600;  462.000;  468.000
272.289;   46.500; -113.000; -181.000
272.429;   55.400;   19.000;  185.000
272.570; -168.600; -633.000; -737.000
272.710; -156.300; -825.000; -775.000
272.851;  -26.600;  113.000; -130.000
272.991; -331.800;-1173.000;-1077.000
273.131; -105.700; -419.000; -459.000
273.272; -160.000; -683.000; -723.000
273.412;   32.800; -143.000;  -31.000
273.553;  -80.000; -488.000; -507.000
273.693;  302.100;  913.000;  858.000
273.834; -146.200; -894.000; -692.000
273.974; -101.800; -664.000; -615.000
274.114; -156.500; -772.000; -560.000
274.255;  193.600;  414.000;  373.000
274.395;   64.400; -180.000; -125.000
274.535;   91.100;  199.000;  350.000
274.676;   71.100;  225.000;   94.000
274.816;   23.000;  110.000;   34.000
274.956; -150.300; -624.000; -690.000
275.097; -130.300;-1014.000; -922.000
275.237; -198.800; -913.000; -803.000
275.377; -196.800; -778.000; -689.000
275.517; -236.700; -878.000; -937.000
275.658;  -88.900; -590.000; -555.000
275.798;  -73.800; -606.000; -413.000
275.938;   33.500;  215.000;  323.000
276.078; -120.400; -626.000; -395.000
276.218;   46.700;   99.000;  104.000
276.359; -233.800;-1026.000;-1024.000
276.499; -114.700; -605.000; -446.000
276.639;  -35.500; -305.000; -151.000
276.779;  -64.200; -475.000; -357.000
276.919; -177.000; -783.000; -624.000
277.059;  -23.700; -261.000; -212.000
277.199;  -72.000; -357.000; -259.000
277.340;  137.500;  287.000;  175.000
277.480; -208.200; -840.000; -693.000
277.620;   71.300;  192.000;   16.000
277.760; -352.900;-1533.000;-1294.000
277.900;   68.700;  113.000;   33.000
278.040;  103.800;  137.000;  159.000
278.180;  101.900;  270.000;  170.000
278.320;   60.000;   21.000;   56.000
278.460; -118.600; -443.000; -469.000
278.600; -153.600; -708.000; -598.000
278.740;  112.200;  448.000;  224.000
278.880;  -46.400; -768.000; -791.000
279.020;   56.300; -194.000; -144.000
279.160; -167.300; -672.000; -595.000
279.300; -227.200; -926.000; -873.000
279.440; -143.100; -709.000; -622.000
279.579; -106.400;-1014.000; -929.000
279.719;  -84.200; -410.000; -394.000
279.859;  146.500;   -4.000;   41.000
279.999;   72.700; -208.000;  101.000
280.139;  -65.100; -435.000; -387.000
280.279; -114.800; -708.000; -745.000
280.419;  -40.400; -229.000; -147.000
280.559;  -26.100; -259.000; -180.000
280.698; -131.600; -790.000; -639.000
280.838; -158.000; -778.000; -800.000
280.978; -179.400; -846.000; -790.000
281.118; -189.700; -811.000; -704.000
281.257;   42.700;   24.000;    6.000
281.397; -169.700;-1094.000; -960.000
281.537; -124.100; -599.000; -712.000
281.677;   -8.100; -150.000; -101.000
281.816; -178.900; -700.000; -630.000
281.956;  -33.800; -193.000; -257.000
282.096; -108.200; -539.000; -396.000
282.235; -151.100; -672.000; -638.000
282.375;   13.700; -243.000;  -98.000
282.515; -160.000; -715.000; -707.000
282.654;   80.200;   29.000;  106.000
282.794;  141.400;  388.000;  244.000
282.934;  -73.700; -530.000; -491.000
283.073; -219.700;-1030.000; -857.000
283.213;  -55.400; -460.000; -467.000
283.353;  -16.500; -408.000; -349.000
283.492;  -30.200; -264.000; -296.000
283.632;  -30.600; -254.000; -168.000
283.771; -173.500; -859.000; -730.000
283.911;  -56.600; -369.000; -260.000
284.050; -175.000; -794.000; -748.000
284.190; -298.700;-1229.000;-1096.000
284.329; -259.800;-1055.000; -964.000
284.469;  -57.500; -516.000; -591.000
284.608;  -79.900; -559.000; -598.000
284.748; -161.200; -614.000; -570.000
284.887;   19.900;  -87.000;  -20.000
285.027; -196.300; -844.000; -892.000
285.166;  -26.400; -192.000; -249.000
285.306;   95.600; -116.000;  -33.000
285.445;  -37.400; -229.000; -343.000
285.584; -168.000; -630.000; -494.000
285.724;  -43.200; -282.000; -322.000
285.863; -198.100; -857.000; -507.000
286.002;  -81.600; -366.000; -276.000
286.142; -175.100; -715.000; -622.000
286.281; -147.500; -525.000; -493.000
286.420;  -99.600; -554.000; -417.000
286.560;  213.600;  653.000;  623.000
286.699; -235.400; -958.000; -912.000
286.838; -142.100; -590.000; -591.000
286.978; -142.400; -533.000; -537.000
287.117; -267.500;-1085.000; -950.000
287.256;   -9.200; -228.000; -211.000
287.395;  -93.900; -197.000; -378.000
287.535;  -38.300; -370.000; -298.000
287.674; -139.900; -509.000; -484.000
287.813;  157.400;  661.000;  533.000
287.952; -223.300;-1010.000; -871.000
288.091; -233.400;-1049.000; -915.000
288.231;   80.100;   13.000;   15.000
288.370; -327.900;-1217.000;-1200.000
288.509; -150.200; -728.000; -645.000
288.648; -118.000; -770.000; -548.000
288.787;  -52.500; -243.000;  -87.000
288.926;  -79.300; -454.000; -475.000
289.065;  329.500;  859.000;  672.000
289.204;  -34.300; -377.000; -217.000
289.344; -149.700; -791.000; -690.000
289.483;  114.200;  416.000;  304.000
289.622;    6.000; -291.000; -149.000
289.761;    3.100; -309.000; -166.000
289.900; -215.400; -785.000; -626.000
290.039;   24.000;  -12.000;  -95.000
290.178;  -36.400; -274.000; -180.000
290.317; -123.300; -618.000; -479.000
290.456; -113.000; -463.000; -451.000
290.595; -244.800; -961.000; -833.000
290.734; -271.800; -904.000; -891.000
290.873;  -67.100; -456.000; -420.000
291.011; -190.700; -833.000; -843.000
291.150; -148.900; -770.000; -682.000
291.289;   -8.400; -343.000; -110.000
291.428; -155.000; -599.000; -480.000
291.567;  -72.300; -370.000; -442.000
291.706;   54.100;  109.000;  154.000
291.845; -123.900; -597.000; -505.000
291.984; -311.300;-1234.000;-1061.000
292.122;  198.400;  602.000;  582.000
292.261;  138.400;  620.000;  463.000
292.400;   43.100; -144.000;  211.000
292.539; -193.300; -959.000; -813.000
292.678;  -39.400; -325.000; -300.000
292.816; -272.200;-1136.000; -965.000
292.955; -196.300; -844.000; -684.000
293.094;   21.200; -173.000; -337.000
293.233;  -99.800; -556.000; -400.000
293.371;  -23.900; -225.000;  -84.000
293.510; -187.900; -866.000; -780.000
293.649; -214.400; -959.000; -924.000
293.787;  -86.000;-1083.000;-1012.000
293.926;   65.900; -113.000;  -32.000
294.065;  -37.000; -379.000; -290.000
294.203;  176.900;  298.000;  406.000
294.342;  111.400;   74.000;  156.000
294.481;14029.100;51180.000; -836.000
294.619;  -33.900; -425.000; -582.000
294.758; -231.900;-1230.000;-1137.000
294.896;  190.200; -125.000;    5.000
295.035; -211.600;-1040.000;-1006.000
295.174; -222.000;-1082.000; -954.000
295.312;  -20.900; -323.000; -203.000
295.451;   29.300; -307.000; -428.000
295.589;  -27.700; -389.000; -518.000
295.728;   85.100; -292.000; -165.000
295.866;   77.500;  -36.000;  -51.000
296.005; -136.300; -584.000; -341.000
296.143;  -96.000; -558.000; -596.000
296.282; -178.700; -957.000; -881.000
296.420; -125.200; -657.000; -557.000
296.559; -131.400; -892.000; -633.000
296.697;  107.600; -847.000; -665.000
296.835;  183.200;-1141.000;-1002.000
296.974;  158.600;  -23.000;   39.000
297.112;   64.900; -443.000; -504.000
297.251;  -62.500; -815.000; -755.000
297.389;  222.800; -576.000; -438.000
297.527;  142.700; -145.000;  -83.000
297.666;  -43.300; -486.000; -438.000
297.804;  -64.100; -404.000; -264.000
297.942;   32.400; -136.000; -161.000
298.081;   50.500; -183.000;   63.000
298.219;  164.600;  -17.000;  -19.000
298.357;  121.500; -144.000;  -71.000
298.495;   92.800; -810.000; -812.000
298.634;  215.500;  245.000;  219.000
298.772;  184.100; -220.000; -338.000
298.910;  -36.800; -309.000; -182.000
299.048;   45.500; -130.000; -153.000
299.187;  -16.100; -350.000; -250.000
299.325;  108.500;   52.000;  122.000
299.463;  171.500; -389.000; -299.000
299.601;  312.700; -327.000; -271.000
299.739; -186.700; -908.000; -883.000
299.877; -128.700; -791.000; -703.000
300.016; -106.600;-1095.000; -935.000
300.154;  344.000;  -19.000; -161.000
300.292;  189.300; -428.000; -348.000
300.430;  153.300; -408.000; -291.000
300.568; -145.400; -940.000; -874.000
300.706;  -56.900; -366.000; -469.000
300.844; -111.700;-1108.000; -979.000
300.982;  257.600;  246.000;  282.000
301.120; -167.600; -965.000; -866.000
301.258; -107.200; -812.000; -705.000
301.396;  135.100;  104.000;  -41.000
301.534;  210.800; -218.000; -293.000
301.672;   68.900; -664.000; -521.000
301.810;   87.300; -613.000; -545.000
301.948;  345.200;   53.000;  149.000
302.086; 1189.700; -250.000;  -32.000
302.224; 1986.400; -610.000; -585.000
302.362;  130.800; -558.000; -622.000
302.500;  -29.800; -923.000; -893.000
302.638;  298.700;  128.000;  245.000
302.776;   53.800; -352.000; -408.000
302.913;  114.900;  447.000;  236.000
303.051;   72.700;  -86.000;  -23.000
303.189;  194.200;   90.000;  118.000
303.327;    5.000; -341.000; -256.000
303.465; -110.600; -832.000; -588.000
303.603; -127.800; -805.000; -604.000
303.740;  209.100;  417.000;  241.000
303.878;   91.800; -800.000; -759.000
304.016; -179.500; -915.000; -790.000
304.154; -212.900;-1123.000;-1152.000
304.291;   -6.800; -505.000; -554.000
304.429;   43.900;  102.000;   74.000
304.567; -215.100; -908.000; -893.000
304.705;  -25.500; -408.000; -515.000
304.842;  191.900; -616.000; -540.000
304.980;  183.000;  215.000;   35.000
305.118;  168.100; -367.000; -365.000
305.255;  -68.700; -945.000; -927.000
305.393;  156.300;  178.000;  239.000
305.531; -147.500;-1173.000; -956.000
305.668;  -91.000; -663.000; -582.000
305.806;  223.600; -358.000; -439.000
305.943;  200.200; -629.000; -637.000
306.081;  142.400; -378.000; -267.000
306.219; -161.100; -863.000; -748.000
306.356;   38.900;  158.000;   27.000
306.494;  304.600;  981.000;  761.000
306.631;  110.000;  -11.000;  -55.000
306.769;   71.600; -613.000; -485.000
306.906;   68.400; -284.000; -258.000
307.044;  -60.800; -473.000; -488.000
307.181;  -31.400; -410.000; -332.000
307.319;  164.500;  112.000;   87.000
307.456; -293.600;-1191.000;-1153.000
307.594; -176.900; -980.000; -727.000
307.731;   24.700; -371.000; -164.000
307.868;   59.900;  -15.000;   20.000
308.006; -189.300; -961.000; -847.000
308.143;  -89.900; -618.000; -330.000
308.281;  470.600;  -37.000; -254.000
308.418;   54.200; -748.000; -640.000
308.555;  -77.600; -400.000; -250.000
308.693;  -98.600; -577.000; -573.000
308.830; -152.300; -712.000; -657.000
308.967;   29.000; -215.000;  -95.000
309.105;   15.400; -507.000; -396.000
309.242;  131.000; -468.000; -367.000
309.379;  863.300; -577.000; -655.000
309.517;  -28.100; -936.000; -948.000
309.654; -142.100; -910.000; -734.000
309.791;  -93.200; -662.000; -580.000
309.928; -152.200; -977.000; -914.000
310.065;  412.500;  819.000;  697.000
310.203;   50.200; -825.000; -850.000
310.340;   72.200; -465.000; -321.000
310.477;  -60.400; -412.000; -516.000
310.614;  -62.800; -383.000; -473.000
310.751;  -71.200; -427.000; -518.000
310.889;   18.600;    1.000;   11.000
311.026; -266.000;-1161.000; -939.000
311.163;   -8.700; -386.000; -380.000
311.300;  -51.300; -512.000; -479.000
311.437; -115.800; -658.000; -619.000
311.574; -240.100;-1226.000; -985.000
311.711;  -76.100; -595.000; -433.000
311.848;   15.500; -380.000; -388.000
311.985;   96.300;  270.000;   93.000
312.122; -138.400; -932.000; -762.000
312.259; -186.200; -941.000; -994.000
312.396;  -76.500; -508.000; -551.000
312.533; -100.800; -812.000; -790.000
312.670; -185.300;-1070.000; -898.000
312.807;  -32.600; -352.000; -367.000
312.944;  -68.100; -513.000; -611.000
313.081;  -17.700; -150.000; -415.000
313.218; -170.600;-1111.000; -867.000
313.355;   76.100; -531.000; -449.000
313.492;   94.300; -455.000; -292.000
313.629;  358.500;  815.000;  735.000
313.766; -242.600;-1176.000;-1008.000
313.902;   29.500; -186.000;   21.000
314.039;  -17.200; -372.000; -289.000
314.176;  101.000;  286.000;  192.000
314.313;  -74.700; -569.000; -473.000
314.450; -111.500; -788.000; -684.000
314.587;  -52.800; -468.000; -480.000
314.723;   68.300;  -78.000;  130.000
314.860;  147.700;  318.000;  332.000
314.997;  102.900;  223.000;  142.000
315.134;   20.300; -385.000; -368.000
315.270;   -9.600; -480.000; -496.000
315.407; -222.200;-1094.000; -967.000
315.544;  -45.700; -657.000; -538.000
315.681;  -85.500; -681.000; -565.000
315.817;  120.000; -133.000; -176.000
315.954;  115.300; -613.000; -392.000
316.091; -212.100;-1045.000;-1023.000
316.227;    0.400;  -71.000; -179.000
316.364;   75.100;   23.000;    6.000
316.500;  -23.200; -113.000; -300.000
316.637;  -31.000; -181.000; -302.000
316.774;  -98.100; -625.000; -358.000
316.910; -144.500; -598.000; -629.000
317.047;  -72.700; -487.000; -351.000
317.183;  -39.700; -435.000; -566.000
317.320;  -13.000; -367.000; -321.000
317.456; -111.200; -733.000; -805.000
317.593; -131.400; -598.000; -641.000
317.729;   66.900;  168.000;  -67.000
317.866; -357.200;-1434.000;-1285.000
318.002; -123.400; -708.000; -948.000
318.139; -144.400; -883.000; -867.000
318.275; -156.200;-1003.000; -738.000
318.412;  -62.100; -517.000; -336.000
318.548;  -20.500; -751.000; -720.000
318.685; -141.700; -985.000; -888.000
318.821; -154.900; -762.000; -735.000
318.957;   23.400;   34.000;  -23.000
319.094;  129.100;  297.000;  154.000
319.230;  -72.200; -756.000; -742.000
319.367;  296.700; -471.000; -520.000
319.503;  194.100; -538.000; -436.000
319.639; -108.900; -877.000; -793.000
319.775;  -69.000; -750.000; -685.000
319.912;  -65.400; -424.000; -519.000
320.048; -166.100;-1184.000;-1184.000
320.184;  134.500;   59.000;   70.000
320.321;  -79.500; -497.000; -467.000
320.457;  195.200;  475.000;  662.000
320.593;  -66.100; -375.000; -382.000
320.729; -161.600; -732.000; -734.000
320.866;  -77.600; -577.000; -635.000
321.002; -130.700; -759.000; -809.000
321.138;    1.700; -135.000; -211.000
321.274;  148.500; -148.000; -115.000
321.410;  -11.900; -585.000; -353.000
321.546;    3.400;-1011.000; -911.000
321.683;  182.900;  400.000;  185.000
321.819;   95.700;  -48.000; -117.000
321.955; -150.100; -743.000; -722.000
322.091;  -82.100; -585.000; -540.000
322.227;   40.500; -382.000; -202.000
322.363;   27.400; -320.000; -215.000
322.499;  -19.800; -343.000; -331.000
322.635;  382.200;  636.000;  443.000
322.771;  127.100; -139.000;   12.000
322.907;  244.200;  129.000;  327.000
323.043;   18.200; -115.000; -206.000
323.179;  -52.800; -394.000; -363.000
323.315;  174.500; -401.000; -371.000
323.451;  285.800; -328.000; -236.000
323.587;  202.000;  -60.000;  -77.000
323.723;   61.000; -682.000; -601.000
323.859;   36.200; -258.000;  -76.000
323.995;  -17.900; -467.000; -409.000
324.131; -188.500; -967.000; -892.000
324.267;  -29.400; -254.000; -276.000
324.402; -192.600; -960.000; -983.000
324.538;   36.000; -279.000; -104.000
324.674;  113.000;  164.000;   77.000
324.810;  423.100;  226.000;  308.000
324.946;  162.900; -810.000; -658.000
325.082;  -94.300; -568.000; -475.000
325.217;   46.200;  -62.000;   16.000
325.353; -174.400; -764.000; -659.000
325.489; -120.900; -540.000; -506.000
325.625; -108.400; -579.000; -525.000
325.760;  116.500;  517.000;  376.000
325.896;  -37.300; -515.000; -702.000
326.032;  -49.400; -403.000; -352.000
326.168; -105.000; -462.000; -369.000
326.303;  -55.900; -352.000; -461.000
326.439;   -0.300; -336.000; -276.000
326.575;   59.200; -190.000;  -29.000
326.710;   38.200; -156.000;  -30.000
326.846;   57.600;  146.000;  103.000
326.982; -131.800; -530.000; -548.000
327.117;  -86.500; -481.000; -442.000
327.253; -169.500; -745.000; -742.000
327.388; -213.300;-1137.000;-1153.000
327.524;  -13.200; -811.000; -578.000
327.659;   31.600;  -58.000;  -22.000
327.795;   23.600;   69.000;   45.000
327.931; -116.700; -723.000; -499.000
328.066;   19.600; -417.000; -276.000
328.202;   97.500;   12.000; -129.000
328.337;  271.200;  957.000;  713.000
328.473;   59.000;  -12.000;  -74.000
328.608;   17.500; -256.000; -267.000
328.743; -110.300; -799.000; -664.000
328.879;   78.100;  214.000;  114.000
329.014;  -72.800; -102.000; -122.000
329.150; -143.800; -358.000; -483.000
329.285;  -81.000; -465.000; -466.000
329.421;  -57.400; -548.000; -246.000
329.556;   47.200;  -36.000;   85.000
329.691; -126.000; -633.000; -615.000
329.827; -115.900; -626.000; -480.000
329.962;  -35.500;  131.000; -301.000
330.097; -123.100; -673.000; -585.000
330.233;  -64.800; -410.000; -223.000
330.368; -213.700; -839.000; -628.000
330.503;   29.000;    3.000;   98.000
330.638;  119.100;  -93.000; -125.000
330.774;  -45.000; -609.000; -530.000
330.909;   -1.300; -434.000; -244.000
331.044; -177.700; -714.000; -708.000
331.179; -290.500;-1217.000;-1109.000
331.315;   92.200;   77.000;   20.000
331.450;   94.800;  157.000;  285.000
331.585; -137.300; -805.000; -706.000
331.720; -118.300; -510.000; -460.000
331.855;   27.400;  -35.000; -102.000
331.990;  365.300;   62.000;  138.000
332.126;  198.400; -110.000;   71.000
332.261;   -1.700; -379.000; -265.000
332.396;   24.500; -135.000; -242.000
332.531; -181.400;-1074.000;-1031.000
332.666;   15.700; -519.000; -363.000
332.801; -167.300; -726.000; -807.000
332.936;    4.800; -192.000; -122.000
333.071; -227.700; -870.000; -817.000
333.206;  101.800;  307.000;  379.000
333.341;  143.600;  344.000;  418.000
333.476; -127.200; -627.000; -623.000
333.611;   -8.900; -251.000; -173.000
333.746;  -26.200; -381.000; -464.000
333.881; -129.500; -973.000; -935.000
334.016; -183.100; -936.000; -917.000
334.151; -177.300; -746.000; -702.000
334.286;   97.600;  152.000;  186.000
334.421;   55.700; -125.000; -178.000
334.556;  -91.700; -611.000; -567.000
334.690;  -99.900; -631.000; -577.000
334.825;  183.700;  381.000;   83.000
334.960;  -17.200; -285.000; -413.000
335.095;   56.000;  135.000;  -91.000
335.230; -130.100; -722.000; -738.000
335.365; -195.700;-1084.000; -990.000
335.499; -195.400;-1108.000;-1037.000
335.634;  125.700;    9.000;  534.000
335.769; -126.200; -755.000; -720.000
335.904;  -33.300; -603.000; -561.000
336.038;  -15.400; -735.000; -657.000
336.173; -171.400;-1206.000;-1194.000
336.308;   79.600; -116.000; -189.000
336.443;    5.000; -544.000; -634.000
336.577;  -75.700; -936.000; -787.000
336.712;  198.500;   -4.000;  -12.000
336.847;    1.900; -724.000; -607.000
336.981;  233.500; -272.000; -208.000
337.116;  635.900;  615.000;  501.000
337.250;  403.200; -434.000; -421.000
337.385;  317.000; -297.000; -208.000
337.520;   46.100; -632.000; -603.000
337.654;  -38.100; -215.000; -126.000
337.789; -215.100; -989.000; -933.000
337.923;    8.900; -104.000; -205.000
338.058;  -99.200; -673.000; -738.000
338.192;    1.200; -611.000; -488.000
338.327;   87.200;  -18.000; -155.000
338.461;  -61.600; -299.000; -469.000
338.596; -131.700; -780.000; -638.000
338.730; -156.900; -767.000; -803.000
338.865;  151.600;  -46.000; -140.000
338.999; -126.100; -846.000; -702.000
339.134;  -51.100; -634.000; -536.000
339.268;   28.100; -741.000; -603.000
339.403;  502.500; -740.000; -775.000
339.537;   67.500; -894.000; -820.000
339.671; -193.400; -829.000; -813.000
339.806; -101.900; -556.000; -512.000
339.940;   59.900; -261.000; -235.000
340.074; -110.200; -685.000; -510.000
340.209;  -58.600; -351.000; -230.000
340.343; -124.100; -517.000; -573.000
340.477;  369.700;  998.000; 1036.000
340.612; -124.500;-1033.000; -900.000
340.746;  182.200; -199.000; -243.000
340.880;  -58.800; -924.000; -785.000
341.014;   26.000;  -45.000; -154.000
341.149; -178.900; -756.000; -718.000
341.283; -167.400; -839.000; -754.000
341.417;  -93.200;-1124.000; -938.000
341.551;  380.000; -768.000; -708.000
341.685;   11.700; -633.000; -611.000
341.820;  -50.100; -562.000; -493.000
341.954;  -28.400; -218.000; -349.000
342.088; -248.500;-1102.000;-1019.000
342.222;  144.500;  565.000;  618.000
342.356;  -70.500; -395.000; -335.000
342.490; -123.400; -880.000; -841.000
342.624;  -38.400; -339.000; -242.000
342.758;   86.400; -364.000; -312.000
342.892;  -98.300; -710.000; -585.000
343.026;  -16.000;  -58.000; -116.000
343.160;  -51.600; -426.000; -376.000
343.294; -100.000; -474.000; -337.000
343.428;   32.600; -488.000; -448.000
343.562;   31.500; -172.000;  -23.000
343.696;   15.600; -385.000; -314.000
343.830;   37.700; -362.000; -356.000
343.964;   99.400; -231.000; -168.000
344.098; 1977.900;  199.000;   70.000
344.232; 1707.300; -266.000; -127.000
344.366;  203.600; -567.000; -453.000
344.500;  188.200; -665.000; -744.000
344.634;  190.900; -324.000; -164.000
344.768;   33.800; -531.000; -341.000
344.902;  145.600;  278.000;  256.000
345.035; -107.900; -556.000; -496.000
345.169; -229.200; -933.000; -656.000
345.303;   20.000; -308.000; -482.000
345.437; -104.700; -826.000; -717.000
345.571; -137.600; -675.000; -594.000
345.704;  -85.100; -309.000; -532.000
345.838;   14.400; -331.000; -284.000
345.972;   -3.200; -543.000; -495.000
346.106;  292.100; -179.000; -190.000
346.239;  786.700; -312.000; -243.000
346.373;   49.500; -343.000; -302.000
346.507; -212.500; -950.000; -962.000
346.640;  378.700;  -30.000;   13.000
346.774;  -41.300; -650.000; -797.000
346.908;   23.400; -138.000;  -11.000
347.041; -145.100; -646.000; -593.000
347.175;   75.300;  259.000;   27.000
347.309;  -81.800; -698.000; -628.000
347.442; -136.600; -883.000; -732.000
347.576;  699.600;  670.000;  668.000
347.709;  533.300; -123.000;  -52.000
347.843; -114.400; -933.000; -825.000
347.976;  120.900;  235.000;  294.000
348.110; -311.000;-1268.000;-1186.000
348.243; -133.300; -679.000; -772.000
348.377;   88.600;  -26.000;   60.000
348.510;  183.300;  403.000;  540.000
348.644;  -12.500;  -37.000; -159.000
348.777;   62.000;  180.000;  191.000
348.911;  -20.200; -142.000; -112.000
349.044;  390.300;  471.000;  448.000
349.178;  361.700;-1069.000;-1006.000
349.311;  236.600;  141.000;  255.000
349.444;  -30.400; -927.000; -813.000
349.578;   23.900; -347.000; -200.000
349.711; -120.200; -959.000; -862.000
349.845;   67.800; -661.000; -591.000
349.978; -228.800;-1224.000;-1137.000
350.111; -125.500; -546.000; -612.000
350.244;  -86.000; -596.000; -700.000
350.378;   50.400; -392.000; -393.000
350.511;  -60.500; -393.000; -426.000
350.644; -174.600; -808.000; -806.000
350.778;   63.200;  168.000;  104.000
350.911;   99.000;  134.000;  140.000
351.044; -113.300; -685.000; -615.000
351.177;   31.400; -321.000; -281.000
351.310;   36.900;    3.000; -131.000
351.444;  -78.400; -888.000; -788.000
351.577;  344.400;  140.000;   90.000
351.710;  255.900;  593.000;  417.000
351.843;  -10.500; -165.000;  -77.000
351.976;   46.700;  149.000;  -79.000
352.109;  -96.100; -621.000; -612.000
352.242;    3.100; -464.000; -419.000
352.376;  -24.900; -580.000; -636.000
352.509;  510.700; -437.000; -356.000
352.642;  126.400; -654.000; -604.000
352.775;  193.300; -141.000;  -98.000
352.908; -166.900; -933.000; -904.000
353.041; -163.800; -814.000; -824.000
353.174;  -37.600; -551.000; -424.000
353.307; -140.500; -753.000; -764.000
353.440;  210.800;  541.000;  453.000
353.573; -203.100; -957.000;-1008.000
353.706;  -66.200; -384.000; -558.000
353.839;   34.200; -264.000; -220.000
353.971; -128.300; -657.000; -512.000
354.104; -159.300; -896.000; -835.000
354.237;  -21.500; -627.000; -662.000
354.370; -118.600; -846.000; -879.000
354.503; -300.000;-1231.000;-1308.000
354.636;    4.900; -529.000; -348.000
354.769; -181.500; -937.000; -860.000
354.902;   62.400; -230.000; -139.000
355.034;   20.800; -164.000; -220.000
355.167;   26.300; -262.000; -162.000
355.300; -149.000;-1061.000; -880.000
355.433; 1394.300;  -71.000;  -14.000
355.565; 1983.500; -402.000; -384.000
355.698;  521.900; -356.000; -296.000
355.831;   16.400; -882.000; -801.000
355.964;  270.700; -285.000; -170.000
356.096;  -61.300; -856.000; -843.000
356.229;   90.300; -523.000; -530.000
356.362;  420.200; -373.000; -266.000
356.494;  812.600; -229.000; -162.000
356.627; 1066.900;  269.000;  377.000
356.760; 1049.700;  120.000;   53.000
356.892; 1204.600; -286.000; -601.000
357.025; 1429.000;  403.000;  389.000
357.157; 1366.100; -167.000; -179.000
357.290;  688.600; -856.000; -713.000
357.423;  293.500; -667.000; -556.000
357.555;  292.900; -217.000; -228.000
357.688;  289.300; -483.000; -364.000
357.820;  822.700; -870.000; -877.000
357.953; 6585.900; -563.000; -589.000
358.085; 1637.100; -632.000; -612.000
358.218; 3095.200;-1131.000; -932.000
358.350;  576.400;  -58.000;  312.000
358.483; -166.600;-1300.000;-1187.000
358.615;   54.400;-1182.000;-1078.000
358.747;   -4.100;-1187.000;-1058.000
358.880;  149.100; -810.000; -744.000
359.012;   72.000; -376.000; -202.000
359.145;  -23.800; -480.000; -511.000
359.277;  137.900; -962.000; -913.000
359.409; 5779.200;  536.000;  231.000
359.542; 1556.600; -738.000; -688.000
359.674;  184.200;   46.000;   13.000
359.806;  -85.800; -565.000; -438.000
359.939;  -44.800; -617.000; -516.000
360.071;  -15.000; -583.000; -579.000
360.203;   -4.500; -411.000; -364.000
360.335;  159.700;  164.000;  -16.000
360.468;  409.100; -249.000; -307.000
360.600; 4329.500; -547.000; -454.000
360.732; 3430.700; -546.000; -423.000
360.864;  471.400;-1216.000;-1044.000
360.996;  746.100; -516.000; -554.000
361.129;  182.300; -389.000; -598.000
361.261;   69.800;  110.000; -113.000
361.393;    9.300; -252.000; -214.000
361.525;  107.900;   94.000;  244.000
361.657;   -6.900; -821.000; -703.000
361.789;  116.200; -139.000; -155.000
361.921;  679.200; -642.000; -593.000
362.053;  669.200;  524.000;  541.000
362.185;  188.600;  288.000;   72.000
362.318;  -60.500; -709.000; -705.000
362.450;  406.000;  294.000;  444.000
362.582;  527.800; -913.000; -870.000
362.714;   26.800; -353.000; -332.000
362.846;  -84.700; -606.000; -490.000
362.978; -221.800; -941.000; -811.000
363.109;  200.000; -161.000; -260.000
363.241;  990.700; -739.000; -749.000
363.373;  614.800; -649.000; -564.000
363.505;  877.800; -186.000;  -91.000
363.637;  207.300; -787.000; -601.000
363.769; -185.500;-1067.000;-1080.000
363.901;  -67.700; -596.000; -654.000
364.033; -165.400;-1103.000;-1062.000
364.165;   64.700; -283.000; -283.000
364.296;  155.400; -316.000; -177.000
364.428;   18.300;-1344.000;-1220.000
364.560;  -95.300; -679.000; -661.000
364.692;  -78.800; -738.000; -835.000
364.824;  789.900; -588.000; -456.000
364.955;  737.000; -402.000; -564.000
365.087;  907.000;-1097.000; -852.000
365.219;   -2.400; -686.000; -816.000
365.351;  -90.800; -526.000; -572.000
365.482;  168.100;  300.000;  240.000
365.614;  -25.500; -402.000; -314.000
365.746; -128.000; -729.000; -752.000
365.877; -137.200; -706.000; -672.000
366.009;  366.300;  -35.000;  -62.000
366.141; -172.000;-1249.000;-1134.000
366.272; -173.100; -803.000; -719.000
366.404; -140.800;-1005.000; -874.000
366.535;   15.300; -139.000;  -12.000
366.667; -106.900; -644.000; -649.000
366.799;  172.000;  353.000;  203.000
366.930; -164.300; -862.000; -996.000
367.062;  246.700; -639.000; -613.000
367.193;  133.300; -872.000; -842.000
367.325;  -91.200; -580.000; -684.000
367.456;  318.000; -246.000;   31.000
367.588;  257.100; -371.000; -318.000
367.719;   52.600;  -44.000;  -45.000
367.851;   13.400; -222.000; -241.000
367.982;  -20.400; -875.000; -732.000
368.113;  301.200; -475.000; -358.000
368.245; -149.000; -960.000; -841.000
368.376;   55.800; -254.000; -302.000
368.508;   50.700; -188.000; -263.000
368.639; -250.100;-1166.000;-1034.000
368.770;   24.100; -670.000; -589.000
368.902;  -85.500; -836.000; -926.000
369.033; -127.800; -906.000; -855.000
369.164;  -77.600; -720.000; -653.000
369.296; -167.900; -452.000; -601.000
369.427;   82.400; -209.000; -144.000
369.558;   11.400; -593.000; -377.000
369.689; -104.700; -721.000; -569.000
369.821; -206.000; -951.000; -845.000
369.952;   44.500;   42.000; -108.000
370.083;  -31.100; -229.000; -108.000
370.214; -119.600; -735.000; -650.000
370.345;   97.700;   65.000;   81.000
370.477; -106.900; -810.000; -790.000
370.608;  599.800; -328.000; -264.000
370.739;  -69.500;-1233.000;-1292.000
370.870;    9.900;-1102.000; -923.000
371.001;  256.500; -378.000; -467.000
371.132;  -84.800; -754.000; -735.000
371.263;   31.500;  -42.000; -148.000
371.394; -182.700; -841.000; -748.000
371.525;  141.800;  345.000;  225.000
371.657; -104.900; -808.000; -670.000
371.788;  210.100;  103.000;  199.000
371.919;  467.900; -384.000; -304.000
372.050; 7736.200;  -91.000; -156.000
372.181; 2215.200; -188.000; -294.000
372.311;  849.300;   42.000; -127.000
372.442;  176.400; -457.000; -451.000
372.573;   36.100; -444.000; -340.000
372.704; -168.600;-1008.000; -980.000
372.835;  251.600; -228.000; -289.000
372.966;  -36.200; -646.000; -554.000
373.097;  -69.700; -575.000; -711.000
373.228;   29.400; -717.000; -542.000
373.359;  401.700; -824.000; -536.000
373.490; 2190.400; -881.000; -727.000
373.620; 2539.100;-1001.000; -803.000
373.751; 4116.400; -332.000; -396.000
373.882; 1786.600; -663.000; -733.000
374.013;  258.700; -449.000; -262.000
374.143;  -10.300; -581.000; -659.000
374.274; -150.200; -987.000; -908.000
374.405;  441.300; -388.000; -276.000
374.536; 1102.400; -526.000; -387.000
374.666; 2628.700; -759.000; -807.000
374.797;  580.300; -817.000; -868.000
374.928; 2048.000; -710.000; -560.000
375.058; 2064.500; -535.000; -500.000
375.189;  242.500;  -59.000;  -93.000
375.320; -143.000; -928.000;-1034.000
375.450;   -7.000; -625.000; -616.000
375.581;  -51.500; -526.000; -436.000
375.712;   23.100; -574.000; -250.000
375.842;  805.500; -438.000; -415.000
375.973;  530.400; -554.000; -513.000
376.103;   91.200; -665.000; -648.000
376.234; -103.200; -531.000; -552.000
376.364;   10.100; -944.000; -867.000
376.495;  736.800;  925.000;  529.000
376.625;  142.100; -472.000; -485.000
376.756;  223.300; -709.000; -678.000
376.886;  -65.200;-1178.000;-1026.000
377.017;   -9.600;-1048.000;-1061.000
377.147;  402.400; -786.000; -782.000
377.278;  165.300;  174.000;  228.000
377.408; -203.500; -801.000; -815.000
377.538; -129.400; -707.000; -693.000
377.669; -103.800; -537.000; -613.000
377.799;  -71.900; -645.000; -635.000
377.929;  -19.200; -610.000; -428.000
378.060; -188.900; -781.000; -847.000
378.190;  -62.000; -726.000; -531.000
378.320;  -25.200; -401.000; -406.000
378.451;   58.000; -131.000;  -22.000
378.581;   90.400;  -67.000; -110.000
378.711;  455.500; 1035.000;  866.000
378.841;   32.800; -533.000; -675.000
378.972;  -55.100; -871.000; -751.000
379.102;   69.200; -652.000; -579.000
379.232;   62.100; -126.000;  -73.000
379.362; -148.100;-1001.000; -885.000
379.492;  130.300; -373.000; -424.000
379.623;  302.700;    0.000;  111.000
379.753;  -98.800;-1107.000; -974.000
379.883;  471.000;   59.000;  156.000
380.013;   66.700;-1081.000;-1017.000
380.143; -143.800;-1097.000;-1056.000
380.273; -108.700; -985.000; -861.000
380.403;   60.300; -344.000; -257.000
380.533;    8.900; -651.000; -664.000
380.663;  233.300;  173.000;  128.000
380.793;  -91.200;-1027.000;-1074.000
380.923;   54.400; -103.000;  -34.000
381.053;  -99.300; -613.000; -623.000
381.183;   14.500; -106.000; -248.000
381.313;  181.700; -656.000; -470.000
381.443;  129.500; -692.000; -473.000
381.573;  588.900; -402.000; -409.000
381.703;  785.100;-1249.000;-1095.000
381.833; -124.900;-1454.000;-1336.000
381.963;  285.600; -134.000;  -87.000
382.093; 2897.700; -925.000; -909.000
382.223;  844.100; -713.000; -602.000
382.353;   58.100; -801.000; -608.000
382.482;  952.100;-1091.000; -964.000
382.612; 1677.300; -872.000; -644.000
382.742;  900.800; -695.000; -622.000
382.872;  733.000; -565.000; -551.000
383.002;  244.300;  347.000; -132.000
383.131;   69.300; -226.000; -160.000
383.261;  -13.900; -706.000; -768.000
383.391;  500.500; -552.000; -377.000
383.521; 3855.700;  451.000;  263.000
383.650;  702.900; -947.000; -904.000
383.780;  -19.400; -783.000; -656.000
383.910;  306.400;  880.000;  802.000
384.039;  140.800; -794.000; -656.000
384.169;  578.700;-1205.000;-1017.000
384.299;   50.500; -650.000; -662.000
384.428;  -72.600; -764.000; -680.000
384.558;   -0.900; -308.000; -275.000
384.687;   68.800; -414.000; -334.000
384.817;  164.400;   75.000;   -2.000
384.947;  200.800; -234.000; -141.000
385.076;  771.100;  982.000;  912.000
385.206;  369.300;  369.000;  480.000
385.335;   68.500; -549.000; -417.000
385.465;  -14.800; -655.000; -663.000
385.594;  415.200;  -53.000;  -44.000
385.724; 1128.500; -868.000; -838.000
385.853;  391.100; -296.000; -270.000
385.982; 3221.900; -743.000; -787.000
386.112; 4636.800;-1052.000; -871.000
386.241;  451.400; -307.000; -312.000
386.371;  158.300; -174.000;  -87.000
386.500;   93.400; -825.000; -789.000
386.629;  102.200; -874.000; -817.000
386.759;  272.300;  -43.000;   68.000
386.888;  189.000; -170.000; -250.000
387.017;   -1.900; -648.000; -620.000
387.147;  -40.600; -771.000; -798.000
387.276;  139.000; -410.000; -397.000
387.405;  130.100; -398.000; -342.000
387.535;   28.300; -452.000; -361.000
387.664;  -78.700; -692.000; -620.000
387.793;  299.700; -198.000; -113.000
387.922; 1347.600;  255.000;  200.000
388.052;  206.500; -576.000; -423.000
388.181;  241.800; -342.000; -472.000
388.310;  247.900; -889.000; -710.000
388.439;   61.600; -749.000; -742.000
388.568;  513.000;  365.000;  244.000
388.697; 2481.800; -756.000; -653.000
388.826;  532.900; -768.000; -666.000
388.956;  209.400; -285.000; -307.000
389.085;   97.100; -347.000; -287.000
389.214; -150.700; -842.000; -872.000
389.343;   -3.800; -645.000; -413.000
389.472;  662.100;  126.000;  149.000
389.601;  862.200;   91.000;    0.000
389.730;   62.700; -568.000; -687.000
389.859;  268.500;  226.000;   46.000
389.988;  525.200; -423.000; -408.000
390.117;  347.200; -168.000; -146.000
390.246;  112.900; -331.000; -320.000
390.375;  347.300; -673.000; -626.000
390.504;  -24.000; -703.000; -621.000
390.633;  -70.400; -672.000; -726.000
390.761;  -48.400; -732.000; -645.000
390.890;  193.600;   -4.000; -130.000
391.019;   28.200; -421.000; -441.000
391.148; -174.900; -826.000; -855.000
391.277;  -53.600; -576.000; -493.000
391.406;  -16.000; -821.000; -805.000
391.534;  134.200;  574.000; -301.000
391.663;  -22.900; -583.000; -645.000
391.792;  -93.900; -673.000; -701.000
391.921;  398.900;   -3.000;   15.000
392.050;  605.500; -287.000; -228.000
392.178;   54.600;-1206.000;-1061.000
392.307;  445.100; -758.000; -712.000
392.436;  247.900; -427.000; -641.000
392.564;   86.200;  166.000;   -6.000
392.693;  -88.200; -860.000; -682.000
392.822;  559.500; -529.000; -534.000
392.950;  323.700; -880.000; -714.000
393.079;  782.700; -188.000; -328.000
393.208;  117.500; -488.000; -511.000
393.336;   70.700; -170.000; -145.000
393.465;  -11.300; -317.000; -199.000
393.593;   73.400;   62.000;   79.000
393.722; -220.400;-1121.000; -916.000
393.850;   20.100; -188.000;  -61.000
393.979; -233.500; -926.000; -805.000
394.107;  -56.300; -517.000; -537.000
394.236;   37.600; -570.000; -507.000
394.364;  575.400;  383.000;  206.000
394.493;  926.500; -911.000; -767.000
394.621;   -2.600; -955.000; -916.000
394.750; 1028.700; -873.000; -923.000
394.878; 4080.700; -247.000; -149.000
395.007; 5202.100; -721.000; -807.000
395.135;  384.500; -790.000; -721.000
395.263; -129.400;-1038.000;-1040.000
395.392;  100.100;  -25.000; -107.000
395.520; -105.100; -818.000; -679.000
395.648; -115.500; -865.000; -915.000
395.777;   74.300; -366.000; -405.000
395.905;    5.800; -449.000; -564.000
396.033;  114.200;  217.000;  172.000
396.162; 1544.100; -399.000; -453.000
396.290; 1319.000;  -17.000;   -2.000
396.418;  304.000; -555.000; -514.000
396.546;  -71.300; -571.000; -466.000
396.674; -154.700; -850.000; -878.000
396.803;  135.500;  -72.000;  -23.000
396.931;  312.200; -179.000; -199.000
397.059;  223.700;-1026.000; -989.000
397.187; -140.800;-1026.000; -975.000
397.315; -187.400; -884.000; -649.000
397.443; -124.100; -592.000; -443.000
397.572; -102.300; -578.000; -424.000
397.700;   90.300; -607.000; -614.000
397.828;  169.700;  120.000;  -90.000
397.956;  -40.500; -508.000; -478.000
398.084; -131.100; -767.000; -626.000
398.212;  166.700;  137.000;  124.000
398.340;  128.000;  -56.000;  159.000
398.468;  152.000; -390.000; -169.000
398.596; -200.000; -993.000; -953.000
398.724; -178.200; -762.000; -767.000
398.852; -223.100;-1024.000; -976.000
398.980;  -75.100; -560.000; -560.000
399.108;   -9.000; -982.000; -735.000
399.236;  159.500;   13.000;    8.000
399.363;   92.800;  222.000;  196.000
399.491;  -40.600; -404.000; -398.000
399.619; -177.500; -829.000; -800.000
399.747; -150.400; -859.000; -771.000
399.875;  256.000;  220.000;  234.000
400.003;  -46.200; -359.000; -284.000
400.130;  -99.600; -421.000; -341.000
400.258;    7.300;  -83.000;   38.000
400.386;  -33.900; -352.000; -168.000
400.514;   26.200; -526.000; -587.000
400.641;  -47.400; -928.000; -802.000
400.769; -242.300; -979.000; -888.000
400.897;  -65.000; -838.000; -793.000
401.025;  103.900; -166.000; -152.000
401.152;   73.900;  220.000;   38.000
401.280; -105.200; -430.000; -429.000
401.408; -155.300; -712.000; -576.000
401.535; -135.100; -735.000; -758.000
401.663; -310.100;-1134.000;-1054.000
401.790; -121.000; -514.000; -525.000
401.918;  152.400;  436.000;  405.000
402.046;   17.500;  134.000;  122.000
402.173;   10.500;  -18.000;    7.000
402.301;  -83.100; -519.000; -397.000
402.428;  135.400;  528.000;  383.000
402.556; -210.100;-1188.000; -913.000
402.683;   20.800;  -20.000;   -1.000
402.811;   42.600;  -37.000; -206.000
402.938;   52.800;   20.000;   27.000
403.066;  472.200; -574.000; -558.000
403.193;  743.100;  299.000;  239.000
403.321;  616.500; -396.000; -574.000
403.448;  724.100;   83.000;   27.000
403.575;  345.700;  -90.000;  -46.000
403.703; -113.800; -732.000; -557.000
403.830;  -62.200; -531.000; -496.000
403.957; -197.400;-1117.000;-1023.000
404.085;   89.100;  -61.000; -172.000
404.212;  271.000;  -50.000;   63.000
404.339;  409.100; -566.000; -306.000
404.467; 7836.500; -612.000; -524.000
404.594; 5677.000; -287.000; -227.000
404.721; 1606.500; -869.000; -764.000
404.848;  177.500; -113.000; -202.000
404.976; -133.300; -856.000; -783.000
405.103;   26.200;  -14.000;  -82.000
405.230;  103.300;  190.000;  226.000
405.357;  130.300;  117.000;   44.000
405.484;  418.500;  -49.000;    5.000
405.612;   51.900; -548.000; -563.000
405.739;  -62.300; -488.000; -243.000
405.866;  221.900;  669.000;  385.000
405.993;  -23.700; -398.000; -102.000
406.120; -209.800; -801.000; -887.000
406.247;   10.100; -323.000; -342.000
406.374; 1149.900;  540.000;  629.000
406.501;  383.900; -632.000; -702.000
406.628; -113.600; -621.000; -589.000
406.755;  -90.900; -803.000; -620.000
406.882;    2.400; -228.000; -277.000
407.009; -141.600; -719.000; -628.000
407.136;  238.600; -480.000; -401.000
407.263;  485.000; -939.000; -829.000
407.390;  -86.900; -692.000; -614.000
407.517; -213.400;-1139.000;-1187.000
407.644;  -21.300; -332.000; -256.000
407.771;  -53.700; -249.000; -287.000
407.898;   96.800;  168.000;  328.000
408.025;  -37.400; -421.000; -313.000
408.151;   73.300;   82.000;  153.000
408.278;  -47.100; -267.000; -216.000
408.405; -154.100; -931.000; -899.000
408.532;  -72.800; -549.000; -542.000
408.659; -180.900; -677.000; -648.000
408.785; -341.200;-1298.000;-1170.000
408.912;  -49.200; -412.000; -296.000
409.039; -133.600; -610.000; -686.000
409.166; -143.300; -591.000; -555.000
409.292; -131.300; -571.000; -534.000
409.419; -213.600; -665.000; -649.000
409.546;  -74.000; -431.000; -192.000
409.672; -171.600; -713.000; -545.000
409.799;   27.000;  -36.000;   34.000
409.926;  -14.600; -180.000; -179.000
410.052; -271.400;-1127.000;-1091.000
410.179;  -13.000; -368.000; -392.000
410.305;  -97.000; -375.000; -493.000
410.432;   -4.200; -220.000; -333.000
410.558;  -91.400; -305.000; -380.000
410.685; -181.300; -688.000; -431.000
410.812;  -83.500; -409.000; -588.000
410.938; -215.300; -964.000; -808.000
411.065; -115.300; -671.000; -645.000
411.191;   20.000; -189.000; -174.000
411.317; -180.300; -823.000; -742.000
411.444;  -71.500; -317.000; -246.000
411.570;  -68.900; -339.000; -294.000
411.697; -173.500; -758.000; -752.000
411.823; -247.500; -989.000; -999.000
411.949;   20.200;  -56.000;   17.000
412.076; -153.500; -539.000; -519.000
412.202; -190.900; -758.000; -757.000
412.329; -209.700; -798.000; -752.000
412.455; -151.200; -821.000; -657.000
412.581;    5.000;  -15.000;  172.000
412.707;  -47.300; -540.000; -457.000
412.834;  147.200;  156.000;  219.000
412.960; -125.500; -785.000; -784.000
413.086; -168.200; -743.000; -701.000
413.212;  458.900;  604.000;  578.000
413.339;  -37.000; -685.000; -701.000
413.465;   94.800; -364.000; -310.000
413.591; -128.300; -757.000; -474.000
413.717;  -85.400; -358.000; -366.000
413.843; -223.400; -839.000; -861.000
413.969;  -65.400;  -47.000; -292.000
414.096; -107.400; -679.000; -679.000
414.222;   40.500;  -33.000;   85.000
414.348;   68.500; -652.000; -385.000
414.474;  317.900;   38.000;  -52.000
414.600;   53.600; -126.000; -144.000
414.726;   19.800;  -96.000;  -55.000
414.852;  -54.800; -365.000; -342.000
414.978;  139.100;  104.000;  -18.000
415.104;  146.300;   38.000;   80.000
415.230;   97.400; -329.000; -330.000
415.356;  147.500; -409.000; -514.000
415.482;  392.900;   13.000;  -35.000
415.608;  437.600; -247.000; -323.000
415.734; 1615.600;   67.000;   38.000
415.860;31166.300; -875.000; -767.000
415.986;20529.600; -685.000; -607.000
416.111; 1641.300; -798.000; -652.000
416.237;  368.500; -424.000; -571.000
416.363; 1670.400; -765.000; -733.000
416.489; 5546.100; -324.000; -251.000
416.615;  558.000; -707.000; -742.000
416.741;  -29.600; -677.000; -784.000
416.866; -121.400; -673.000; -736.000
416.992; -203.800; -801.000; -818.000
417.118;   -3.700;  -41.000;  -80.000
417.244;  -51.800; -798.000; -531.000
417.369; -101.900; -801.000; -612.000
417.495;   50.400; -325.000; -254.000
417.621; -101.300;-1015.000; -803.000
417.746;   47.000; -579.000; -572.000
417.872;  111.100; -254.000; -144.000
417.998;  120.900; -515.000; -530.000
418.123; 1546.200;-1073.000; -845.000
418.249; 7233.300; -512.000; -601.000
418.374;  851.200; -916.000; -824.000
418.500;  155.200; -383.000; -482.000
418.626;  235.200;   70.000;  -59.000
418.751;  207.300; -549.000; -448.000
418.877;  274.700; -637.000; -643.000
419.002; 2741.300; -688.000; -560.000
419.128;17167.400; -930.000; -721.000
419.253; 3746.900; -967.000; -837.000
419.379;  521.300; -391.000; -338.000
419.504;  602.700;  325.000;  415.000
419.629;  738.900; -393.000; -212.000
419.755; 4811.500; -317.000; -254.000
419.880;25904.900;  -98.000;   67.000
420.006;16303.500; -280.000; -221.000
420.131;41512.900; -662.000; -775.000
420.256; 5498.000; -315.000; -316.000
420.382;  753.700; -665.000; -687.000
420.507;   75.200; -649.000; -778.000
420.632;  413.700; -337.000; -339.000
420.758;  700.900; -251.000; -425.000
420.883;  -84.600; -876.000; -672.000
421.008; -155.300; -775.000; -619.000
421.133;  -72.700; -509.000; -467.000
421.259;   15.100; -325.000; -259.000
421.384; -138.700; -834.000; -693.000
421.509;   35.400;-1052.000; -862.000
421.634; 3205.300; -936.000; -820.000
421.759; 1273.800; -359.000; -327.000
421.885;   13.100; -717.000; -656.000
422.010;  -65.300; -673.000; -542.000
422.135; -239.200; -695.000; -727.000
422.260;  155.400;  340.000;  280.000
422.385;  -12.400;   12.000;  -98.000
422.510;   69.300;  151.000;  -26.000
422.635;  117.800;  -87.000;  -43.000
422.760;  222.500; -766.000; -791.000
422.885;  184.200;  -57.000;  -80.000
423.010;    8.600; -112.000; -169.000
423.135; -112.000; -481.000; -561.000
423.260;   59.000; -150.000; -245.000
423.385;  232.700;  476.000;  222.000
423.510;  153.100;   71.000;  -22.000
423.635;  238.000;  133.000;   45.000
423.760;  167.100;  383.000;  328.000
423.885;  193.600;  336.000;  391.000
424.010;   71.600;  -68.000;  -13.000
424.135;   40.800;    5.000;  -33.000
424.259; -124.000; -654.000; -457.000
424.384;  -12.200; -279.000; -272.000
424.509;   58.600; -260.000; -186.000
424.634; -146.900; -761.000; -623.000
424.759;  -18.500; -688.000; -544.000
424.883;   48.800; -506.000; -527.000
425.008;  316.600; -502.000; -410.000
425.133; 2886.900; -679.000; -653.000
425.258; 1167.200; -517.000; -381.000
425.382; 2253.200; -867.000; -774.000
425.507; 5150.000; -487.000; -543.000
425.632;  735.900; -802.000; -663.000
425.756;  621.900; -256.000; -146.000
425.881; 8150.500; -831.000; -857.000
426.006;19362.700; -604.000; -355.000
426.130; 3017.100; -696.000; -508.000
426.255;  408.400; -611.000; -491.000
426.379;  236.600; -189.000; -577.000
426.504;  684.100;  660.000;  544.000
426.629; 6392.300; -519.000; -466.000
426.753; 3977.900;   64.000;  -46.000
426.878;  525.300; -252.000; -288.000
427.002;  304.500; -651.000; -668.000
427.127; 2602.200;  -35.000; -158.000
427.251;15920.700;  372.000;  401.000
427.375; 4163.500; -191.000; -173.000
427.500; 4553.600; -616.000; -610.000
427.624; 1482.400; -234.000; -400.000
427.749;  266.400; -216.000; -225.000
427.873;   31.400; -499.000; -412.000
427.997;   31.300; -222.000; -230.000
428.122;  289.600;  795.000;  703.000
428.246;  274.000;  433.000;  434.000
428.371; -157.300; -869.000; -773.000
428.495; -147.400; -624.000; -646.000
428.619;   63.500; -186.000; -117.000
428.743;  144.900;   65.000;  132.000
428.868;  155.800; -732.000; -643.000
428.992; 3051.000; -219.000; -326.000
429.116; 1264.300; -329.000; -357.000
429.240;  727.700;  419.000;  426.000
429.365;  113.100; -454.000; -574.000
429.489;   15.000; -638.000; -647.000
429.613;  179.000; -236.000; -177.000
429.737;  143.300; -563.000; -432.000
429.861;  513.100; -247.000; -133.000
429.985; 8309.900; -425.000; -305.000
430.109; 8172.800; -770.000; -908.000
430.234; 1021.500;   76.000;  -50.000
430.358;  192.100; -250.000; -160.000
430.482;  -24.400; -672.000; -564.000
430.606;   -7.200; -655.000; -375.000
430.730;  157.800; -437.000; -388.000
430.854;  454.800; -909.000; -835.000
430.978;  -24.700; -795.000; -764.000
431.102;   14.400; -499.000; -422.000
431.226;  -45.300; -874.000; -815.000
431.350;  262.900;  345.000;  422.000
431.474;  -33.700; -661.000; -373.000
431.597; -221.000;-1060.000; -848.000
431.721; -107.800; -276.000; -267.000
431.845; -172.000; -704.000; -472.000
431.969; -112.800; -304.000; -349.000
432.093;  -90.900; -395.000; -317.000
432.217;   23.400;   32.000;   82.000
432.341;  -63.500; -523.000; -518.000
432.464;   97.500;   96.000;   40.000
432.588;  636.300; -401.000; -329.000
432.712;  314.200;  -52.000;  -52.000
432.836;  152.100;  213.000;  263.000
432.959;   -0.700; -372.000; -311.000
433.083;  195.400;   11.000;    2.000
433.207;  616.300;  285.000;  930.000
433.330; 6969.700; -391.000; -200.000
433.454; 7814.600; -654.000; -638.000
433.578; 4930.400;  583.000;  278.000
433.701;  858.800; -623.000; -675.000
433.825;  414.000; -292.000; -299.000
433.949;  634.200;   28.000;  -72.000
434.072;  276.600; -410.000; -323.000
434.196;   73.400; -309.000; -117.000
434.319; 7837.100;25482.000;25124.000
434.443; 1383.400; -656.000; -603.000
434.566; 3730.500;  281.000;   62.000
434.690;  522.500; -637.000; -383.000
434.813;  177.300; -251.000; -173.000
434.937;  -68.700; -569.000; -696.000
435.060;   68.300; -423.000; -332.000
435.184; 1116.500; -492.000; -217.000
435.307;  573.100;  159.000;  102.000
435.431;   81.400;  -40.000;   24.000
435.554;  -54.800; -399.000; -240.000
435.677; -106.500; -350.000; -258.000
435.801;   -9.600;  -25.000;   49.000
435.924;  108.700;    1.000;  -67.000
436.048;  -74.800;-1019.000; -732.000
436.171;  -64.900; -240.000;  -66.000
436.294;    6.300; -248.000; -229.000
436.417;   90.800; -963.000; -849.000
436.541; -137.000; -814.000; -840.000
436.664;  -30.900; -242.000; -316.000
436.787;   44.800;   13.000;  113.000
436.910; -153.900; -792.000; -422.000
437.034;  157.900;  142.000;  143.000
437.157;  320.500;  -11.000;    0.000
437.280;   -1.300; -392.000; -292.000
437.403;  -26.100; -982.000; -869.000
437.526; 2053.700; -903.000; -865.000
437.649; 6169.500; -505.000; -332.000
437.772;  903.600; -692.000; -540.000
437.896;  357.300;  700.000;  544.000
438.019;  -99.400; -758.000; -503.000
438.142;  -89.600; -596.000; -506.000
438.265;  153.100; -639.000; -670.000
438.388; 1559.500; -520.000; -410.000
438.511;  321.800; -597.000; -394.000
438.634;   13.600; -247.000; -125.000
438.757; -198.100; -693.000; -619.000
438.880;   22.200;  -34.000;  -57.000
439.003;  -92.200; -417.000; -437.000
439.126;  -63.900; -287.000; -167.000
439.248;  -65.700;  -98.000; -139.000
439.371;   -5.700;    9.000;  -53.000
439.494;  143.400;  510.000;  439.000
439.617;  -34.400;   65.000;  -88.000
439.740; -272.000; -968.000; -816.000
439.863; -225.000; -755.000; -595.000
439.986; -167.000; -476.000; -431.000
440.108;    2.500; -161.000; -112.000
440.231; -256.600; -950.000; -836.000
440.354;   12.700;  -64.000; -150.000
440.477;  234.300; -566.000; -542.000
440.599;  143.100; -200.000; -225.000
440.722; -165.100; -709.000; -586.000
440.845;  200.100;  751.000;  928.000
440.968; -146.200; -415.000; -311.000
441.090;  -75.800; -199.000;  -33.000
441.213; -251.200;-1021.000; -825.000
441.336;  -51.400; -159.000;   -5.000
441.458;  -79.400; -549.000; -396.000
441.581;  -89.500; -628.000; -629.000
441.703;  -73.800; -152.000;   13.000
441.826; -162.900; -557.000; -400.000
441.948;   -0.500;   56.000;   51.000
442.071;  131.400;  555.000;  424.000
442.193; -165.900; -531.000; -485.000
442.316;  123.000;  152.000;   97.000
442.438;  106.900; -233.000;  -10.000
442.561;  223.500;  272.000;  262.000
442.683; 1622.000; -809.000; -522.000
442.806; 3033.000;   -8.000;   74.000
442.928;  171.400; -859.000; -604.000
443.051;  -56.400; -577.000; -373.000
443.173; -124.400; -341.000; -339.000
443.295; -114.800; -263.000; -371.000
443.418;  -41.600; -321.000;  -29.000
443.540;   47.900; -106.000;   -4.000
443.662; -152.700; -563.000; -465.000
443.785;   52.200;  335.000;  199.000
443.907; -149.900; -362.000; -208.000
444.029; -203.700; -767.000; -494.000
444.152; -213.200; -644.000; -554.000
444.274;   11.400;  -18.000;  -24.000
444.396; -167.000; -461.000; -221.000
444.518; -228.400; -691.000; -454.000
444.640; -124.400; -268.000; -111.000
444.763;   34.100;  388.000;  249.000
444.885; -139.000; -432.000; -392.000
445.007;    2.000;   35.000;   86.000
445.129; -143.500; -610.000; -515.000
445.251; -116.300; -372.000; -439.000
445.373; -200.600; -537.000; -386.000
445.495;   50.600;  242.000;  350.000
445.617;  216.300;  853.000;  753.000
445.739;  -76.500; -215.000;  -97.000
445.861;   11.400; -245.000; -112.000
445.984;    1.500; -267.000; -101.000
446.105;  587.600; -418.000; -251.000
446.227; 1478.400; -176.000;  -19.000
446.349;  110.900; -358.000; -249.000
446.471; -162.900; -615.000; -448.000
446.593;  -19.800; -316.000;   19.000
446.715;  106.700;  -67.000;   41.000
446.837;  219.800;  697.000;  832.000
446.959; -154.400; -457.000; -478.000
447.081; -196.900; -628.000; -518.000
447.203;  189.100;  862.000;  834.000
447.325; -116.000; -270.000;   42.000
447.446;   72.000;  286.000;  530.000
447.568; -227.400; -921.000; -803.000
447.690;  -86.900; -236.000; -245.000
447.812; -250.800; -798.000; -519.000
447.933;   24.800;  155.000;  127.000
448.055;  -53.400; -306.000; -261.000
448.177;  433.400;   31.000;   79.000
448.299;  268.800; -935.000; -727.000
448.420;  122.200;  -25.000;  159.000
448.542;  -26.400;   -3.000;   33.000
448.664;    5.900;  109.000;  322.000
448.785;   27.300;  265.000;   83.000
448.907; -114.100; -614.000; -353.000
449.028;   41.200; -771.000; -471.000
449.150;  206.400;  492.000;  589.000
449.272; -271.000;-1044.000; -913.000
449.393;  139.500;  612.000;  694.000
449.515; -218.500; -634.000; -581.000
449.636;  -26.300; -264.000; -155.000
449.758;  285.600;  763.000;  622.000
449.879; -126.400; -498.000; -396.000
450.001;  -78.000; -149.000;  -49.000
450.122;  -16.800;  -95.000;  162.000
450.244;   16.300;   37.000;  364.000
450.365; -170.400; -495.000; -301.000
450.486;    8.000;   80.000;  268.000
450.608;  106.900;  393.000;  326.000
450.729;  203.900;  578.000;  645.000
450.850;  -18.900; -574.000; -466.000
450.972;  970.400; -552.000; -389.000
451.093; 6234.100;  190.000;  588.000
451.214; 2302.600; -516.000; -337.000
451.336;  543.600;  773.000;  579.000
451.457;  162.300;  264.000;  393.000
451.578;  -43.200; -118.000;  -74.000
451.699; -152.100; -546.000; -540.000
451.821;  -49.400; -284.000;  -50.000
451.942;   16.700;  278.000;  285.000
452.063;  161.000;  228.000;  419.000
452.184;  869.300;  -54.000;  -49.000
452.305; 1467.800;  103.000;  170.000
452.427;  146.700; -549.000; -301.000
452.548;    0.600;   23.000;   79.000
452.669;   28.300; -257.000;  -89.000
452.790;  -26.300;    3.000;  -18.000
452.911;   60.500;  195.000;  259.000
453.032;  -62.100; -289.000;  -60.000
453.153;   16.600;  -29.000;   81.000
453.274;  189.900;  737.000;  868.000
453.395;   -0.500;  -51.000;  175.000
453.516;  366.800; 1317.000; 1388.000
453.637;  -30.900; -205.000; -150.000
453.758;   -8.100;   15.000;   69.000
453.879; -152.700; -462.000; -250.000
454.000;  253.500; 1086.000;  948.000
454.121; -132.600; -554.000; -326.000
454.242; -179.700; -599.000; -383.000
454.362;  -17.700;  -99.000;  114.000
454.483;   19.400; -309.000; -229.000
454.604;  232.300;  512.000;  580.000
454.725; -166.800; -627.000; -555.000
454.846; -191.500; -474.000; -406.000
454.967;   24.600;  230.000;  539.000
455.087;  -21.900;  179.000;  153.000
455.208;  112.400;  554.000;  856.000
455.329;  -30.700;  -22.000;   82.000
455.450;  116.300;  473.000;  633.000
455.570; -101.900; -234.000; -211.000
455.691;  -40.300;  201.000;  407.000
455.812;  -90.100; -270.000;  -92.000
455.932;  -84.300;  107.000;  -97.000
456.053; -103.400;   36.000;   24.000
456.173; -168.300; -433.000; -355.000
456.294; -216.400; -476.000; -303.000
456.415;  -59.300;  -73.000;   70.000
456.535;    6.300;  297.000;  273.000
456.656;    2.700;  132.000;  240.000
456.776;  -76.300;    3.000;  298.000
456.897;   70.700;  308.000;  513.000
457.017;  -93.600; -153.000;   -3.000
457.138; -154.700; -402.000; -249.000
457.258;    8.400;  263.000;  224.000
457.379;   52.400;  509.000;  521.000
457.499;   26.300;  443.000;  432.000
457.620; -184.000; -407.000; -231.000
457.740; -118.100; -132.000;  -11.000
457.860;  -48.000;   87.000;   44.000
457.981;   -3.500;  132.000;  124.000
458.101;  -79.300;  -89.000;   40.000
458.221;   46.500;  336.000;  402.000
458.342;  -72.300;   -4.000;  -37.000
458.462;  108.400;  617.000;  352.000
458.582;  -56.500; -302.000; -294.000
458.703;   58.700;  303.000;  154.000
458.823;  -13.300;   22.000;  163.000
458.943;  116.100;  341.000;  467.000
459.063;   24.200; 1124.000;  192.000
459.183;   38.200;  328.000;  313.000
459.304;   81.600;  315.000;  517.000
459.424;  -63.200; -246.000;  -89.000
459.544;  550.300;  388.000;  764.000
459.664; 1223.100;  499.000;  506.000
459.784;  509.700; 1004.000; 1175.000
459.904;  158.500;  867.000;  744.000
460.024;  240.900;  867.000;  684.000
460.144;  132.600;  449.000;  554.000
460.264;   55.900;  515.000;  327.000
460.385; -105.900; -145.000; -119.000
460.505;  117.000;  905.000;  858.000
460.625; -109.700;  -17.000;  -68.000
460.745;   44.900;  396.000;  541.000
460.864;   -5.100;  153.000;  469.000
460.984;  123.100;  499.000;  573.000
461.104;  406.300; 1656.000; 1775.000
461.224;  114.900;  657.000;  650.000
461.344;   26.800;  431.000;  360.000
461.464;   -3.000;  258.000;  513.000
461.584;   62.200;  283.000;  466.000
461.704;  -22.400;   58.000;  108.000
461.824;  -37.700;  238.000;  259.000
461.943;  -12.200;  191.000;  130.000
462.063;  -75.000;    2.000;  324.000
462.183;  188.200;  639.000;  717.000
462.303;  326.300; 1678.000; 1230.000
462.422;  126.800;  781.000;  840.000
462.542;   14.000;  271.000;  391.000
462.662;  138.700;  353.000;  380.000
462.782;  424.100;  833.000;  572.000
462.901;  748.100;  545.000;  717.000
463.021;  550.200; 1702.000; 1638.000
463.141;   -2.900;  337.000;  770.000
463.260;   43.200;  614.000;  474.000
463.380;   93.500;  902.000;  884.000
463.499;   -4.100;  342.000;  332.000
463.619;   -4.700;  581.000;  559.000
463.738;  294.800; 1644.000;  903.000
463.858;  109.300;  657.000;  811.000
463.978;   22.100;  542.000;  396.000
464.097;  169.400;  921.000; 1114.000
464.217;  263.900; 1196.000; 1143.000
464.336;  284.700; 1068.000; 1130.000
464.455;   20.700;  328.000;  659.000
464.575;  161.700;  597.000;  602.000
464.694;  459.200; 1204.000; 1179.000
464.814;  287.000; 1190.000; 1138.000
464.933;  259.900; 1095.000; 1027.000
465.052;  276.500; 1412.000; 1054.000
465.172;  232.800;  922.000;  799.000
465.291;  372.500; 1376.000; 1320.000
465.410;  106.300;  462.000;  735.000
465.530;  238.400; 1355.000; 1310.000
465.649;  232.300; 1209.000; 1273.000
465.768;  395.900; 1673.000; 1508.000
465.888;  196.900;  941.000; 1174.000
466.007;  281.600; 1335.000; 1440.000
466.126;  100.200;  721.000;  641.000
466.245;  180.600; 1176.000; 1187.000
466.364;  144.900;  950.000; 1060.000
466.484;  162.700; 1024.000; 1213.000
466.603;  168.400; 1101.000; 1222.000
466.722;  299.500; 1490.000; 1769.000
466.841;  275.000; 1151.000; 1401.000
466.960;  147.500; 1069.000;  972.000
467.079;  379.300; 1971.000; 1786.000
467.198;  192.900; 1238.000; 1181.000
467.317;  270.100; 1768.000; 1162.000
467.436;  240.000; 1709.000; 1261.000
467.555;  408.800; 1796.000; 1746.000
467.674;  219.200; 1227.000; 1329.000
467.793;  200.800; 1376.000; 1374.000
467.912;  252.900; 1658.000; 1539.000
468.031;  369.800; 2038.000; 1930.000
468.150;  358.700; 1842.000; 1837.000
468.269;  478.000; 2313.000; 2090.000
468.388;  478.100; 2168.000; 2339.000
468.507;  638.500; 2884.000; 2903.000
468.626;  630.800; 2555.000; 2541.000
468.744;  413.100; 2018.000; 2174.000
468.863;  452.600; 2312.000; 2523.000
468.982;  279.700; 1503.000; 1555.000
469.101;  570.400; 2788.000; 2692.000
469.220;  389.600; 2333.000; 2176.000
469.338;  608.900; 2935.000; 3051.000
469.457;  482.700; 2719.000; 2545.000
469.576;  781.600; 3953.000; 3784.000
469.695;  608.000; 2877.000; 3066.000
469.813;  974.800; 4148.000; 4192.000
469.932;  905.800; 4255.000; 4485.000
470.051;  893.000; 4075.000; 4161.000
470.169; 1571.100; 4470.000; 4338.000
470.288; 2377.800; 4700.000; 4809.000
470.406; 1509.200; 5059.000; 5194.000
470.525; 1343.000; 6101.000; 5787.000
470.644; 1395.400; 6847.000; 6794.000
470.762; 1799.400; 8397.000; 7873.000
470.881; 1871.700; 8651.000; 8464.000
470.999; 2130.000; 9685.000; 9151.000
471.118; 2319.200;11174.000;10711.000

