
Integration time [ms]: 100.000
Averaging Nr. [scans]: 40
Smoothing Nr. [pixels]: 0
Data measured with spectrometer [name]: 2101012U2
Wave   ;Sample   ;Dark     ;Reference
[nm]   ;[counts] ;[counts] ;[counts] 

197.733;   59.250;  516.000;  404.000
197.879;  -79.875; -610.000; -634.000
198.025;  -37.550; -475.000; -420.000
198.171;  -58.175; -602.000; -612.000
198.317;  -17.475; -401.000; -316.000
198.463;  -47.675; -655.000; -404.000
198.609;   33.650;  181.000; -137.000
198.755;  -79.125; -644.000; -410.000
198.901;  -55.700; -505.000; -424.000
199.047;  -54.350; -615.000; -488.000
199.193;  -29.400; -230.000; -468.000
199.339;  -38.550; -222.000; -369.000
199.485;   39.475;  330.000;  271.000
199.631;   19.575;  227.000;  310.000
199.777;  -50.375; -466.000; -398.000
199.923;  -60.500; -610.000; -424.000
200.069;   -5.075; -141.000;  -58.000
200.215;   52.125;  128.000;  453.000
200.361;   52.875;  243.000;  477.000
200.507;  -49.825; -600.000; -373.000
200.653;  -14.850; -371.000; -194.000
200.798;  -29.125; -215.000; -125.000
200.944;    1.575; -146.000;  -41.000
201.090;   35.750;   61.000;  222.000
201.236;   -8.100; -116.000; -158.000
201.382;  127.050;  874.000;  903.000
201.528;   -8.775;  -58.000;  -48.000
201.674;  -53.100; -386.000; -293.000
201.819;  -59.050; -540.000; -439.000
201.965;  -76.675; -699.000; -447.000
202.111;  -29.900; -273.000; -226.000
202.257;  -37.325; -250.000; -238.000
202.402;   17.050;   13.000;  -36.000
202.548;  -25.175; -169.000; -116.000
202.694;   89.800;  410.000; -183.000
202.840;  -65.150; -603.000; -531.000
202.985;  -70.850; -681.000; -639.000
203.131;  -91.350; -832.000; -666.000
203.277;  -19.275; -199.000; -262.000
203.423;  -49.525; -434.000; -520.000
203.568;  -29.600; -462.000; -237.000
203.714;  -52.975; -535.000; -542.000
203.860;  -67.150; -682.000; -641.000
204.005;   26.125;  112.000;  167.000
204.151;   70.775;  561.000;  556.000
204.296;  -37.975; -354.000; -221.000
204.442;  -66.700; -600.000; -547.000
204.588;  -76.600; -592.000; -579.000
204.733;   16.150;  178.000;  168.000
204.879; -118.275;-1018.000; -822.000
205.025;    2.775;  -99.000;  126.000
205.170;   -9.125;  -17.000;   94.000
205.316;   76.325;  438.000;  661.000
205.461;  -82.500; -698.000; -554.000
205.607;   97.250;  609.000;  665.000
205.752;  -80.250; -626.000; -551.000
205.898;  -45.450; -501.000; -391.000
206.043;  -51.425; -578.000; -506.000
206.189;  -36.000; -243.000; -285.000
206.334;   69.675;  554.000;  606.000
206.480;   71.900;  409.000;  239.000
206.625;  -75.350; -529.000; -552.000
206.771;  -39.875; -451.000; -373.000
206.916;  -32.725; -210.000; -537.000
207.062;  -64.950; -545.000; -591.000
207.207;  -51.900; -546.000; -443.000
207.353;   52.725;  185.000;  460.000
207.498;   15.900;  196.000;   85.000
207.643;  -59.300; -501.000; -370.000
207.789; -115.450;-1069.000; -910.000
207.934;  -88.850; -665.000; -713.000
208.080;  -24.950; -154.000;   66.000
208.225;   -7.150;  -22.000;  -57.000
208.370;  -72.650; -727.000; -619.000
208.516;  -62.075; -741.000; -487.000
208.661;  -17.700; -127.000;  -69.000
208.806;  -17.950; -165.000; -171.000
208.952; -109.000;-1044.000; -731.000
209.097;   84.075;  378.000;  349.000
209.242;  -39.000; -307.000; -382.000
209.387;   82.075;  392.000;  350.000
209.533;  -49.750; -321.000; -350.000
209.678;   68.900;  472.000;  543.000
209.823;  -54.325; -408.000; -310.000
209.969;  -83.225; -860.000; -757.000
210.114; -104.050; -907.000; -719.000
210.259; -121.875; -939.000; -889.000
210.404;   -3.100; -171.000;  103.000
210.549;   10.825;  108.000;    3.000
210.695;  -23.525;   -3.000;  -95.000
210.840;   34.175;   94.000;   67.000
210.985;  -65.300; -484.000; -303.000
211.130;   67.175;  268.000;  406.000
211.275;   12.725;  207.000;  199.000
211.420;  -54.675; -300.000; -289.000
211.566;  -61.975; -536.000; -489.000
211.711;   17.900;  218.000;  157.000
211.856;  -64.175; -545.000; -519.000
212.001;   -0.775;  151.000;   44.000
212.146;   25.700;  153.000;   49.000
212.291;  -20.700; -210.000; -186.000
212.436;  -12.575; -280.000;   -6.000
212.581;  -67.100; -685.000; -653.000
212.726;  -72.250; -487.000; -538.000
212.871;  -33.575; -552.000; -217.000
213.016; -134.525;-1172.000;-1029.000
213.161;   69.700;  406.000;  291.000
213.306;  -78.725; -435.000; -577.000
213.451;  -85.525; -778.000; -689.000
213.596;  -44.650; -455.000; -347.000
213.741;  -44.950; -448.000; -538.000
213.886;  -67.075; -498.000; -517.000
214.031;  -36.350; -294.000; -124.000
214.176;  -47.750; -408.000; -341.000
214.321;  -17.825; -296.000; -157.000
214.466;  -16.375; -163.000;  -43.000
214.611;    3.300;  -61.000;  -10.000
214.756; -101.825; -948.000; -858.000
214.901;  -19.750; -388.000; -226.000
215.046; -108.825; -797.000; -825.000
215.191;   31.575;  128.000;   35.000
215.336;  -15.475; -157.000;  -19.000
215.480;  -59.300; -684.000; -505.000
215.625;   -9.675; -175.000;  -19.000
215.770;  -84.875; -757.000; -662.000
215.915;   -5.975;   -5.000;  -97.000
216.060;    3.125; -113.000;  -21.000
216.205; -109.100; -731.000; -779.000
216.349;  -61.225; -470.000; -533.000
216.494; -118.775; -939.000; -867.000
216.639; -100.175; -823.000; -888.000
216.784;  -84.475; -577.000; -525.000
216.929;   51.950;  392.000;  281.000
217.073;  -10.425; -244.000;  -31.000
217.218;    9.575;   78.000;  -47.000
217.363;  -80.125; -656.000; -618.000
217.507;  -73.025; -623.000; -588.000
217.652; -114.350; -845.000; -874.000
217.797;  -89.125; -708.000; -659.000
217.942; -100.925; -856.000; -720.000
218.086;   67.950;  608.000;  539.000
218.231;  -11.950; -174.000;  -26.000
218.376;  -28.425; -337.000; -229.000
218.520;    5.350;  -41.000;   96.000
218.665;  -29.300; -338.000; -204.000
218.810;  -45.325; -275.000; -233.000
218.954;   26.975;  201.000;   35.000
219.099;  -96.550; -713.000; -963.000
219.243;  -66.825; -589.000; -554.000
219.388;  -21.900; -264.000; -136.000
219.532;   -5.625; -116.000; -116.000
219.677;  -61.425; -564.000; -521.000
219.822;    1.200;   33.000;   89.000
219.966;   17.925;   17.000;  -99.000
220.111;  -26.800; -328.000;  -40.000
220.255;  -78.475; -797.000; -750.000
220.400;  -22.325; -180.000; -146.000
220.544;  -63.850; -516.000; -450.000
220.689;  -59.375; -422.000; -451.000
220.833;  -11.700; -123.000;  -58.000
220.978;  -49.325; -393.000; -563.000
221.122;   11.975;  319.000;  307.000
221.267;  -99.225; -906.000; -837.000
221.411;  -69.750; -478.000; -394.000
221.555;    0.225; -104.000;  -23.000
221.700;  -44.625; -329.000; -222.000
221.844;   30.475;  255.000;  272.000
221.989;  -33.425; -328.000; -311.000
222.133;  -39.900; -289.000; -307.000
222.277;   -0.175;    5.000;   78.000
222.422;   16.925;  227.000;  113.000
222.566;  -33.350; -381.000; -214.000
222.711;  -51.850; -414.000; -479.000
222.855;  -73.125; -643.000; -586.000
222.999;  -70.775; -642.000; -717.000
223.144;  -18.225; -195.000; -194.000
223.288;   57.600;  423.000;  251.000
223.432;   31.250;  184.000;  230.000
223.576;   20.125;  152.000;  -21.000
223.721;   44.225;  364.000;  273.000
223.865;  -45.675; -472.000; -475.000
224.009;  245.150; 1673.000; 1631.000
224.153;  -70.000; -660.000; -671.000
224.298;  -71.125; -531.000; -489.000
224.442;  -10.250;  -74.000;  -33.000
224.586;  -10.850; -169.000; -106.000
224.730;  -81.625; -858.000; -670.000
224.875;  -99.175; -739.000; -688.000
225.019;    3.300;  102.000;  188.000
225.163;   63.475;  208.000;  341.000
225.307;   16.600;   97.000;  -91.000
225.451;   48.375;  360.000;  481.000
225.595;   20.875;  264.000;  176.000
225.739;  -10.225; -170.000;  -94.000
225.884;   -3.100;   86.000;    5.000
226.028;  -84.725; -760.000; -626.000
226.172;  -31.800; -260.000; -273.000
226.316; -114.950; -941.000; -902.000
226.460;  -55.150; -645.000; -493.000
226.604;  -51.600; -406.000; -400.000
226.748; -107.925; -836.000; -733.000
226.892;  -26.650; -227.000; -181.000
227.036;  -47.650; -537.000; -447.000
227.180;  -44.950; -551.000; -375.000
227.324;  -59.750; -561.000; -580.000
227.468; -123.025; -819.000; -717.000
227.612;   19.325;  242.000;  -28.000
227.756;  -85.075; -845.000; -698.000
227.900;   33.475;  342.000;  441.000
228.044;  -59.450; -509.000; -290.000
228.188;   38.775;  448.000;  568.000
228.332;  -88.275; -546.000; -472.000
228.476;  -20.250; -223.000; -149.000
228.620;  -32.850; -210.000; -150.000
228.764;   53.575;  431.000;  349.000
228.908;  -16.200; -155.000;   30.000
229.052;  -51.950; -615.000; -528.000
229.195;  -17.325; -172.000;   13.000
229.339;  -22.350; -235.000; -305.000
229.483;  -25.675;    5.000; -162.000
229.627;   -9.150; -156.000;  139.000
229.771;  -37.375; -218.000; -294.000
229.915;    9.050;  230.000;   79.000
230.059;  -81.225; -648.000; -663.000
230.202;  -48.375; -370.000; -317.000
230.346;   -9.450; -107.000;  107.000
230.490;  -57.425; -489.000; -521.000
230.634; -104.650; -736.000; -553.000
230.777;   69.400;  478.000;  509.000
230.921;  -40.600; -450.000; -359.000
231.065;  -43.225; -246.000; -286.000
231.209;   39.650;  261.000;  265.000
231.352;   13.225;   54.000;   40.000
231.496;   20.525;  568.000;  188.000
231.640;  -71.025; -693.000; -621.000
231.783;   68.550;  546.000;  525.000
231.927;  -33.875; -294.000; -365.000
232.071; -121.175; -962.000; -736.000
232.214; -100.375; -980.000; -764.000
232.358;  -86.275; -683.000; -599.000
232.502;   16.825;  -19.000;    7.000
232.645; -121.200;-1090.000; -927.000
232.789;   -9.900; -257.000; -218.000
232.933;  -40.850; -407.000; -224.000
233.076; -118.300;-1038.000; -897.000
233.220;  -99.300; -752.000; -777.000
233.363;  -75.125; -669.000; -477.000
233.507;   42.525;  371.000;  129.000
233.650;  -88.925; -764.000; -834.000
233.794;   41.350;  438.000;  461.000
233.938;  -54.075; -530.000; -362.000
234.081;  -10.000;  -93.000;   31.000
234.225;  -60.500; -631.000; -539.000
234.368; -102.975; -773.000; -723.000
234.512;  -39.000; -385.000; -299.000
234.655;  -82.425; -582.000; -555.000
234.798;  -57.800; -493.000; -466.000
234.942; -119.400; -884.000;-1002.000
235.085;  -70.425; -651.000; -443.000
235.229;  -62.825; -405.000; -410.000
235.372;  -53.800; -247.000; -191.000
235.516;  -66.975; -397.000; -321.000
235.659;   23.975;   92.000;  121.000
235.802;    4.600;  -38.000;  -22.000
235.946;   27.800;  335.000;  215.000
236.089;   16.800;  126.000;  250.000
236.233;   51.225;  275.000;  298.000
236.376;  -44.225; -235.000; -378.000
236.519;  -42.300; -297.000; -319.000
236.663;  -22.900; -215.000; -117.000
236.806; -136.000;-1029.000; -999.000
236.949;   48.700;  543.000;  431.000
237.092;   57.675;  412.000;  391.000
237.236;  -89.600; -589.000; -502.000
237.379;   63.925;  352.000;  428.000
237.522; -123.775; -879.000; -768.000
237.666;  -11.775; -271.000;   18.000
237.809; -118.100; -851.000; -823.000
237.952;   45.050;  469.000;  271.000
238.095;  -57.925; -447.000; -442.000
238.238;   73.875;  688.000;  700.000
238.382;   -3.850;  166.000;  103.000
238.525;  -63.375; -598.000; -511.000
238.668; -133.175;-1060.000; -985.000
238.811;  -83.875; -638.000; -643.000
238.954;  -53.175; -483.000; -334.000
239.097;   82.100;  617.000;  664.000
239.241;   22.800;  394.000;  326.000
239.384;  -35.000; -254.000; -214.000
239.527;  -46.750; -424.000; -224.000
239.670; -143.375; -994.000;-1091.000
239.813; -108.400; -696.000; -658.000
239.956;   71.900;  579.000;  473.000
240.099; -106.925; -778.000; -725.000
240.242;   61.850;  428.000;  432.000
240.385;   53.325;  466.000;  450.000
240.528;  -64.450; -706.000; -473.000
240.671;    2.525;  189.000;  134.000
240.814;  -32.750; -441.000; -158.000
240.957;  -88.650; -767.000; -578.000
241.100;  -75.100; -779.000; -755.000
241.243; -137.775;-1234.000; -893.000
241.386;  -73.000; -508.000; -379.000
241.529;  -98.425; -735.000; -547.000
241.672;  -64.825; -566.000; -495.000
241.815; -108.525; -832.000; -808.000
241.958;  -38.100; -125.000; -182.000
242.101;  -62.025; -545.000; -390.000
242.244;  -38.900; -270.000; -325.000
242.387;  -35.200; -304.000; -246.000
242.530;   46.150;  470.000;  134.000
242.673;  -40.425; -381.000; -309.000
242.815; -100.550; -925.000; -899.000
242.958;  -61.075; -482.000; -381.000
243.101;   15.875;  132.000;  187.000
243.244;  -97.875; -564.000; -521.000
243.387;  -39.325; -313.000; -316.000
243.530;  -86.000; -657.000; -674.000
243.672;   -6.950;   43.000;  -92.000
243.815;  -45.450; -355.000; -283.000
243.958;   -2.350;   98.000;  -26.000
244.101;   -0.325;   59.000;  -16.000
244.243;  -11.150;  -47.000;  101.000
244.386; -104.900; -761.000; -630.000
244.529;  -21.075; -132.000; -139.000
244.672; -144.800;-1154.000; -951.000
244.814;  -95.825; -621.000; -794.000
244.957;  -56.550; -380.000; -304.000
245.100;  -75.950; -489.000; -489.000
245.242;  -54.275; -387.000; -374.000
245.385;   -1.050;  -59.000;  -39.000
245.528; -108.875; -871.000; -705.000
245.670;   78.500;  612.000;  634.000
245.813;  -65.800; -599.000; -547.000
245.956;  -36.075; -324.000; -275.000
246.098;  -69.100; -508.000; -650.000
246.241;    0.675;  194.000;   48.000
246.383;  -19.800; -119.000;  -73.000
246.526;  -74.725; -454.000; -525.000
246.669; -109.150; -889.000; -780.000
246.811;   19.550;  172.000;   -1.000
246.954;  -52.750; -512.000; -426.000
247.096;  -35.625;  -84.000;   -6.000
247.239;  -50.650; -482.000; -445.000
247.381;  -75.925; -647.000; -488.000
247.524;   87.525;  645.000;  679.000
247.666;  -11.425;   58.000;   11.000
247.809; -101.825; -887.000; -691.000
247.951;  -21.900;  -75.000;  138.000
248.094;   19.700;  432.000;  308.000
248.236; -148.325;-1262.000;-1238.000
248.378;   -7.225; -356.000;  -81.000
248.521;  -26.775; -334.000; -337.000
248.663;  -42.100; -236.000; -267.000
248.806;  -27.800; -300.000; -266.000
248.948;  -98.025; -886.000; -763.000
249.090;  -57.075; -428.000; -398.000
249.233;  -49.925; -344.000; -381.000
249.375;  -66.600; -474.000; -451.000
249.518;  -10.600;  -83.000; -133.000
249.660;  -18.500; -103.000;    3.000
249.802; -157.950;-1303.000;-1189.000
249.945;  -80.275; -612.000; -540.000
250.087; -106.050; -834.000; -768.000
250.229;  -60.450; -362.000; -480.000
250.371;  -74.525; -494.000; -439.000
250.514;  -57.600; -310.000; -244.000
250.656;  -26.725;   69.000;  102.000
250.798; -111.050; -849.000; -800.000
250.940;  -61.375; -322.000; -322.000
251.083;  -34.150; -335.000; -111.000
251.225;   51.250;  338.000;  310.000
251.367;  -48.425; -274.000; -373.000
251.509;  -33.800; -265.000; -210.000
251.651;  -97.350; -731.000; -671.000
251.794;   68.050;  538.000;  632.000
251.936; -110.300; -821.000; -747.000
252.078;  -77.425; -540.000; -461.000
252.220;  -71.750; -645.000; -477.000
252.362;   48.450;  344.000;  462.000
252.504;  -74.650; -677.000; -584.000
252.646; -109.600; -875.000; -722.000
252.788;  -10.900;   14.000; -128.000
252.931;  -39.075; -257.000; -253.000
253.073;  -40.800; -376.000; -317.000
253.215;    1.925;  141.000;  122.000
253.357;   -6.775;   82.000; -153.000
253.499;  -50.375; -374.000; -234.000
253.641;  -90.225; -749.000; -594.000
253.783;  -92.400; -609.000; -527.000
253.925;  -69.800; -586.000; -591.000
254.067; -100.000; -744.000; -667.000
254.209;  -31.050; -391.000; -259.000
254.351; -124.275; -865.000; -883.000
254.493;  -64.475; -441.000; -417.000
254.635; -121.975; -936.000; -818.000
254.777;  -88.075; -752.000; -687.000
254.918;  -56.900; -512.000; -430.000
255.060;  -59.975; -551.000; -395.000
255.202;  -47.600; -473.000; -261.000
255.344;  -69.775; -658.000; -455.000
255.486;  -64.825; -471.000; -406.000
255.628;  -93.200; -780.000; -781.000
255.770;  -94.675; -676.000; -536.000
255.912;  -56.425; -559.000; -468.000
256.053;  -93.800; -730.000; -508.000
256.195;  142.575; 1008.000;  903.000
256.337;  -95.100; -861.000; -595.000
256.479;   53.425;  532.000;  416.000
256.621;  -46.850; -394.000; -212.000
256.762;  -88.625; -789.000; -742.000
256.904;   51.550;  485.000;  487.000
257.046;  -48.900; -381.000; -271.000
257.188;  -44.400; -351.000; -264.000
257.329;  -66.075; -525.000; -464.000
257.471; -114.450; -939.000; -807.000
257.613;  -59.900; -584.000; -498.000
257.755; -153.600;-1073.000; -982.000
257.896;   24.175;  286.000;  392.000
258.038;  -62.150; -403.000; -352.000
258.180;  -45.275; -354.000; -279.000
258.321;  -97.900; -581.000; -457.000
258.463;  -11.300;  -71.000;  133.000
258.605;  -89.325; -562.000; -570.000
258.746;  -99.975; -886.000; -772.000
258.888; -155.725;-1026.000;-1020.000
259.029;   15.625;  121.000;   -8.000
259.171;  -85.575; -614.000; -550.000
259.313;   -9.225;  -49.000;  -47.000
259.454;  -68.750; -536.000; -414.000
259.596;  -53.550; -483.000; -390.000
259.737;  -74.400; -590.000; -474.000
259.879;   32.500;  217.000;  311.000
260.020;   87.800;  901.000;  636.000
260.162;  -30.175; -146.000; -253.000
260.303; -100.150; -768.000; -687.000
260.445;  -80.950; -609.000; -613.000
260.586;   28.475;  392.000;  157.000
260.728;  -35.725; -360.000; -248.000
260.869;  -53.800; -350.000; -343.000
261.011;   66.750;  706.000;  537.000
261.152;  -53.425; -479.000; -319.000
261.293;  -67.900; -576.000; -595.000
261.435;  -29.200; -219.000; -184.000
261.576;  -44.875; -455.000; -325.000
261.718;   65.625;  420.000;  470.000
261.859; -123.050; -940.000; -949.000
262.000; -127.950; -951.000;-1016.000
262.142;  -17.825;  -52.000;  -60.000
262.283; -108.575; -808.000; -691.000
262.424;  -95.375; -666.000; -625.000
262.566; -136.650;-1161.000; -983.000
262.707;  -99.700; -840.000; -830.000
262.848; -122.200; -769.000; -726.000
262.990;  -38.725; -362.000; -345.000
263.131;   67.125;  650.000;  681.000
263.272;  -17.000;  -61.000;  -41.000
263.413;  -91.125; -589.000; -561.000
263.555;  -62.375; -669.000; -143.000
263.696;  -88.325; -550.000; -641.000
263.837;  -50.050; -449.000; -551.000
263.978;  -13.375;   -5.000;  -77.000
264.119;  -50.250; -283.000; -264.000
264.261; -103.225; -847.000; -630.000
264.402;  -10.175;   33.000;   40.000
264.543;  -73.575; -509.000; -524.000
264.684;  -11.575;   61.000;  -50.000
264.825;  -84.950; -816.000; -538.000
264.966;  -16.725;  -84.000;  -67.000
265.107; -103.000; -646.000; -670.000
265.248; -124.225; -825.000; -812.000
265.390;  -14.900;  152.000;   -9.000
265.531;  -17.750; -238.000; -107.000
265.672;  -82.500; -557.000; -630.000
265.813;   54.500;  563.000;  439.000
265.954; -131.450; -959.000; -940.000
266.095;  -10.700; -372.000; -322.000
266.236;  -94.700; -686.000; -548.000
266.377;  -29.675; -243.000; -297.000
266.518;  -71.225; -619.000; -547.000
266.659;    9.775;  170.000;  268.000
266.800;  -14.650;   83.000;   85.000
266.941;  -76.400; -487.000; -478.000
267.082;   15.625;  354.000;   99.000
267.223;  -51.650; -344.000; -273.000
267.364; -103.900; -892.000; -686.000
267.504;  -12.575;    3.000;  135.000
267.645;    2.650;  160.000;   67.000
267.786;  -36.125; -147.000;  -86.000
267.927;  -71.900; -473.000; -379.000
268.068;  -19.075; -186.000;  -61.000
268.209;  -42.600; -175.000; -413.000
268.350;  -63.250; -388.000; -532.000
268.490;  -73.550; -648.000; -521.000
268.631;   29.875;  127.000;  225.000
268.772;  -92.900; -874.000; -647.000
268.913;  -43.725; -328.000; -476.000
269.054;  -18.775; -117.000;   12.000
269.194;  -43.875; -418.000; -402.000
269.335; -156.775;-1137.000;-1074.000
269.476;  -19.100;   33.000;  -35.000
269.617;  -38.300; -347.000; -392.000
269.757;  -83.750; -713.000; -646.000
269.898;  -96.950; -856.000; -613.000
270.039;  -65.250; -415.000; -405.000
270.180; -129.825; -952.000; -816.000
270.320;  -31.475; -190.000; -250.000
270.461;  -35.275; -277.000; -249.000
270.602;  -23.075; -186.000; -156.000
270.742; -127.025; -868.000; -943.000
270.883;  -68.600; -442.000; -390.000
271.023;  -66.950; -358.000; -357.000
271.164;  -73.350; -607.000; -528.000
271.305;  -93.050; -666.000; -654.000
271.445; -102.075; -722.000; -683.000
271.586;  -68.900; -462.000; -283.000
271.726;  -36.200; -397.000; -322.000
271.867;  -74.375; -594.000; -534.000
272.008;   52.600; -473.000; -285.000
272.148;   73.275;  462.000;  468.000
272.289;  -23.250; -113.000; -181.000
272.429;    6.725;   19.000;  185.000
272.570;  -92.950; -633.000; -737.000
272.710; -100.250; -825.000; -775.000
272.851;  -27.600;  113.000; -130.000
272.991; -142.825;-1173.000;-1077.000
273.131;  -65.575; -419.000; -459.000
273.272; -105.450; -683.000; -723.000
273.412;  -12.400; -143.000;  -31.000
273.553;  -60.250; -488.000; -507.000
273.693;  108.275;  913.000;  858.000
273.834; -103.525; -894.000; -692.000
273.974;  -82.900; -664.000; -615.000
274.114; -107.300; -772.000; -560.000
274.255;   66.300;  414.000;  373.000
274.395;  -27.675; -180.000; -125.000
274.535;   25.300;  199.000;  350.000
274.676;   26.975;  225.000;   94.000
274.816;   -2.175;  110.000;   34.000
274.956;  -86.325; -624.000; -690.000
275.097; -100.875;-1014.000; -922.000
275.237; -121.300; -913.000; -803.000
275.377;  -92.600; -778.000; -689.000
275.517; -140.950; -878.000; -937.000
275.658;  -70.100; -590.000; -555.000
275.798;  -86.825; -606.000; -413.000
275.938;   17.900;  215.000;  323.000
276.078;  -74.150; -626.000; -395.000
276.218;    5.600;   99.000;  104.000
276.359; -131.925;-1026.000;-1024.000
276.499;  -73.650; -605.000; -446.000
276.639;  -29.100; -305.000; -151.000
276.779;  -55.250; -475.000; -357.000
276.919;  -98.800; -783.000; -624.000
277.059;  -19.825; -261.000; -212.000
277.199;  -49.500; -357.000; -259.000
277.340;   33.600;  287.000;  175.000
277.480; -120.000; -840.000; -693.000
277.620;   15.225;  192.000;   16.000
277.760; -182.100;-1533.000;-1294.000
277.900;  -13.975;  113.000;   33.000
278.040;    5.450;  137.000;  159.000
278.180;   16.875;  270.000;  170.000
278.320;   -5.850;   21.000;   56.000
278.460;  -73.550; -443.000; -469.000
278.600;  -99.600; -708.000; -598.000
278.740;   48.125;  448.000;  224.000
278.880; -117.000; -768.000; -791.000
279.020;  -25.175; -194.000; -144.000
279.160;  -74.625; -672.000; -595.000
279.300; -114.750; -926.000; -873.000
279.440; -108.600; -709.000; -622.000
279.579;  -71.425;-1014.000; -929.000
279.719;  -75.525; -410.000; -394.000
279.859;   31.250;   -4.000;   41.000
279.999;    2.275; -208.000;  101.000
280.139;  -44.400; -435.000; -387.000
280.279;  -91.625; -708.000; -745.000
280.419;  -29.825; -229.000; -147.000
280.559;  -40.700; -259.000; -180.000
280.698;  -87.200; -790.000; -639.000
280.838; -105.525; -778.000; -800.000
280.978; -102.550; -846.000; -790.000
281.118; -112.000; -811.000; -704.000
281.257;    1.550;   24.000;    6.000
281.397; -147.800;-1094.000; -960.000
281.537;  -80.675; -599.000; -712.000
281.677;  -28.150; -150.000; -101.000
281.816;  -74.550; -700.000; -630.000
281.956;  -32.725; -193.000; -257.000
282.096;  -73.200; -539.000; -396.000
282.235;  -99.525; -672.000; -638.000
282.375;  -20.925; -243.000;  -98.000
282.515;  -96.950; -715.000; -707.000
282.654;    9.225;   29.000;  106.000
282.794;   28.800;  388.000;  244.000
282.934;  -53.725; -530.000; -491.000
283.073; -112.325;-1030.000; -857.000
283.213;  -54.150; -460.000; -467.000
283.353;  -62.950; -408.000; -349.000
283.492;  -34.425; -264.000; -296.000
283.632;  -38.425; -254.000; -168.000
283.771;  -99.150; -859.000; -730.000
283.911;  -65.975; -369.000; -260.000
284.050; -117.475; -794.000; -748.000
284.190; -145.975;-1229.000;-1096.000
284.329; -138.250;-1055.000; -964.000
284.469;  -87.675; -516.000; -591.000
284.608;  -46.650; -559.000; -598.000
284.748;  -88.275; -614.000; -570.000
284.887;  -22.775;  -87.000;  -20.000
285.027; -118.775; -844.000; -892.000
285.166;  -42.175; -192.000; -249.000
285.306;  -21.150; -116.000;  -33.000
285.445;  -52.275; -229.000; -343.000
285.584;  -90.875; -630.000; -494.000
285.724;  -40.025; -282.000; -322.000
285.863; -103.100; -857.000; -507.000
286.002;  -54.300; -366.000; -276.000
286.142;  -91.675; -715.000; -622.000
286.281;  -75.225; -525.000; -493.000
286.420;  -67.850; -554.000; -417.000
286.560;   82.225;  653.000;  623.000
286.699; -137.650; -958.000; -912.000
286.838;  -82.875; -590.000; -591.000
286.978;  -86.375; -533.000; -537.000
287.117; -120.875;-1085.000; -950.000
287.256;  -38.050; -228.000; -211.000
287.395;  -45.950; -197.000; -378.000
287.535;  -59.875; -370.000; -298.000
287.674;  -66.450; -509.000; -484.000
287.813;   34.450;  661.000;  533.000
287.952; -141.075;-1010.000; -871.000
288.091; -130.400;-1049.000; -915.000
288.231;   -6.625;   13.000;   15.000
288.370; -166.550;-1217.000;-1200.000
288.509;  -88.075; -728.000; -645.000
288.648;  -80.475; -770.000; -548.000
288.787;  -38.750; -243.000;  -87.000
288.926;  -70.550; -454.000; -475.000
289.065;   92.300;  859.000;  672.000
289.204;  -46.675; -377.000; -217.000
289.344; -114.350; -791.000; -690.000
289.483;   38.025;  416.000;  304.000
289.622;  -39.125; -291.000; -149.000
289.761;  -21.250; -309.000; -166.000
289.900; -116.800; -785.000; -626.000
290.039;  -22.725;  -12.000;  -95.000
290.178;  -43.800; -274.000; -180.000
290.317;  -76.500; -618.000; -479.000
290.456;  -65.250; -463.000; -451.000
290.595; -125.525; -961.000; -833.000
290.734; -138.625; -904.000; -891.000
290.873;  -79.275; -456.000; -420.000
291.011; -110.925; -833.000; -843.000
291.150;  -91.375; -770.000; -682.000
291.289;  -34.650; -343.000; -110.000
291.428;  -84.000; -599.000; -480.000
291.567;  -59.350; -370.000; -442.000
291.706;   -5.075;  109.000;  154.000
291.845;  -86.525; -597.000; -505.000
291.984; -159.100;-1234.000;-1061.000
292.122;   64.950;  602.000;  582.000
292.261;   34.200;  620.000;  463.000
292.400;   14.675; -144.000;  211.000
292.539; -125.050; -959.000; -813.000
292.678;  -37.325; -325.000; -300.000
292.816; -152.275;-1136.000; -965.000
292.955; -106.150; -844.000; -684.000
293.094;  -18.875; -173.000; -337.000
293.233;  -54.125; -556.000; -400.000
293.371;  -44.725; -225.000;  -84.000
293.510; -105.650; -866.000; -780.000
293.649; -128.350; -959.000; -924.000
293.787; -119.650;-1083.000;-1012.000
293.926;  -18.550; -113.000;  -32.000
294.065;  -50.175; -379.000; -290.000
294.203;   33.975;  298.000;  406.000
294.342;   17.400;   74.000;  156.000
294.481; 5045.050;51180.000; -836.000
294.619;  -42.550; -425.000; -582.000
294.758; -152.600;-1230.000;-1137.000
294.896;   12.700; -125.000;    5.000
295.035; -135.325;-1040.000;-1006.000
295.174; -126.100;-1082.000; -954.000
295.312;  -49.700; -323.000; -203.000
295.451;  -31.300; -307.000; -428.000
295.589;  -61.125; -389.000; -518.000
295.728;   12.750; -292.000; -165.000
295.866;   -8.225;  -36.000;  -51.000
296.005;  -74.625; -584.000; -341.000
296.143;  -80.625; -558.000; -596.000
296.282; -107.225; -957.000; -881.000
296.420;  -80.500; -657.000; -557.000
296.559; -103.500; -892.000; -633.000
296.697;  -59.750; -847.000; -665.000
296.835;  -89.950;-1141.000;-1002.000
296.974;    9.175;  -23.000;   39.000
297.112;  -38.300; -443.000; -504.000
297.251;  -92.600; -815.000; -755.000
297.389;  -30.825; -576.000; -438.000
297.527;   -9.750; -145.000;  -83.000
297.666;  -59.150; -486.000; -438.000
297.804;  -63.525; -404.000; -264.000
297.942;  -23.525; -136.000; -161.000
298.081;  -28.100; -183.000;   63.000
298.219;   12.975;  -17.000;  -19.000
298.357;  -16.475; -144.000;  -71.000
298.495;  -59.750; -810.000; -812.000
298.634;    5.500;  245.000;  219.000
298.772;  -22.375; -220.000; -338.000
298.910;  -55.400; -309.000; -182.000
299.048;  -21.925; -130.000; -153.000
299.187;  -47.600; -350.000; -250.000
299.325;    1.275;   52.000;  122.000
299.463;  -53.850; -389.000; -299.000
299.601;  -10.300; -327.000; -271.000
299.739; -121.650; -908.000; -883.000
299.877;  -77.575; -791.000; -703.000
300.016;  -86.200;-1095.000; -935.000
300.154;   39.625;  -19.000; -161.000
300.292;  -35.675; -428.000; -348.000
300.430;  -16.875; -408.000; -291.000
300.568; -129.975; -940.000; -874.000
300.706;  -53.075; -366.000; -469.000
300.844; -118.775;-1108.000; -979.000
300.982;   64.100;  246.000;  282.000
301.120; -118.425; -965.000; -866.000
301.258; -100.325; -812.000; -705.000
301.396;  -12.525;  104.000;  -41.000
301.534;  -34.825; -218.000; -293.000
301.672;  -77.900; -664.000; -521.000
301.810;  -66.325; -613.000; -545.000
301.948;   16.525;   53.000;  149.000
302.086;  203.600; -250.000;  -32.000
302.224;  235.950; -610.000; -585.000
302.362;  -63.750; -558.000; -622.000
302.500;  -99.750; -923.000; -893.000
302.638;   31.175;  128.000;  245.000
302.776;  -38.600; -352.000; -408.000
302.913;   21.900;  447.000;  236.000
303.051;  -22.725;  -86.000;  -23.000
303.189;   -2.050;   90.000;  118.000
303.327;  -43.475; -341.000; -256.000
303.465;  -80.700; -832.000; -588.000
303.603;  -96.825; -805.000; -604.000
303.740;   57.225;  417.000;  241.000
303.878;  -73.125; -800.000; -759.000
304.016;  -99.550; -915.000; -790.000
304.154; -135.725;-1123.000;-1152.000
304.291;  -66.675; -505.000; -554.000
304.429;  -14.150;  102.000;   74.000
304.567; -124.525; -908.000; -893.000
304.705;  -50.850; -408.000; -515.000
304.842;  -25.875; -616.000; -540.000
304.980;   20.475;  215.000;   35.000
305.118;  -10.175; -367.000; -365.000
305.255; -104.950; -945.000; -927.000
305.393;   34.100;  178.000;  239.000
305.531; -128.975;-1173.000; -956.000
305.668;  -77.200; -663.000; -582.000
305.806;   -2.225; -358.000; -439.000
305.943;  -22.375; -629.000; -637.000
306.081;   -7.275; -378.000; -267.000
306.219; -106.125; -863.000; -748.000
306.356;    3.250;  158.000;   27.000
306.494;  108.000;  981.000;  761.000
306.631;   14.800;  -11.000;  -55.000
306.769;  -23.125; -613.000; -485.000
306.906;  -28.950; -284.000; -258.000
307.044;  -55.800; -473.000; -488.000
307.181;  -53.975; -410.000; -332.000
307.319;    8.125;  112.000;   87.000
307.456; -168.475;-1191.000;-1153.000
307.594; -111.375; -980.000; -727.000
307.731;  -29.800; -371.000; -164.000
307.868;   -4.500;  -15.000;   20.000
308.006; -126.375; -961.000; -847.000
308.143;  -64.700; -618.000; -330.000
308.281;   39.150;  -37.000; -254.000
308.418;  -58.650; -748.000; -640.000
308.555;  -66.375; -400.000; -250.000
308.693;  -75.475; -577.000; -573.000
308.830;  -97.200; -712.000; -657.000
308.967;  -20.125; -215.000;  -95.000
309.105;  -20.950; -507.000; -396.000
309.242;  -10.675; -468.000; -367.000
309.379;   43.950; -577.000; -655.000
309.517;  -96.250; -936.000; -948.000
309.654; -102.200; -910.000; -734.000
309.791;  -72.700; -662.000; -580.000
309.928; -109.675; -977.000; -914.000
310.065;  123.875;  819.000;  697.000
310.203;  -75.725; -825.000; -850.000
310.340;  -27.050; -465.000; -321.000
310.477;  -65.800; -412.000; -516.000
310.614;  -58.775; -383.000; -473.000
310.751;  -62.500; -427.000; -518.000
310.889;  -13.700;    1.000;   11.000
311.026; -127.275;-1161.000; -939.000
311.163;  -44.525; -386.000; -380.000
311.300;  -61.575; -512.000; -479.000
311.437;  -85.200; -658.000; -619.000
311.574; -151.500;-1226.000; -985.000
311.711;  -54.500; -595.000; -433.000
311.848;  -26.525; -380.000; -388.000
311.985;   11.325;  270.000;   93.000
312.122;  -98.200; -932.000; -762.000
312.259; -105.100; -941.000; -994.000
312.396;  -70.700; -508.000; -551.000
312.533;  -79.625; -812.000; -790.000
312.670; -139.500;-1070.000; -898.000
312.807;  -28.575; -352.000; -367.000
312.944;  -46.400; -513.000; -611.000
313.081;  -19.550; -150.000; -415.000
313.218;  -93.900;-1111.000; -867.000
313.355;   -7.600; -531.000; -449.000
313.492;  -21.150; -455.000; -292.000
313.629;  112.775;  815.000;  735.000
313.766; -144.075;-1176.000;-1008.000
313.902;   -1.775; -186.000;   21.000
314.039;  -42.075; -372.000; -289.000
314.176;   36.850;  286.000;  192.000
314.313;  -60.400; -569.000; -473.000
314.450;  -81.750; -788.000; -684.000
314.587;  -56.400; -468.000; -480.000
314.723;   17.100;  -78.000;  130.000
314.860;   38.100;  318.000;  332.000
314.997;   33.950;  223.000;  142.000
315.134;  -33.825; -385.000; -368.000
315.270;  -32.250; -480.000; -496.000
315.407; -112.800;-1094.000; -967.000
315.544;  -36.700; -657.000; -538.000
315.681;  -53.125; -681.000; -565.000
315.817;   43.000; -133.000; -176.000
315.954;   35.450; -613.000; -392.000
316.091; -123.425;-1045.000;-1023.000
316.227;  -16.000;  -71.000; -179.000
316.364;  -10.575;   23.000;    6.000
316.500;  -49.575; -113.000; -300.000
316.637;  -48.850; -181.000; -302.000
316.774;  -82.450; -625.000; -358.000
316.910;  -91.550; -598.000; -629.000
317.047;  -70.325; -487.000; -351.000
317.183;  -61.600; -435.000; -566.000
317.320;   36.250; -367.000; -321.000
317.456;  -38.300; -733.000; -805.000
317.593;  -90.375; -598.000; -641.000
317.729;    5.225;  168.000;  -67.000
317.866; -185.775;-1434.000;-1285.000
318.002;  -97.475; -708.000; -948.000
318.139; -102.700; -883.000; -867.000
318.275; -114.375;-1003.000; -738.000
318.412;  -61.425; -517.000; -336.000
318.548;  -86.100; -751.000; -720.000
318.685; -116.100; -985.000; -888.000
318.821;  -71.225; -762.000; -735.000
318.957;  -21.675;   34.000;  -23.000
319.094;   29.225;  297.000;  154.000
319.230;  -88.825; -756.000; -742.000
319.367;   21.800; -471.000; -520.000
319.503;  -24.425; -538.000; -436.000
319.639;  -96.075; -877.000; -793.000
319.775;  -84.350; -750.000; -685.000
319.912;  -66.500; -424.000; -519.000
320.048; -100.150;-1184.000;-1184.000
320.184;   90.575;   59.000;   70.000
320.321;  -46.025; -497.000; -467.000
320.457;   68.750;  475.000;  662.000
320.593;  -74.900; -375.000; -382.000
320.729;  -91.800; -732.000; -734.000
320.866;  -64.900; -577.000; -635.000
321.002;  -92.125; -759.000; -809.000
321.138;  -33.350; -135.000; -211.000
321.274;   19.425; -148.000; -115.000
321.410;  -50.975; -585.000; -353.000
321.546;  -99.475;-1011.000; -911.000
321.683;   24.150;  400.000;  185.000
321.819;  -24.175;  -48.000; -117.000
321.955; -128.100; -743.000; -722.000
322.091;  -70.200; -585.000; -540.000
322.227;  -47.775; -382.000; -202.000
322.363;  -45.750; -320.000; -215.000
322.499;  -69.025; -343.000; -331.000
322.635;   98.175;  636.000;  443.000
322.771;  -17.625; -139.000;   12.000
322.907;   52.750;  129.000;  327.000
323.043;  -52.200; -115.000; -206.000
323.179;  -41.850; -394.000; -363.000
323.315;  -54.200; -401.000; -371.000
323.451;   12.125; -328.000; -236.000
323.587;   47.700;  -60.000;  -77.000
323.723;  -43.050; -682.000; -601.000
323.859;  -31.075; -258.000;  -76.000
323.995;  -57.100; -467.000; -409.000
324.131; -127.825; -967.000; -892.000
324.267;  -46.050; -254.000; -276.000
324.402; -131.775; -960.000; -983.000
324.538;  -36.200; -279.000; -104.000
324.674;    3.250;  164.000;   77.000
324.810;   39.575;  226.000;  308.000
324.946;  -43.150; -810.000; -658.000
325.082;  -81.625; -568.000; -475.000
325.217;  -23.625;  -62.000;   16.000
325.353; -110.125; -764.000; -659.000
325.489;  -92.550; -540.000; -506.000
325.625;  -82.475; -579.000; -525.000
325.760;   64.300;  517.000;  376.000
325.896;   15.750; -515.000; -702.000
326.032;  -40.550; -403.000; -352.000
326.168;  -63.800; -462.000; -369.000
326.303;  -54.475; -352.000; -461.000
326.439;  -19.600; -336.000; -276.000
326.575;   -5.475; -190.000;  -29.000
326.710;  -14.575; -156.000;  -30.000
326.846;  -10.525;  146.000;  103.000
326.982;  -94.975; -530.000; -548.000
327.117;  -72.000; -481.000; -442.000
327.253;  -87.050; -745.000; -742.000
327.388; -155.750;-1137.000;-1153.000
327.524;  -81.450; -811.000; -578.000
327.659;  -27.325;  -58.000;  -22.000
327.795;  -21.225;   69.000;   45.000
327.931;  -72.875; -723.000; -499.000
328.066;  -34.950; -417.000; -276.000
328.202;  -25.775;   12.000; -129.000
328.337;   81.150;  957.000;  713.000
328.473;   41.350;  -12.000;  -74.000
328.608;  -17.025; -256.000; -267.000
328.743;  -99.350; -799.000; -664.000
328.879;   15.525;  214.000;  114.000
329.014;  -30.400; -102.000; -122.000
329.150;  -88.175; -358.000; -483.000
329.285;  -81.150; -465.000; -466.000
329.421;  -48.725; -548.000; -246.000
329.556;  -17.750;  -36.000;   85.000
329.691;  -95.225; -633.000; -615.000
329.827;  -88.000; -626.000; -480.000
329.962;  -42.525;  131.000; -301.000
330.097;  -73.550; -673.000; -585.000
330.233;  -58.500; -410.000; -223.000
330.368; -117.400; -839.000; -628.000
330.503;  -13.925;    3.000;   98.000
330.638;  -11.100;  -93.000; -125.000
330.774;  -88.950; -609.000; -530.000
330.909;  -56.000; -434.000; -244.000
331.044; -106.650; -714.000; -708.000
331.179; -157.725;-1217.000;-1109.000
331.315;   -6.750;   77.000;   20.000
331.450;   11.775;  157.000;  285.000
331.585;  -85.075; -805.000; -706.000
331.720;  -91.925; -510.000; -460.000
331.855;   -4.700;  -35.000; -102.000
331.990;  419.400;   62.000;  138.000
332.126;  228.550; -110.000;   71.000
332.261;   11.700; -379.000; -265.000
332.396;   14.900; -135.000; -242.000
332.531;  -60.900;-1074.000;-1031.000
332.666;   92.050; -519.000; -363.000
332.801;  -78.950; -726.000; -807.000
332.936;   -4.800; -192.000; -122.000
333.071; -120.650; -870.000; -817.000
333.206;   16.675;  307.000;  379.000
333.341;   30.000;  344.000;  418.000
333.476;  -94.900; -627.000; -623.000
333.611;  -25.275; -251.000; -173.000
333.746;  -52.975; -381.000; -464.000
333.881; -105.850; -973.000; -935.000
334.016; -121.925; -936.000; -917.000
334.151; -123.250; -746.000; -702.000
334.286;    1.125;  152.000;  186.000
334.421;  -19.700; -125.000; -178.000
334.556;  -66.925; -611.000; -567.000
334.690;  -95.550; -631.000; -577.000
334.825;   42.000;  381.000;   83.000
334.960;  -54.000; -285.000; -413.000
335.095;   16.250;  135.000;  -91.000
335.230;  -96.425; -722.000; -738.000
335.365; -134.575;-1084.000; -990.000
335.499; -118.625;-1108.000;-1037.000
335.634;   18.825;    9.000;  534.000
335.769;  -91.325; -755.000; -720.000
335.904;  -51.325; -603.000; -561.000
336.038;  -32.325; -735.000; -657.000
336.173; -103.350;-1206.000;-1194.000
336.308;    9.025; -116.000; -189.000
336.443;   62.675; -544.000; -634.000
336.577;  -43.925; -936.000; -787.000
336.712;   57.350;   -4.000;  -12.000
336.847;  -22.125; -724.000; -607.000
336.981;   63.575; -272.000; -208.000
337.116;  299.900;  615.000;  501.000
337.250;  106.550; -434.000; -421.000
337.385;  486.900; -297.000; -208.000
337.520;  219.800; -632.000; -603.000
337.654;  -35.600; -215.000; -126.000
337.789; -127.875; -989.000; -933.000
337.923;  -40.200; -104.000; -205.000
338.058; -108.125; -673.000; -738.000
338.192;  -50.100; -611.000; -488.000
338.327;   -5.200;  -18.000; -155.000
338.461;  -67.350; -299.000; -469.000
338.596;  -82.175; -780.000; -638.000
338.730;  -95.075; -767.000; -803.000
338.865;  152.175;  -46.000; -140.000
338.999;    4.375; -846.000; -702.000
339.134;   20.100; -634.000; -536.000
339.268;   33.875; -741.000; -603.000
339.403;  570.675; -740.000; -775.000
339.537;  269.500; -894.000; -820.000
339.671;  -93.250; -829.000; -813.000
339.806;  -32.175; -556.000; -512.000
339.940;   47.425; -261.000; -235.000
340.074; -101.425; -685.000; -510.000
340.209;  -57.450; -351.000; -230.000
340.343; -100.900; -517.000; -573.000
340.477;  127.575;  998.000; 1036.000
340.612;   12.425;-1033.000; -900.000
340.746;  244.550; -199.000; -243.000
340.880;  -79.475; -924.000; -785.000
341.014;  -35.300;  -45.000; -154.000
341.149; -109.350; -756.000; -718.000
341.283; -108.675; -839.000; -754.000
341.417; -136.400;-1124.000; -938.000
341.551;  -37.450; -768.000; -708.000
341.685;  -60.050; -633.000; -611.000
341.820;  -38.100; -562.000; -493.000
341.954;  -43.925; -218.000; -349.000
342.088; -135.100;-1102.000;-1019.000
342.222;   39.125;  565.000;  618.000
342.356;  -85.275; -395.000; -335.000
342.490; -122.525; -880.000; -841.000
342.624;  -71.050; -339.000; -242.000
342.758;  -54.525; -364.000; -312.000
342.892;  -93.800; -710.000; -585.000
343.026;  -35.350;  -58.000; -116.000
343.160;  -55.300; -426.000; -376.000
343.294;  -82.950; -474.000; -337.000
343.428;  -70.225; -488.000; -448.000
343.562;  -26.100; -172.000;  -23.000
343.696;  -58.025; -385.000; -314.000
343.830;  -50.125; -362.000; -356.000
343.964;  -23.800; -231.000; -168.000
344.098;  310.425;  199.000;   70.000
344.232;  260.775; -266.000; -127.000
344.366;   79.575; -567.000; -453.000
344.500;  -33.325; -665.000; -744.000
344.634;  -37.900; -324.000; -164.000
344.768;  -68.425; -531.000; -341.000
344.902;    8.750;  278.000;  256.000
345.035;  -75.975; -556.000; -496.000
345.169; -135.450; -933.000; -656.000
345.303;  -56.525; -308.000; -482.000
345.437; -102.850; -826.000; -717.000
345.571;  -68.450; -675.000; -594.000
345.704;  -58.775; -309.000; -532.000
345.838;  -32.750; -331.000; -284.000
345.972;  -59.175; -543.000; -495.000
346.106;  242.750; -179.000; -190.000
346.239;  490.375; -312.000; -243.000
346.373;  -13.550; -343.000; -302.000
346.507; -131.825; -950.000; -962.000
346.640;   34.550;  -30.000;   13.000
346.774;  -80.675; -650.000; -797.000
346.908;  -27.175; -138.000;  -11.000
347.041; -105.075; -646.000; -593.000
347.175;   -1.925;  259.000;   27.000
347.309; -106.650; -698.000; -628.000
347.442; -112.425; -883.000; -732.000
347.576;  112.500;  670.000;  668.000
347.709;   39.725; -123.000;  -52.000
347.843; -114.900; -933.000; -825.000
347.976;   14.650;  235.000;  294.000
348.110; -180.600;-1268.000;-1186.000
348.243; -113.850; -679.000; -772.000
348.377;   12.450;  -26.000;   60.000
348.510;   35.575;  403.000;  540.000
348.644;  -48.725;  -37.000; -159.000
348.777;    3.075;  180.000;  191.000
348.911;  -55.050; -142.000; -112.000
349.044;   81.000;  471.000;  448.000
349.178;  -30.850;-1069.000;-1006.000
349.311;  103.650;  141.000;  255.000
349.444;   45.050; -927.000; -813.000
349.578;  -33.950; -347.000; -200.000
349.711; -125.500; -959.000; -862.000
349.845;  -63.725; -661.000; -591.000
349.978; -161.200;-1224.000;-1137.000
350.111;  -81.375; -546.000; -612.000
350.244; -108.050; -596.000; -700.000
350.378;  -55.875; -392.000; -393.000
350.511;  -85.800; -393.000; -426.000
350.644;  -95.450; -808.000; -806.000
350.778;   19.550;  168.000;  104.000
350.911;  -10.325;  134.000;  140.000
351.044; -102.150; -685.000; -615.000
351.177;  -39.325; -321.000; -281.000
351.310;  -32.575;    3.000; -131.000
351.444; -105.050; -888.000; -788.000
351.577;   41.750;  140.000;   90.000
351.710;   75.250;  593.000;  417.000
351.843;  -35.750; -165.000;  -77.000
351.976;  -11.950;  149.000;  -79.000
352.109;  -97.750; -621.000; -612.000
352.242;  -62.025; -464.000; -419.000
352.376;  -86.875; -580.000; -636.000
352.509;   -6.425; -437.000; -356.000
352.642;  -79.425; -654.000; -604.000
352.775;  -12.300; -141.000;  -98.000
352.908; -117.325; -933.000; -904.000
353.041; -115.150; -814.000; -824.000
353.174;  -76.500; -551.000; -424.000
353.307;  -95.150; -753.000; -764.000
353.440;   54.050;  541.000;  453.000
353.573; -111.225; -957.000;-1008.000
353.706;  -40.950; -384.000; -558.000
353.839;  -25.250; -264.000; -220.000
353.971;  -90.675; -657.000; -512.000
354.104; -101.600; -896.000; -835.000
354.237;  -87.875; -627.000; -662.000
354.370;  -96.225; -846.000; -879.000
354.503; -169.850;-1231.000;-1308.000
354.636;  -19.900; -529.000; -348.000
354.769; -125.225; -937.000; -860.000
354.902;  -23.075; -230.000; -139.000
355.034;   -3.025; -164.000; -220.000
355.167;  -12.100; -262.000; -162.000
355.300;  -64.200;-1061.000; -880.000
355.433; 1448.600;  -71.000;  -14.000
355.565; 2289.025; -402.000; -384.000
355.698;  600.350; -356.000; -296.000
355.831;   -1.125; -882.000; -801.000
355.964;    7.550; -285.000; -170.000
356.096;  -79.225; -856.000; -843.000
356.229;   -5.900; -523.000; -530.000
356.362;  526.325; -373.000; -266.000
356.494;  937.300; -229.000; -162.000
356.627;  330.325;  269.000;  377.000
356.760;  897.875;  120.000;   53.000
356.892; 1530.175; -286.000; -601.000
357.025;  357.075;  403.000;  389.000
357.157;  250.850; -167.000; -179.000
357.290; 1207.625; -856.000; -713.000
357.423;  373.325; -667.000; -556.000
357.555;   95.000; -217.000; -228.000
357.688;  137.025; -483.000; -364.000
357.820;  192.200; -870.000; -877.000
357.953; 1530.050; -563.000; -589.000
358.085;  231.950; -632.000; -612.000
358.218;  127.900;-1131.000; -932.000
358.350;   42.300;  -58.000;  312.000
358.483; -161.750;-1300.000;-1187.000
358.615; -137.325;-1182.000;-1078.000
358.747; -148.100;-1187.000;-1058.000
358.880;  -56.450; -810.000; -744.000
359.012;  -35.700; -376.000; -202.000
359.145;  -56.900; -480.000; -511.000
359.277;  -53.850; -962.000; -913.000
359.409; 1292.900;  536.000;  231.000
359.542;  290.850; -738.000; -688.000
359.674;    4.325;   46.000;   13.000
359.806;  -80.050; -565.000; -438.000
359.939;  -51.475; -617.000; -516.000
360.071;   37.550; -583.000; -579.000
360.203;  -21.875; -411.000; -364.000
360.335;   33.875;  164.000;  -16.000
360.468;   89.475; -249.000; -307.000
360.600; 1342.525; -547.000; -454.000
360.732; 4290.700; -546.000; -423.000
360.864;  662.725;-1216.000;-1044.000
360.996;   77.200; -516.000; -554.000
361.129;  -31.675; -389.000; -598.000
361.261;   -9.875;  110.000; -113.000
361.393;  -55.675; -252.000; -214.000
361.525;   -2.950;   94.000;  244.000
361.657; -100.825; -821.000; -703.000
361.789;  -34.525; -139.000; -155.000
361.921;  -41.450; -642.000; -593.000
362.053;   85.125;  524.000;  541.000
362.185;    1.425;  288.000;   72.000
362.318; -121.425; -709.000; -705.000
362.450;   44.925;  294.000;  444.000
362.582;  -83.300; -913.000; -870.000
362.714;  -63.925; -353.000; -332.000
362.846;  -79.500; -606.000; -490.000
362.978; -137.250; -941.000; -811.000
363.109;  -26.050; -161.000; -260.000
363.241;  140.825; -739.000; -749.000
363.373;  616.950; -649.000; -564.000
363.505; 1044.275; -186.000;  -91.000
363.637;  247.150; -787.000; -601.000
363.769; -133.025;-1067.000;-1080.000
363.901;  -97.800; -596.000; -654.000
364.033; -146.350;-1103.000;-1062.000
364.165;  -35.575; -283.000; -283.000
364.296;   86.050; -316.000; -177.000
364.428;  204.150;-1344.000;-1220.000
364.560;  -53.825; -679.000; -661.000
364.692;  -82.975; -738.000; -835.000
364.824;   -9.425; -588.000; -456.000
364.955;  513.475; -402.000; -564.000
365.087; 1707.375;-1097.000; -852.000
365.219;  106.950; -686.000; -816.000
365.351;  -71.575; -526.000; -572.000
365.482;   14.400;  300.000;  240.000
365.614;  -60.175; -402.000; -314.000
365.746; -101.400; -729.000; -752.000
365.877;  -81.125; -706.000; -672.000
366.009;  437.900;  -35.000;  -62.000
366.141;  -20.600;-1249.000;-1134.000
366.272; -104.875; -803.000; -719.000
366.404; -111.900;-1005.000; -874.000
366.535;  -13.450; -139.000;  -12.000
366.667; -100.750; -644.000; -649.000
366.799;   18.900;  353.000;  203.000
366.930; -124.225; -862.000; -996.000
367.062;  189.675; -639.000; -613.000
367.193;  356.525; -872.000; -842.000
367.325;  -41.825; -580.000; -684.000
367.456;    6.725; -246.000;   31.000
367.588;  272.950; -371.000; -318.000
367.719;   51.100;  -44.000;  -45.000
367.851;  -49.075; -222.000; -241.000
367.982; -116.025; -875.000; -732.000
368.113;  -15.150; -475.000; -358.000
368.245; -137.375; -960.000; -841.000
368.376;  -52.500; -254.000; -302.000
368.508;  -70.100; -188.000; -263.000
368.639; -152.200;-1166.000;-1034.000
368.770;  -88.600; -670.000; -589.000
368.902; -113.600; -836.000; -926.000
369.033; -109.475; -906.000; -855.000
369.164;  -34.325; -720.000; -653.000
369.296;  -97.725; -452.000; -601.000
369.427;  -35.425; -209.000; -144.000
369.558;  -74.300; -593.000; -377.000
369.689;  -66.325; -721.000; -569.000
369.821; -140.300; -951.000; -845.000
369.952;  -19.550;   42.000; -108.000
370.083;  -51.900; -229.000; -108.000
370.214; -104.125; -735.000; -650.000
370.345;  -22.725;   65.000;   81.000
370.477; -106.700; -810.000; -790.000
370.608;   21.550; -328.000; -264.000
370.739; -121.025;-1233.000;-1292.000
370.870; -109.000;-1102.000; -923.000
371.001;  -15.325; -378.000; -467.000
371.132;  -93.275; -754.000; -735.000
371.263;  -26.350;  -42.000; -148.000
371.394; -129.775; -841.000; -748.000
371.525;   16.200;  345.000;  225.000
371.657; -112.625; -808.000; -670.000
371.788;   26.775;  103.000;  199.000
371.919;   12.000; -384.000; -304.000
372.050; 1314.450;  -91.000; -156.000
372.181;  389.500; -188.000; -294.000
372.311;  100.725;   42.000; -127.000
372.442;  -42.350; -457.000; -451.000
372.573;  -48.175; -444.000; -340.000
372.704; -143.800;-1008.000; -980.000
372.835;  -20.675; -228.000; -289.000
372.966;  -84.000; -646.000; -554.000
373.097; -105.750; -575.000; -711.000
373.228;  -89.100; -717.000; -542.000
373.359;  -42.425; -824.000; -536.000
373.490;  190.800; -881.000; -727.000
373.620;  266.425;-1001.000; -803.000
373.751;  562.225; -332.000; -396.000
373.882;  219.600; -663.000; -733.000
374.013;  -20.125; -449.000; -262.000
374.143;  -83.575; -581.000; -659.000
374.274; -141.075; -987.000; -908.000
374.405;   65.350; -388.000; -276.000
374.536;  123.750; -526.000; -387.000
374.666;  295.475; -759.000; -807.000
374.797;   -1.375; -817.000; -868.000
374.928;  185.900; -710.000; -560.000
375.058;  211.850; -535.000; -500.000
375.189;    4.900;  -59.000;  -93.000
375.320; -132.025; -928.000;-1034.000
375.450;  -45.000; -625.000; -616.000
375.581;  -38.400; -526.000; -436.000
375.712;  -46.250; -574.000; -250.000
375.842;   17.900; -438.000; -415.000
375.973;  -21.875; -554.000; -513.000
376.103; -110.050; -665.000; -648.000
376.234;  -99.950; -531.000; -552.000
376.364; -116.925; -944.000; -867.000
376.495;  133.250;  925.000;  529.000
376.625;  -43.825; -472.000; -485.000
376.756;  -53.375; -709.000; -678.000
376.886; -135.125;-1178.000;-1026.000
377.017;  151.275;-1048.000;-1061.000
377.147;  661.600; -786.000; -782.000
377.278;   87.900;  174.000;  228.000
377.408; -133.900; -801.000; -815.000
377.538; -106.925; -707.000; -693.000
377.669;  -76.550; -537.000; -613.000
377.799; -106.425; -645.000; -635.000
377.929;  -86.100; -610.000; -428.000
378.060; -119.950; -781.000; -847.000
378.190;  -29.150; -726.000; -531.000
378.320;  -46.575; -401.000; -406.000
378.451;  -15.425; -131.000;  -22.000
378.581;  -29.050;  -67.000; -110.000
378.711;   85.925; 1035.000;  866.000
378.841;  -66.500; -533.000; -675.000
378.972; -112.575; -871.000; -751.000
379.102;  -71.225; -652.000; -579.000
379.232;  -38.375; -126.000;  -73.000
379.362; -132.025;-1001.000; -885.000
379.492;  -49.000; -373.000; -424.000
379.623;   44.175;    0.000;  111.000
379.753; -106.100;-1107.000; -974.000
379.883;   84.075;   59.000;  156.000
380.013;  -91.650;-1081.000;-1017.000
380.143; -113.950;-1097.000;-1056.000
380.273; -105.900; -985.000; -861.000
380.403;    9.400; -344.000; -257.000
380.533;  -38.525; -651.000; -664.000
380.663;   13.400;  173.000;  128.000
380.793; -157.800;-1027.000;-1074.000
380.923;  -42.525; -103.000;  -34.000
381.053; -107.050; -613.000; -623.000
381.183;  -51.050; -106.000; -248.000
381.313;  -65.800; -656.000; -470.000
381.443;  -58.325; -692.000; -473.000
381.573;  -34.825; -402.000; -409.000
381.703;  -98.450;-1249.000;-1095.000
381.833; -180.650;-1454.000;-1336.000
381.963;   32.625; -134.000;  -87.000
382.093;  401.200; -925.000; -909.000
382.223;  101.975; -713.000; -602.000
382.353;  -88.950; -801.000; -608.000
382.482;    0.275;-1091.000; -964.000
382.612;  195.100; -872.000; -644.000
382.742;   81.300; -695.000; -622.000
382.872;  -16.100; -565.000; -551.000
383.002;   22.725;  347.000; -132.000
383.131;  -34.800; -226.000; -160.000
383.261;  -45.575; -706.000; -768.000
383.391;  335.400; -552.000; -377.000
383.521; 5109.825;  451.000;  263.000
383.650; 1537.025; -947.000; -904.000
383.780;   47.075; -783.000; -656.000
383.910;  101.725;  880.000;  802.000
384.039;  -76.425; -794.000; -656.000
384.169;  -86.350;-1205.000;-1017.000
384.299; -101.550; -650.000; -662.000
384.428; -116.750; -764.000; -680.000
384.558;  -63.675; -308.000; -275.000
384.687;  -78.100; -414.000; -334.000
384.817;  -17.775;   75.000;   -2.000
384.947;  -35.775; -234.000; -141.000
385.076;  139.250;  982.000;  912.000
385.206;   58.400;  369.000;  480.000
385.335;  -80.400; -549.000; -417.000
385.465; -106.800; -655.000; -663.000
385.594;   14.475;  -53.000;  -44.000
385.724;   48.800; -868.000; -838.000
385.853;   -6.050; -296.000; -270.000
385.982;  359.025; -743.000; -787.000
386.112;  670.200;-1052.000; -871.000
386.241;    3.150; -307.000; -312.000
386.371;  -17.450; -174.000;  -87.000
386.500;  -51.825; -825.000; -789.000
386.629;  -11.000; -874.000; -817.000
386.759;   57.225;  -43.000;   68.000
386.888;  -31.225; -170.000; -250.000
387.017;  -93.750; -648.000; -620.000
387.147; -108.850; -771.000; -798.000
387.276;  -55.750; -410.000; -397.000
387.405;  -42.850; -398.000; -342.000
387.535;  -76.075; -452.000; -361.000
387.664;  -77.300; -692.000; -620.000
387.793;  -20.575; -198.000; -113.000
387.922;  158.675;  255.000;  200.000
388.052;  -54.850; -576.000; -423.000
388.181;  -60.100; -342.000; -472.000
388.310;  -93.625; -889.000; -710.000
388.439; -113.500; -749.000; -742.000
388.568;   38.725;  365.000;  244.000
388.697;  259.525; -756.000; -653.000
388.826;   -8.925; -768.000; -666.000
388.956;  -45.925; -285.000; -307.000
389.085;  -44.375; -347.000; -287.000
389.214; -106.650; -842.000; -872.000
389.343;  -77.200; -645.000; -413.000
389.472;  571.825;  126.000;  149.000
389.601;  643.950;   91.000;    0.000
389.730;  -37.725; -568.000; -687.000
389.859;   29.075;  226.000;   46.000
389.988;   33.450; -423.000; -408.000
390.117;   39.000; -168.000; -146.000
390.246;  -48.775; -331.000; -320.000
390.375;  -49.000; -673.000; -626.000
390.504;  -93.475; -703.000; -621.000
390.633; -134.750; -672.000; -726.000
390.761; -103.875; -732.000; -645.000
390.890;  -39.525;   -4.000; -130.000
391.019;  -74.000; -421.000; -441.000
391.148; -123.375; -826.000; -855.000
391.277;  -82.025; -576.000; -493.000
391.406; -110.100; -821.000; -805.000
391.534;   -1.775;  574.000; -301.000
391.663;  -93.650; -583.000; -645.000
391.792; -111.425; -673.000; -701.000
391.921;   -8.375;   -3.000;   15.000
392.050;    7.700; -287.000; -228.000
392.178; -129.400;-1206.000;-1061.000
392.307;  -31.425; -758.000; -712.000
392.436;  -53.525; -427.000; -641.000
392.564;   -9.950;  166.000;   -6.000
392.693; -119.425; -860.000; -682.000
392.822;   -3.925; -529.000; -534.000
392.950;  -45.950; -880.000; -714.000
393.079;   70.825; -188.000; -328.000
393.208;  -43.875; -488.000; -511.000
393.336;  -26.350; -170.000; -145.000
393.465;  -50.450; -317.000; -199.000
393.593;   -7.200;   62.000;   79.000
393.722; -144.775;-1121.000; -916.000
393.850;  -45.675; -188.000;  -61.000
393.979; -146.875; -926.000; -805.000
394.107;  -66.125; -517.000; -537.000
394.236;  -45.625; -570.000; -507.000
394.364;  106.125;  383.000;  206.000
394.493;   74.000; -911.000; -767.000
394.621;   -6.750; -955.000; -916.000
394.750; 1143.975; -873.000; -923.000
394.878; 4488.325; -247.000; -149.000
395.007; 6565.850; -721.000; -807.000
395.135;  573.475; -790.000; -721.000
395.263;  -42.850;-1038.000;-1040.000
395.392;    4.475;  -25.000; -107.000
395.520; -116.475; -818.000; -679.000
395.648; -126.375; -865.000; -915.000
395.777;  -65.225; -366.000; -405.000
395.905;  -83.225; -449.000; -564.000
396.033;  -16.725;  217.000;  172.000
396.162;  103.675; -399.000; -453.000
396.290;  122.400;  -17.000;   -2.000
396.418;  -53.000; -555.000; -514.000
396.546;  -94.050; -571.000; -466.000
396.674; -133.600; -850.000; -878.000
396.803;  -22.750;  -72.000;  -23.000
396.931;  -34.025; -179.000; -199.000
397.059; -124.425;-1026.000; -989.000
397.187; -136.175;-1026.000; -975.000
397.315; -146.550; -884.000; -649.000
397.443; -108.000; -592.000; -443.000
397.572; -102.625; -578.000; -424.000
397.700;  -99.550; -607.000; -614.000
397.828;  -43.675;  120.000;  -90.000
397.956;  -28.675; -508.000; -478.000
398.084;  -36.800; -767.000; -626.000
398.212;   12.750;  137.000;  124.000
398.340;  -18.875;  -56.000;  159.000
398.468;  -61.550; -390.000; -169.000
398.596; -137.075; -993.000; -953.000
398.724; -134.675; -762.000; -767.000
398.852; -148.075;-1024.000; -976.000
398.980;  -84.575; -560.000; -560.000
399.108;  -95.400; -982.000; -735.000
399.236;   -7.750;   13.000;    8.000
399.363;   -4.700;  222.000;  196.000
399.491;  -55.875; -404.000; -398.000
399.619; -118.025; -829.000; -800.000
399.747; -110.400; -859.000; -771.000
399.875;   34.300;  220.000;  234.000
400.003;  -71.950; -359.000; -284.000
400.130;  -87.400; -421.000; -341.000
400.258;  -39.550;  -83.000;   38.000
400.386;  -71.125; -352.000; -168.000
400.514;  -92.925; -526.000; -587.000
400.641; -140.350; -928.000; -802.000
400.769; -157.575; -979.000; -888.000
400.897; -133.725; -838.000; -793.000
401.025;  -38.400; -166.000; -152.000
401.152;   -7.125;  220.000;   38.000
401.280;  -91.625; -430.000; -429.000
401.408; -111.700; -712.000; -576.000
401.535; -119.875; -735.000; -758.000
401.663; -187.700;-1134.000;-1054.000
401.790; -102.725; -514.000; -525.000
401.918;   27.350;  436.000;  405.000
402.046;   -8.650;  134.000;  122.000
402.173;  -37.150;  -18.000;    7.000
402.301;  -83.550; -519.000; -397.000
402.428;   25.150;  528.000;  383.000
402.556; -152.375;-1188.000; -913.000
402.683;  -34.200;  -20.000;   -1.000
402.811;  -36.250;  -37.000; -206.000
402.938;  -25.325;   20.000;   27.000
403.066;   -5.975; -574.000; -558.000
403.193;   99.350;  299.000;  239.000
403.321;   52.750; -396.000; -574.000
403.448;  118.975;   83.000;   27.000
403.575;   46.125;  -90.000;  -46.000
403.703;  -95.725; -732.000; -557.000
403.830;  -56.325; -531.000; -496.000
403.957; -125.775;-1117.000;-1023.000
404.085;   29.975;  -61.000; -172.000
404.212;  103.425;  -50.000;   63.000
404.339;  427.275; -566.000; -306.000
404.467; 9034.400; -612.000; -524.000
404.594; 5560.100; -287.000; -227.000
404.721;  962.700; -869.000; -764.000
404.848;  110.225; -113.000; -202.000
404.976;  -94.350; -856.000; -783.000
405.103;    1.875;  -14.000;  -82.000
405.230;   -8.325;  190.000;  226.000
405.357;   56.200;  117.000;   44.000
405.484;  413.325;  -49.000;    5.000
405.612;  120.775; -548.000; -563.000
405.739;  -64.075; -488.000; -243.000
405.866;   76.850;  669.000;  385.000
405.993;  -56.775; -398.000; -102.000
406.120; -137.700; -801.000; -887.000
406.247;  -89.025; -323.000; -342.000
406.374;  112.850;  540.000;  629.000
406.501;  -77.600; -632.000; -702.000
406.628;  -98.925; -621.000; -589.000
406.755; -127.775; -803.000; -620.000
406.882;  -65.125; -228.000; -277.000
407.009; -119.775; -719.000; -628.000
407.136;  -50.725; -480.000; -401.000
407.263;  -51.600; -939.000; -829.000
407.390;  -92.200; -692.000; -614.000
407.517; -179.050;-1139.000;-1187.000
407.644;  -64.600; -332.000; -256.000
407.771;  -75.425; -249.000; -287.000
407.898;  -13.650;  168.000;  328.000
408.025;  -86.425; -421.000; -313.000
408.151;  -14.175;   82.000;  153.000
408.278;  -76.325; -267.000; -216.000
408.405; -131.075; -931.000; -899.000
408.532;  -84.750; -549.000; -542.000
408.659; -116.100; -677.000; -648.000
408.785; -198.775;-1298.000;-1170.000
408.912;  -57.400; -412.000; -296.000
409.039; -119.050; -610.000; -686.000
409.166; -108.850; -591.000; -555.000
409.292; -118.225; -571.000; -534.000
409.419; -103.325; -665.000; -649.000
409.546;  -76.850; -431.000; -192.000
409.672; -115.150; -713.000; -545.000
409.799;  -45.675;  -36.000;   34.000
409.926;  -37.575; -180.000; -179.000
410.052; -180.850;-1127.000;-1091.000
410.179;  -77.850; -368.000; -392.000
410.305;  -90.850; -375.000; -493.000
410.432;  -42.775; -220.000; -333.000
410.558;  -89.500; -305.000; -380.000
410.685;  -93.325; -688.000; -431.000
410.812; -115.050; -409.000; -588.000
410.938; -140.875; -964.000; -808.000
411.065; -112.300; -671.000; -645.000
411.191;  -44.575; -189.000; -174.000
411.317; -132.250; -823.000; -742.000
411.444;  -84.550; -317.000; -246.000
411.570;  -74.375; -339.000; -294.000
411.697; -132.275; -758.000; -752.000
411.823; -173.625; -989.000; -999.000
411.949;  -58.700;  -56.000;   17.000
412.076; -125.850; -539.000; -519.000
412.202; -122.100; -758.000; -757.000
412.329; -137.125; -798.000; -752.000
412.455; -121.500; -821.000; -657.000
412.581;  -27.625;  -15.000;  172.000
412.707;  -82.700; -540.000; -457.000
412.834;    8.125;  156.000;  219.000
412.960; -111.550; -785.000; -784.000
413.086; -114.650; -743.000; -701.000
413.212;   96.600;  604.000;  578.000
413.339;  -95.675; -685.000; -701.000
413.465;  -44.900; -364.000; -310.000
413.591; -120.050; -757.000; -474.000
413.717;  -51.400; -358.000; -366.000
413.843; -122.150; -839.000; -861.000
413.969;  -57.500;  -47.000; -292.000
414.096;  -98.800; -679.000; -679.000
414.222;  -19.125;  -33.000;   85.000
414.348;  -80.925; -652.000; -385.000
414.474;    3.300;   38.000;  -52.000
414.600;  -29.300; -126.000; -144.000
414.726;   -9.950;  -96.000;  -55.000
414.852;  -55.700; -365.000; -342.000
414.978;   42.400;  104.000;  -18.000
415.104;   60.950;   38.000;   80.000
415.230;   27.775; -329.000; -330.000
415.356;   68.950; -409.000; -514.000
415.482;  212.100;   13.000;  -35.000
415.608;  408.450; -247.000; -323.000
415.734; 1314.150;   67.000;   38.000
415.860;27579.075; -875.000; -767.000
415.986;22903.250; -685.000; -607.000
416.111; 2126.150; -798.000; -652.000
416.237;  464.325; -424.000; -571.000
416.363; 1684.525; -765.000; -733.000
416.489; 6776.000; -324.000; -251.000
416.615;  926.175; -707.000; -742.000
416.741;   61.925; -677.000; -784.000
416.866;  -54.625; -673.000; -736.000
416.992;  -99.750; -801.000; -818.000
417.118;  -34.300;  -41.000;  -80.000
417.244;  -74.125; -798.000; -531.000
417.369;  -71.100; -801.000; -612.000
417.495;  -13.900; -325.000; -254.000
417.621;  -85.425;-1015.000; -803.000
417.746;    7.425; -579.000; -572.000
417.872;   71.175; -254.000; -144.000
417.998;  114.150; -515.000; -530.000
418.123; 1542.025;-1073.000; -845.000
418.249; 8620.875; -512.000; -601.000
418.374; 1470.800; -916.000; -824.000
418.500;  234.225; -383.000; -482.000
418.626;  174.250;   70.000;  -59.000
418.751;  137.125; -549.000; -448.000
418.877;  304.725; -637.000; -643.000
419.002; 2566.325; -688.000; -560.000
419.128;19586.400; -930.000; -721.000
419.253; 5617.125; -967.000; -837.000
419.379;  788.225; -391.000; -338.000
419.504;  563.525;  325.000;  415.000
419.629;  840.900; -393.000; -212.000
419.755; 5334.800; -317.000; -254.000
419.880;34892.550;  -98.000;   67.000
420.006;17585.825; -280.000; -221.000
420.131;43820.775; -662.000; -775.000
420.256; 7103.175; -315.000; -316.000
420.382;  970.825; -665.000; -687.000
420.507;  180.700; -649.000; -778.000
420.632;   68.900; -337.000; -339.000
420.758;   58.650; -251.000; -425.000
420.883; -100.275; -876.000; -672.000
421.008; -101.025; -775.000; -619.000
421.133;  -83.025; -509.000; -467.000
421.259;  -55.325; -325.000; -259.000
421.384; -131.100; -834.000; -693.000
421.509; -120.750;-1052.000; -862.000
421.634;  192.975; -936.000; -820.000
421.759;   92.550; -359.000; -327.000
421.885; -105.350; -717.000; -656.000
422.010;  -88.575; -673.000; -542.000
422.135; -143.325; -695.000; -727.000
422.260;   13.550;  340.000;  280.000
422.385;  -39.450;   12.000;  -98.000
422.510;   -8.550;  151.000;  -26.000
422.635;   -8.400;  -87.000;  -43.000
422.760;   -3.200; -766.000; -791.000
422.885;   25.250;  -57.000;  -80.000
423.010;  -37.700; -112.000; -169.000
423.135;  -97.175; -481.000; -561.000
423.260;  -53.600; -150.000; -245.000
423.385;   16.200;  476.000;  222.000
423.510;    1.850;   71.000;  -22.000
423.635;    4.050;  133.000;   45.000
423.760;   44.150;  383.000;  328.000
423.885;   29.250;  336.000;  391.000
424.010;    0.925;  -68.000;  -13.000
424.135;  -25.500;    5.000;  -33.000
424.259;  -74.800; -654.000; -457.000
424.384;  -48.375; -279.000; -272.000
424.509;  -21.875; -260.000; -186.000
424.634;  -95.575; -761.000; -623.000
424.759;  -36.575; -688.000; -544.000
424.883;   -1.050; -506.000; -527.000
425.008;  211.425; -502.000; -410.000
425.133; 2879.800; -679.000; -653.000
425.258; 1569.600; -517.000; -381.000
425.382;  518.375; -867.000; -774.000
425.507; 1173.575; -487.000; -543.000
425.632;  388.725; -802.000; -663.000
425.756;  691.075; -256.000; -146.000
425.881;10141.800; -831.000; -857.000
426.006;31274.025; -604.000; -355.000
426.130; 5188.025; -696.000; -508.000
426.255;  688.750; -611.000; -491.000
426.379;  278.125; -189.000; -577.000
426.504;  496.325;  660.000;  544.000
426.629; 5700.375; -519.000; -466.000
426.753; 4495.300;   64.000;  -46.000
426.878;  576.025; -252.000; -288.000
427.002;  315.425; -651.000; -668.000
427.127; 2066.875;  -35.000; -158.000
427.251;17312.400;  372.000;  401.000
427.375; 5702.250; -191.000; -173.000
427.500; 1328.075; -616.000; -610.000
427.624;  414.850; -234.000; -400.000
427.749;   85.375; -216.000; -225.000
427.873;  -24.100; -499.000; -412.000
427.997;  -41.575; -222.000; -230.000
428.122;   56.725;  795.000;  703.000
428.246;   37.850;  433.000;  434.000
428.371; -142.800; -869.000; -773.000
428.495; -108.575; -624.000; -646.000
428.619;  -52.150; -186.000; -117.000
428.743;   11.325;   65.000;  132.000
428.868;  -77.125; -732.000; -643.000
428.992;  484.025; -219.000; -326.000
429.116;  196.325; -329.000; -357.000
429.240;  100.425;  419.000;  426.000
429.365;  -48.700; -454.000; -574.000
429.489;  -52.100; -638.000; -647.000
429.613;   18.625; -236.000; -177.000
429.737;   84.275; -563.000; -432.000
429.861;  375.650; -247.000; -133.000
429.985; 7925.350; -425.000; -305.000
430.109;10209.150; -770.000; -908.000
430.234; 1264.925;   76.000;  -50.000
430.358;  157.675; -250.000; -160.000
430.482;  -50.900; -672.000; -564.000
430.606;  -84.450; -655.000; -375.000
430.730;  -53.750; -437.000; -388.000
430.854;  -83.425; -909.000; -835.000
430.978;  -98.875; -795.000; -764.000
431.102;  -89.400; -499.000; -422.000
431.226; -123.025; -874.000; -815.000
431.350;   37.425;  345.000;  422.000
431.474;  -89.250; -661.000; -373.000
431.597; -163.375;-1060.000; -848.000
431.721;  -79.150; -276.000; -267.000
431.845; -130.225; -704.000; -472.000
431.969;  -81.175; -304.000; -349.000
432.093;  -90.850; -395.000; -317.000
432.217;  -31.800;   32.000;   82.000
432.341;  -83.375; -523.000; -518.000
432.464;  -15.850;   96.000;   40.000
432.588;  -18.775; -401.000; -329.000
432.712;   20.700;  -52.000;  -52.000
432.836;   51.700;  213.000;  263.000
432.959;    6.850; -372.000; -311.000
433.083;  157.200;   11.000;    2.000
433.207;  559.175;  285.000;  930.000
433.330; 7687.800; -391.000; -200.000
433.454;10728.750; -654.000; -638.000
433.578; 5908.200;  583.000;  278.000
433.701; 1263.400; -623.000; -675.000
433.825;  155.075; -292.000; -299.000
433.949;   41.025;   28.000;  -72.000
434.072;  -21.925; -410.000; -323.000
434.196;    1.925; -309.000; -117.000
434.319; 3600.325;25482.000;25124.000
434.443;  876.600; -656.000; -603.000
434.566; 4110.350;  281.000;   62.000
434.690;  894.325; -637.000; -383.000
434.813;  143.125; -251.000; -173.000
434.937;  -48.400; -569.000; -696.000
435.060;  -74.875; -423.000; -332.000
435.184;  -19.775; -492.000; -217.000
435.307;   20.250;  159.000;  102.000
435.431;  -30.450;  -40.000;   24.000
435.554;  -82.725; -399.000; -240.000
435.677;  -90.000; -350.000; -258.000
435.801;  -43.675;  -25.000;   49.000
435.924;  -38.350;    1.000;  -67.000
436.048; -149.825;-1019.000; -732.000
436.171;  -76.175; -240.000;  -66.000
436.294;  -19.250; -248.000; -229.000
436.417;  223.425; -963.000; -849.000
436.541;  -29.100; -814.000; -840.000
436.664;  -50.150; -242.000; -316.000
436.787;  -41.300;   13.000;  113.000
436.910; -115.475; -792.000; -422.000
437.034;  -18.475;  142.000;  143.000
437.157;   -5.600;  -11.000;    0.000
437.280;  -86.500; -392.000; -292.000
437.403; -138.275; -982.000; -869.000
437.526;   11.200; -903.000; -865.000
437.649;  459.725; -505.000; -332.000
437.772;   -0.225; -692.000; -540.000
437.896;   49.625;  700.000;  544.000
438.019; -112.625; -758.000; -503.000
438.142; -107.900; -596.000; -506.000
438.265; -125.875; -639.000; -670.000
438.388;   30.825; -520.000; -410.000
438.511;  -67.100; -597.000; -394.000
438.634;  -70.950; -247.000; -125.000
438.757; -147.700; -693.000; -619.000
438.880;  -60.325;  -34.000;  -57.000
439.003;  -92.425; -417.000; -437.000
439.126;  -72.475; -287.000; -167.000
439.248;  -71.500;  -98.000; -139.000
439.371;  -51.375;    9.000;  -53.000
439.494;    6.350;  510.000;  439.000
439.617;  -64.250;   65.000;  -88.000
439.740; -180.700; -968.000; -816.000
439.863; -132.975; -755.000; -595.000
439.986; -130.650; -476.000; -431.000
440.108;  -52.425; -161.000; -112.000
440.231; -157.775; -950.000; -836.000
440.354;  -64.450;  -64.000; -150.000
440.477; -103.225; -566.000; -542.000
440.599;  -85.050; -200.000; -225.000
440.722; -124.775; -709.000; -586.000
440.845;   47.900;  751.000;  928.000
440.968; -111.675; -415.000; -311.000
441.090;  -74.075; -199.000;  -33.000
441.213; -160.975;-1021.000; -825.000
441.336;  -60.050; -159.000;   -5.000
441.458;  -88.000; -549.000; -396.000
441.581; -110.150; -628.000; -629.000
441.703;  -79.650; -152.000;   13.000
441.826; -106.700; -557.000; -400.000
441.948;  -44.900;   56.000;   51.000
442.071;   14.225;  555.000;  424.000
442.193; -117.500; -531.000; -485.000
442.316;  -11.025;  152.000;   97.000
442.438;   78.600; -233.000;  -10.000
442.561;   70.650;  272.000;  262.000
442.683;   43.275; -809.000; -522.000
442.806;  246.550;   -8.000;   74.000
442.928; -101.025; -859.000; -604.000
443.051;  -90.875; -577.000; -373.000
443.173;  -85.625; -341.000; -339.000
443.295;  -99.750; -263.000; -371.000
443.418;  -82.600; -321.000;  -29.000
443.540;  -51.800; -106.000;   -4.000
443.662; -108.200; -563.000; -465.000
443.785;  -14.975;  335.000;  199.000
443.907; -105.650; -362.000; -208.000
444.029; -123.750; -767.000; -494.000
444.152; -151.900; -644.000; -554.000
444.274;  -44.300;  -18.000;  -24.000
444.396; -119.025; -461.000; -221.000
444.518; -135.575; -691.000; -454.000
444.640; -101.225; -268.000; -111.000
444.763;  -23.500;  388.000;  249.000
444.885; -124.925; -432.000; -392.000
445.007;  -46.100;   35.000;   86.000
445.129; -119.150; -610.000; -515.000
445.251; -117.725; -372.000; -439.000
445.373; -138.875; -537.000; -386.000
445.495;  -10.325;  242.000;  350.000
445.617;   45.250;  853.000;  753.000
445.739;  -66.625; -215.000;  -97.000
445.861;  -60.250; -245.000; -112.000
445.984;  -53.950; -267.000; -101.000
446.105;  -23.500; -418.000; -251.000
446.227;  107.300; -176.000;  -19.000
446.349;  -87.175; -358.000; -249.000
446.471; -123.850; -615.000; -448.000
446.593;  -99.675; -316.000;   19.000
446.715;  -44.575;  -67.000;   41.000
446.837;   62.700;  697.000;  832.000
446.959; -118.375; -457.000; -478.000
447.081; -132.600; -628.000; -518.000
447.203;   38.500;  862.000;  834.000
447.325;  -78.150; -270.000;   42.000
447.446;  -16.250;  286.000;  530.000
447.568; -158.325; -921.000; -803.000
447.690;  -92.450; -236.000; -245.000
447.812; -148.825; -798.000; -519.000
447.933;  -22.925;  155.000;  127.000
448.055;  -69.650; -306.000; -261.000
448.177;   22.700;   31.000;   79.000
448.299;  -99.050; -935.000; -727.000
448.420;  -15.375;  -25.000;  159.000
448.542;  -40.950;   -3.000;   33.000
448.664;  -19.075;  109.000;  322.000
448.785;  -38.650;  265.000;   83.000
448.907; -110.525; -614.000; -353.000
449.028; -121.750; -771.000; -471.000
449.150;   30.825;  492.000;  589.000
449.272; -171.500;-1044.000; -913.000
449.393;   16.575;  612.000;  694.000
449.515; -142.225; -634.000; -581.000
449.636;  -65.625; -264.000; -155.000
449.758;   38.450;  763.000;  622.000
449.879;  -87.775; -498.000; -396.000
450.001;  -84.050; -149.000;  -49.000
450.122;  -35.375;  -95.000;  162.000
450.244;  -22.250;   37.000;  364.000
450.365;  -68.525; -495.000; -301.000
450.486;  -11.800;   80.000;  268.000
450.608;   38.775;  393.000;  326.000
450.729;  115.775;  578.000;  645.000
450.850;  104.400; -574.000; -466.000
450.972; 1226.550; -552.000; -389.000
451.093; 8057.700;  190.000;  588.000
451.214; 4174.375; -516.000; -337.000
451.336;  719.750;  773.000;  579.000
451.457;  107.150;  264.000;  393.000
451.578;  -40.950; -118.000;  -74.000
451.699;  -96.500; -546.000; -540.000
451.821;  -70.600; -284.000;  -50.000
451.942;   -3.950;  278.000;  285.000
452.063;   42.500;  228.000;  419.000
452.184;  821.125;  -54.000;  -49.000
452.305; 1780.650;  103.000;  170.000
452.427;  340.400; -549.000; -301.000
452.548;   12.225;   23.000;   79.000
452.669;  -71.500; -257.000;  -89.000
452.790;  -55.050;    3.000;  -18.000
452.911;  -15.650;  195.000;  259.000
453.032;  -79.000; -289.000;  -60.000
453.153;  -61.800;  -29.000;   81.000
453.274;   37.100;  737.000;  868.000
453.395;  -69.875;  -51.000;  175.000
453.516;   -8.675; 1317.000; 1388.000
453.637;  -96.550; -205.000; -150.000
453.758;  -65.800;   15.000;   69.000
453.879; -107.500; -462.000; -250.000
454.000;   62.925; 1086.000;  948.000
454.121; -131.625; -554.000; -326.000
454.242; -116.550; -599.000; -383.000
454.362;  -48.525;  -99.000;  114.000
454.483;  -22.375; -309.000; -229.000
454.604;   63.575;  512.000;  580.000
454.725; -126.325; -627.000; -555.000
454.846; -117.650; -474.000; -406.000
454.967;  -23.425;  230.000;  539.000
455.087;  -34.625;  179.000;  153.000
455.208;   11.825;  554.000;  856.000
455.329;  -54.975;  -22.000;   82.000
455.450;   66.075;  473.000;  633.000
455.570;  -72.150; -234.000; -211.000
455.691;  -46.375;  201.000;  407.000
455.812; -105.725; -270.000;  -92.000
455.932;  -60.425;  107.000;  -97.000
456.053;  -67.700;   36.000;   24.000
456.173; -101.200; -433.000; -355.000
456.294; -128.125; -476.000; -303.000
456.415;  -66.650;  -73.000;   70.000
456.535;  -35.000;  297.000;  273.000
456.656;  -41.050;  132.000;  240.000
456.776;  -71.600;    3.000;  298.000
456.897;   -0.225;  308.000;  513.000
457.017;  -67.775; -153.000;   -3.000
457.138; -114.775; -402.000; -249.000
457.258;  -35.000;  263.000;  224.000
457.379;  -12.825;  509.000;  521.000
457.499;  -17.800;  443.000;  432.000
457.620; -124.475; -407.000; -231.000
457.740;  -97.725; -132.000;  -11.000
457.860;  -47.650;   87.000;   44.000
457.981;  -45.525;  132.000;  124.000
458.101;  -74.075;  -89.000;   40.000
458.221;   -9.500;  336.000;  402.000
458.342;  -46.475;   -4.000;  -37.000
458.462;   58.625;  617.000;  352.000
458.582;    1.400; -302.000; -294.000
458.703;   68.650;  303.000;  154.000
458.823;    8.050;   22.000;  163.000
458.943;   59.775;  341.000;  467.000
459.063;   12.725; 1124.000;  192.000
459.183;  -21.675;  328.000;  313.000
459.304;   14.800;  315.000;  517.000
459.424;  -38.975; -246.000;  -89.000
459.544;  466.550;  388.000;  764.000
459.664; 1327.600;  499.000;  506.000
459.784;  512.200; 1004.000; 1175.000
459.904;   85.550;  867.000;  744.000
460.024;   55.075;  867.000;  684.000
460.144;    0.250;  449.000;  554.000
460.264;  -17.050;  515.000;  327.000
460.385;  -93.675; -145.000; -119.000
460.505;   25.825;  905.000;  858.000
460.625;  -95.025;  -17.000;  -68.000
460.745;  -24.875;  396.000;  541.000
460.864;  -44.925;  153.000;  469.000
460.984;   29.525;  499.000;  573.000
461.104;  143.925; 1656.000; 1775.000
461.224;   24.675;  657.000;  650.000
461.344;  -26.450;  431.000;  360.000
461.464;  -29.300;  258.000;  513.000
461.584;  -35.500;  283.000;  466.000
461.704;  -65.500;   58.000;  108.000
461.824;  -55.900;  238.000;  259.000
461.943;  -44.800;  191.000;  130.000
462.063;  -73.375;    2.000;  324.000
462.183;   21.900;  639.000;  717.000
462.303;   95.425; 1678.000; 1230.000
462.422;   33.250;  781.000;  840.000
462.542;  -30.025;  271.000;  391.000
462.662;   47.600;  353.000;  380.000
462.782;  332.475;  833.000;  572.000
462.901;  745.925;  545.000;  717.000
463.021;  396.725; 1702.000; 1638.000
463.141;   23.000;  337.000;  770.000
463.260;   -9.800;  614.000;  474.000
463.380;   18.675;  902.000;  884.000
463.499;  -33.975;  342.000;  332.000
463.619;  -32.125;  581.000;  559.000
463.738;   98.475; 1644.000;  903.000
463.858;   22.375;  657.000;  811.000
463.978;  -26.350;  542.000;  396.000
464.097;   35.550;  921.000; 1114.000
464.217;  162.900; 1196.000; 1143.000
464.336;  150.875; 1068.000; 1130.000
464.455;  -16.225;  328.000;  659.000
464.575;   -0.975;  597.000;  602.000
464.694;  112.400; 1204.000; 1179.000
464.814;  184.325; 1190.000; 1138.000
464.933;   77.200; 1095.000; 1027.000
465.052;   94.650; 1412.000; 1054.000
465.172;   81.800;  922.000;  799.000
465.291;  109.250; 1376.000; 1320.000
465.410;   18.300;  462.000;  735.000
465.530;   78.225; 1355.000; 1310.000
465.649;   60.950; 1209.000; 1273.000
465.768;  129.300; 1673.000; 1508.000
465.888;   61.100;  941.000; 1174.000
466.007;  102.575; 1335.000; 1440.000
466.126;   -4.600;  721.000;  641.000
466.245;   49.700; 1176.000; 1187.000
466.364;   22.875;  950.000; 1060.000
466.484;   43.375; 1024.000; 1213.000
466.603;   10.700; 1101.000; 1222.000
466.722;   94.400; 1490.000; 1769.000
466.841;   57.350; 1151.000; 1401.000
466.960;   33.450; 1069.000;  972.000
467.079;  112.200; 1971.000; 1786.000
467.198;   43.650; 1238.000; 1181.000
467.317;   81.550; 1768.000; 1162.000
467.436;   68.525; 1709.000; 1261.000
467.555;  116.250; 1796.000; 1746.000
467.674;   63.325; 1227.000; 1329.000
467.793;   45.800; 1376.000; 1374.000
467.912;   80.175; 1658.000; 1539.000
468.031;  130.625; 2038.000; 1930.000
468.150;  121.250; 1842.000; 1837.000
468.269;  182.675; 2313.000; 2090.000
468.388;  175.425; 2168.000; 2339.000
468.507;  247.100; 2884.000; 2903.000
468.626;  268.250; 2555.000; 2541.000
468.744;  151.975; 2018.000; 2174.000
468.863;  195.875; 2312.000; 2523.000
468.982;   91.075; 1503.000; 1555.000
469.101;  216.750; 2788.000; 2692.000
469.220;  151.675; 2333.000; 2176.000
469.338;  251.150; 2935.000; 3051.000
469.457;  194.000; 2719.000; 2545.000
469.576;  345.625; 3953.000; 3784.000
469.695;  251.675; 2877.000; 3066.000
469.813;  411.925; 4148.000; 4192.000
469.932;  402.825; 4255.000; 4485.000
470.051;  446.550; 4075.000; 4161.000
470.169; 1028.275; 4470.000; 4338.000
470.288; 1992.450; 4700.000; 4809.000
470.406; 1147.050; 5059.000; 5194.000
470.525;  690.800; 6101.000; 5787.000
470.644;  644.025; 6847.000; 6794.000
470.762;  785.175; 8397.000; 7873.000
470.881;  941.375; 8651.000; 8464.000
470.999; 1059.925; 9685.000; 9151.000
471.118; 1123.475;11174.000;10711.000

