
Integration time [ms]: 200.000
Averaging Nr. [scans]: 10
Smoothing Nr. [pixels]: 0
Data measured with spectrometer [name]: 2101012U2
Wave   ;Sample   ;Dark     ;Reference
[nm]   ;[counts] ;[counts] ;[counts] 

197.733;  146.000;  516.000;  404.000
197.879; -173.300; -610.000; -634.000
198.025;  -90.900; -475.000; -420.000
198.171; -151.500; -602.000; -612.000
198.317;  -40.300; -401.000; -316.000
198.463; -105.000; -655.000; -404.000
198.609;   89.400;  181.000; -137.000
198.755; -151.000; -644.000; -410.000
198.901; -123.500; -505.000; -424.000
199.047; -140.600; -615.000; -488.000
199.193;  -67.000; -230.000; -468.000
199.339;  -97.800; -222.000; -369.000
199.485;  108.500;  330.000;  271.000
199.631;   71.500;  227.000;  310.000
199.777;  -78.200; -466.000; -398.000
199.923; -148.900; -610.000; -424.000
200.069;    5.300; -141.000;  -58.000
200.215;  113.800;  128.000;  453.000
200.361;  118.100;  243.000;  477.000
200.507; -127.400; -600.000; -373.000
200.653;  -45.000; -371.000; -194.000
200.798;  -70.600; -215.000; -125.000
200.944;  -21.500; -146.000;  -41.000
201.090;   84.600;   61.000;  222.000
201.236;    6.800; -116.000; -158.000
201.382;  267.300;  874.000;  903.000
201.528;   16.500;  -58.000;  -48.000
201.674; -147.300; -386.000; -293.000
201.819; -159.800; -540.000; -439.000
201.965; -152.900; -699.000; -447.000
202.111;  -28.800; -273.000; -226.000
202.257;  -72.600; -250.000; -238.000
202.402;   40.300;   13.000;  -36.000
202.548;  -51.300; -169.000; -116.000
202.694;  171.200;  410.000; -183.000
202.840; -171.700; -603.000; -531.000
202.985; -150.900; -681.000; -639.000
203.131; -192.800; -832.000; -666.000
203.277;  -26.900; -199.000; -262.000
203.423; -107.600; -434.000; -520.000
203.568;  -62.100; -462.000; -237.000
203.714;  -96.100; -535.000; -542.000
203.860; -153.700; -682.000; -641.000
204.005;   56.300;  112.000;  167.000
204.151;  168.000;  561.000;  556.000
204.296;  -77.000; -354.000; -221.000
204.442; -148.500; -600.000; -547.000
204.588; -152.800; -592.000; -579.000
204.733;   53.400;  178.000;  168.000
204.879; -262.900;-1018.000; -822.000
205.025;   42.000;  -99.000;  126.000
205.170;   28.600;  -17.000;   94.000
205.316;  209.800;  438.000;  661.000
205.461; -182.800; -698.000; -554.000
205.607;  169.500;  609.000;  665.000
205.752; -170.300; -626.000; -551.000
205.898;  -86.900; -501.000; -391.000
206.043; -138.200; -578.000; -506.000
206.189; -102.300; -243.000; -285.000
206.334;  177.200;  554.000;  606.000
206.480;  185.700;  409.000;  239.000
206.625; -175.500; -529.000; -552.000
206.771;  -79.600; -451.000; -373.000
206.916;  -67.600; -210.000; -537.000
207.062; -152.400; -545.000; -591.000
207.207;  -98.800; -546.000; -443.000
207.353;  145.600;  185.000;  460.000
207.498;   25.900;  196.000;   85.000
207.643; -120.500; -501.000; -370.000
207.789; -276.400;-1069.000; -910.000
207.934; -166.500; -665.000; -713.000
208.080;  -54.800; -154.000;   66.000
208.225;   23.100;  -22.000;  -57.000
208.370; -197.400; -727.000; -619.000
208.516; -147.400; -741.000; -487.000
208.661;  -49.200; -127.000;  -69.000
208.806;  -54.800; -165.000; -171.000
208.952; -275.500;-1044.000; -731.000
209.097;  192.000;  378.000;  349.000
209.242;  -79.300; -307.000; -382.000
209.387;  111.500;  392.000;  350.000
209.533; -105.300; -321.000; -350.000
209.678;  188.400;  472.000;  543.000
209.823; -119.400; -408.000; -310.000
209.969; -205.500; -860.000; -757.000
210.114; -245.500; -907.000; -719.000
210.259; -233.600; -939.000; -889.000
210.404;   17.000; -171.000;  103.000
210.549;    2.300;  108.000;    3.000
210.695;  -15.100;   -3.000;  -95.000
210.840;  106.800;   94.000;   67.000
210.985; -101.400; -484.000; -303.000
211.130;  193.500;  268.000;  406.000
211.275;   16.300;  207.000;  199.000
211.420;  -77.600; -300.000; -289.000
211.566; -168.700; -536.000; -489.000
211.711;   72.500;  218.000;  157.000
211.856; -123.500; -545.000; -519.000
212.001;   28.700;  151.000;   44.000
212.146;    8.500;  153.000;   49.000
212.291;  -36.500; -210.000; -186.000
212.436;  -55.100; -280.000;   -6.000
212.581; -171.700; -685.000; -653.000
212.726; -141.900; -487.000; -538.000
212.871;  -88.200; -552.000; -217.000
213.016; -295.500;-1172.000;-1029.000
213.161;  157.900;  406.000;  291.000
213.306; -128.100; -435.000; -577.000
213.451; -194.900; -778.000; -689.000
213.596; -104.700; -455.000; -347.000
213.741; -128.900; -448.000; -538.000
213.886; -146.500; -498.000; -517.000
214.031;  -23.500; -294.000; -124.000
214.176; -113.100; -408.000; -341.000
214.321;  -15.900; -296.000; -157.000
214.466;  -34.900; -163.000;  -43.000
214.611;    9.700;  -61.000;  -10.000
214.756; -269.600; -948.000; -858.000
214.901;  -41.900; -388.000; -226.000
215.046; -253.700; -797.000; -825.000
215.191;   39.900;  128.000;   35.000
215.336;  -14.800; -157.000;  -19.000
215.480; -155.500; -684.000; -505.000
215.625;   -7.000; -175.000;  -19.000
215.770; -169.500; -757.000; -662.000
215.915;    7.600;   -5.000;  -97.000
216.060;   13.800; -113.000;  -21.000
216.205; -268.800; -731.000; -779.000
216.349; -134.300; -470.000; -533.000
216.494; -286.300; -939.000; -867.000
216.639; -224.300; -823.000; -888.000
216.784; -203.400; -577.000; -525.000
216.929;  107.100;  392.000;  281.000
217.073;   -4.200; -244.000;  -31.000
217.218;   17.100;   78.000;  -47.000
217.363; -180.200; -656.000; -618.000
217.507; -162.900; -623.000; -588.000
217.652; -252.000; -845.000; -874.000
217.797; -202.900; -708.000; -659.000
217.942; -232.900; -856.000; -720.000
218.086;  183.300;  608.000;  539.000
218.231;  -39.800; -174.000;  -26.000
218.376;  -65.200; -337.000; -229.000
218.520;   11.700;  -41.000;   96.000
218.665;  -35.500; -338.000; -204.000
218.810;  -68.900; -275.000; -233.000
218.954;   38.400;  201.000;   35.000
219.099; -237.100; -713.000; -963.000
219.243; -129.500; -589.000; -554.000
219.388;  -26.900; -264.000; -136.000
219.532;   -3.400; -116.000; -116.000
219.677; -186.100; -564.000; -521.000
219.822;   27.000;   33.000;   89.000
219.966;    7.700;   17.000;  -99.000
220.111;  -50.900; -328.000;  -40.000
220.255; -193.500; -797.000; -750.000
220.400;  -19.600; -180.000; -146.000
220.544; -162.700; -516.000; -450.000
220.689; -126.800; -422.000; -451.000
220.833;  -31.900; -123.000;  -58.000
220.978;  -58.400; -393.000; -563.000
221.122;   80.800;  319.000;  307.000
221.267; -234.600; -906.000; -837.000
221.411; -106.100; -478.000; -394.000
221.555;    4.800; -104.000;  -23.000
221.700; -112.000; -329.000; -222.000
221.844;  108.800;  255.000;  272.000
221.989; -106.300; -328.000; -311.000
222.133;  -25.000; -289.000; -307.000
222.277;  -12.400;    5.000;   78.000
222.422;   58.500;  227.000;  113.000
222.566;  -76.300; -381.000; -214.000
222.711;  -89.200; -414.000; -479.000
222.855; -166.400; -643.000; -586.000
222.999; -150.600; -642.000; -717.000
223.144;  -47.100; -195.000; -194.000
223.288;  114.100;  423.000;  251.000
223.432;   50.700;  184.000;  230.000
223.576;   52.600;  152.000;  -21.000
223.721;   78.400;  364.000;  273.000
223.865; -121.000; -472.000; -475.000
224.009;  570.700; 1673.000; 1631.000
224.153; -135.800; -660.000; -671.000
224.298; -139.600; -531.000; -489.000
224.442;  -22.800;  -74.000;  -33.000
224.586;   -6.300; -169.000; -106.000
224.730; -190.900; -858.000; -670.000
224.875; -239.400; -739.000; -688.000
225.019;   36.000;  102.000;  188.000
225.163;  117.700;  208.000;  341.000
225.307;   49.300;   97.000;  -91.000
225.451;  101.400;  360.000;  481.000
225.595;   90.300;  264.000;  176.000
225.739;  -48.100; -170.000;  -94.000
225.884;   44.500;   86.000;    5.000
226.028; -194.900; -760.000; -626.000
226.172;  -66.800; -260.000; -273.000
226.316; -249.900; -941.000; -902.000
226.460; -128.400; -645.000; -493.000
226.604; -112.300; -406.000; -400.000
226.748; -180.200; -836.000; -733.000
226.892;  -73.500; -227.000; -181.000
227.036;  -65.000; -537.000; -447.000
227.180;  -94.900; -551.000; -375.000
227.324; -113.100; -561.000; -580.000
227.468; -241.400; -819.000; -717.000
227.612;   50.200;  242.000;  -28.000
227.756; -228.300; -845.000; -698.000
227.900;  153.800;  342.000;  441.000
228.044; -114.600; -509.000; -290.000
228.188;  137.200;  448.000;  568.000
228.332; -165.000; -546.000; -472.000
228.476;  -44.600; -223.000; -149.000
228.620;  -99.000; -210.000; -150.000
228.764;  208.700;  431.000;  349.000
228.908;  -25.200; -155.000;   30.000
229.052; -138.400; -615.000; -528.000
229.195;   -9.200; -172.000;   13.000
229.339;  -35.200; -235.000; -305.000
229.483;  -42.600;    5.000; -162.000
229.627;   15.400; -156.000;  139.000
229.771;  -70.700; -218.000; -294.000
229.915;   73.600;  230.000;   79.000
230.059; -187.500; -648.000; -663.000
230.202;  -63.800; -370.000; -317.000
230.346;  -13.100; -107.000;  107.000
230.490; -126.900; -489.000; -521.000
230.634; -247.800; -736.000; -553.000
230.777;  169.800;  478.000;  509.000
230.921;  -88.600; -450.000; -359.000
231.065;  -71.900; -246.000; -286.000
231.209;   76.600;  261.000;  265.000
231.352;   67.000;   54.000;   40.000
231.496;   83.800;  568.000;  188.000
231.640; -128.300; -693.000; -621.000
231.783;  140.800;  546.000;  525.000
231.927;  -67.600; -294.000; -365.000
232.071; -242.400; -962.000; -736.000
232.214; -210.300; -980.000; -764.000
232.358; -196.700; -683.000; -599.000
232.502;   42.300;  -19.000;    7.000
232.645; -287.200;-1090.000; -927.000
232.789;  -15.300; -257.000; -218.000
232.933;  -87.700; -407.000; -224.000
233.076; -261.700;-1038.000; -897.000
233.220; -224.300; -752.000; -777.000
233.363; -144.600; -669.000; -477.000
233.507;  159.300;  371.000;  129.000
233.650; -166.100; -764.000; -834.000
233.794;   95.600;  438.000;  461.000
233.938; -104.200; -530.000; -362.000
234.081;  -13.700;  -93.000;   31.000
234.225; -136.000; -631.000; -539.000
234.368; -232.600; -773.000; -723.000
234.512;  -59.500; -385.000; -299.000
234.655; -180.700; -582.000; -555.000
234.798; -105.400; -493.000; -466.000
234.942; -277.600; -884.000;-1002.000
235.085; -142.900; -651.000; -443.000
235.229; -152.300; -405.000; -410.000
235.372;  -83.200; -247.000; -191.000
235.516; -104.300; -397.000; -321.000
235.659;   78.400;   92.000;  121.000
235.802;   -3.700;  -38.000;  -22.000
235.946;   73.300;  335.000;  215.000
236.089;   99.000;  126.000;  250.000
236.233;  145.000;  275.000;  298.000
236.376; -112.600; -235.000; -378.000
236.519;  -85.200; -297.000; -319.000
236.663;  -33.200; -215.000; -117.000
236.806; -264.500;-1029.000; -999.000
236.949;  165.000;  543.000;  431.000
237.092;  149.600;  412.000;  391.000
237.236; -173.200; -589.000; -502.000
237.379;  172.300;  352.000;  428.000
237.522; -226.400; -879.000; -768.000
237.666;    3.700; -271.000;   18.000
237.809; -260.700; -851.000; -823.000
237.952;  116.300;  469.000;  271.000
238.095;  -98.300; -447.000; -442.000
238.238;  223.900;  688.000;  700.000
238.382;   10.500;  166.000;  103.000
238.525; -125.100; -598.000; -511.000
238.668; -280.800;-1060.000; -985.000
238.811; -132.000; -638.000; -643.000
238.954;  -92.500; -483.000; -334.000
239.097;  186.900;  617.000;  664.000
239.241;   76.200;  394.000;  326.000
239.384;  -68.600; -254.000; -214.000
239.527; -105.100; -424.000; -224.000
239.670; -284.100; -994.000;-1091.000
239.813; -244.800; -696.000; -658.000
239.956;  180.400;  579.000;  473.000
240.099; -233.800; -778.000; -725.000
240.242;  165.900;  428.000;  432.000
240.385;  157.700;  466.000;  450.000
240.528; -126.000; -706.000; -473.000
240.671;   15.400;  189.000;  134.000
240.814;  -81.600; -441.000; -158.000
240.957; -197.000; -767.000; -578.000
241.100; -178.200; -779.000; -755.000
241.243; -296.600;-1234.000; -893.000
241.386; -126.900; -508.000; -379.000
241.529; -199.800; -735.000; -547.000
241.672; -125.300; -566.000; -495.000
241.815; -239.100; -832.000; -808.000
241.958;  -12.400; -125.000; -182.000
242.101; -127.400; -545.000; -390.000
242.244;  -75.000; -270.000; -325.000
242.387;  -65.400; -304.000; -246.000
242.530;  176.200;  470.000;  134.000
242.673;  -77.200; -381.000; -309.000
242.815; -232.400; -925.000; -899.000
242.958; -140.600; -482.000; -381.000
243.101;   52.400;  132.000;  187.000
243.244; -127.500; -564.000; -521.000
243.387;  -98.200; -313.000; -316.000
243.530; -190.500; -657.000; -674.000
243.672;   25.900;   43.000;  -92.000
243.815; -105.900; -355.000; -283.000
243.958;  -11.800;   98.000;  -26.000
244.101;   11.800;   59.000;  -16.000
244.243;    4.900;  -47.000;  101.000
244.386; -244.600; -761.000; -630.000
244.529;  -11.200; -132.000; -139.000
244.672; -312.000;-1154.000; -951.000
244.814; -207.400; -621.000; -794.000
244.957; -105.000; -380.000; -304.000
245.100; -113.700; -489.000; -489.000
245.242; -100.900; -387.000; -374.000
245.385;   11.800;  -59.000;  -39.000
245.528; -204.600; -871.000; -705.000
245.670;  224.300;  612.000;  634.000
245.813; -158.000; -599.000; -547.000
245.956;  -44.500; -324.000; -275.000
246.098; -117.200; -508.000; -650.000
246.241;   53.900;  194.000;   48.000
246.383;    1.700; -119.000;  -73.000
246.526; -139.100; -454.000; -525.000
246.669; -220.100; -889.000; -780.000
246.811;   71.300;  172.000;   -1.000
246.954; -119.100; -512.000; -426.000
247.096;  -23.200;  -84.000;   -6.000
247.239; -131.300; -482.000; -445.000
247.381; -135.700; -647.000; -488.000
247.524;  171.600;  645.000;  679.000
247.666;   26.500;   58.000;   11.000
247.809; -231.300; -887.000; -691.000
247.951;   -7.900;  -75.000;  138.000
248.094;   78.400;  432.000;  308.000
248.236; -314.600;-1262.000;-1238.000
248.378;   12.900; -356.000;  -81.000
248.521;  -34.700; -334.000; -337.000
248.663;  -79.700; -236.000; -267.000
248.806;  -36.500; -300.000; -266.000
248.948; -227.400; -886.000; -763.000
249.090; -106.200; -428.000; -398.000
249.233;  -75.100; -344.000; -381.000
249.375;  -93.800; -474.000; -451.000
249.518;  -47.800;  -83.000; -133.000
249.660;   56.200; -103.000;    3.000
249.802; -378.600;-1303.000;-1189.000
249.945; -129.100; -612.000; -540.000
250.087; -223.600; -834.000; -768.000
250.229; -106.600; -362.000; -480.000
250.371; -145.000; -494.000; -439.000
250.514;  -84.100; -310.000; -244.000
250.656;    8.000;   69.000;  102.000
250.798; -207.900; -849.000; -800.000
250.940; -122.600; -322.000; -322.000
251.083;  -33.600; -335.000; -111.000
251.225;  136.700;  338.000;  310.000
251.367;  -35.400; -274.000; -373.000
251.509;  -41.000; -265.000; -210.000
251.651; -187.000; -731.000; -671.000
251.794;  165.700;  538.000;  632.000
251.936; -190.300; -821.000; -747.000
252.078; -145.900; -540.000; -461.000
252.220; -130.200; -645.000; -477.000
252.362;  183.400;  344.000;  462.000
252.504; -130.900; -677.000; -584.000
252.646; -203.400; -875.000; -722.000
252.788;   19.200;   14.000; -128.000
252.931;  -62.200; -257.000; -253.000
253.073;  -65.400; -376.000; -317.000
253.215;   16.200;  141.000;  122.000
253.357;   -4.300;   82.000; -153.000
253.499;  -77.900; -374.000; -234.000
253.641; -138.600; -749.000; -594.000
253.783; -199.200; -609.000; -527.000
253.925; -162.400; -586.000; -591.000
254.067; -221.300; -744.000; -667.000
254.209;  -45.300; -391.000; -259.000
254.351; -269.400; -865.000; -883.000
254.493; -118.500; -441.000; -417.000
254.635; -223.400; -936.000; -818.000
254.777; -168.800; -752.000; -687.000
254.918; -149.100; -512.000; -430.000
255.060; -127.200; -551.000; -395.000
255.202; -116.100; -473.000; -261.000
255.344; -135.200; -658.000; -455.000
255.486; -177.100; -471.000; -406.000
255.628; -189.100; -780.000; -781.000
255.770; -157.400; -676.000; -536.000
255.912;  -70.500; -559.000; -468.000
256.053; -172.900; -730.000; -508.000
256.195;  365.100; 1008.000;  903.000
256.337; -203.000; -861.000; -595.000
256.479;  166.400;  532.000;  416.000
256.621;  -81.900; -394.000; -212.000
256.762; -185.100; -789.000; -742.000
256.904;  134.300;  485.000;  487.000
257.046;  -65.200; -381.000; -271.000
257.188;  -59.300; -351.000; -264.000
257.329; -115.400; -525.000; -464.000
257.471; -224.400; -939.000; -807.000
257.613; -100.300; -584.000; -498.000
257.755; -293.100;-1073.000; -982.000
257.896;   91.100;  286.000;  392.000
258.038; -133.600; -403.000; -352.000
258.180;  -69.300; -354.000; -279.000
258.321; -148.900; -581.000; -457.000
258.463;   29.200;  -71.000;  133.000
258.605; -186.100; -562.000; -570.000
258.746; -221.500; -886.000; -772.000
258.888; -306.600;-1026.000;-1020.000
259.029;   74.300;  121.000;   -8.000
259.171; -168.000; -614.000; -550.000
259.313;   36.000;  -49.000;  -47.000
259.454; -119.100; -536.000; -414.000
259.596;  -95.600; -483.000; -390.000
259.737; -153.800; -590.000; -474.000
259.879;  144.800;  217.000;  311.000
260.020;  208.700;  901.000;  636.000
260.162;  -49.400; -146.000; -253.000
260.303; -235.800; -768.000; -687.000
260.445; -162.000; -609.000; -613.000
260.586;  145.600;  392.000;  157.000
260.728;  -72.100; -360.000; -248.000
260.869; -139.300; -350.000; -343.000
261.011;  178.600;  706.000;  537.000
261.152;  -72.900; -479.000; -319.000
261.293; -138.300; -576.000; -595.000
261.435;  -17.600; -219.000; -184.000
261.576;  -73.500; -455.000; -325.000
261.718;  111.600;  420.000;  470.000
261.859; -207.500; -940.000; -949.000
262.000; -276.400; -951.000;-1016.000
262.142;  -33.500;  -52.000;  -60.000
262.283; -256.700; -808.000; -691.000
262.424; -177.300; -666.000; -625.000
262.566; -315.600;-1161.000; -983.000
262.707; -210.900; -840.000; -830.000
262.848; -236.400; -769.000; -726.000
262.990;  -64.000; -362.000; -345.000
263.131;  210.500;  650.000;  681.000
263.272;   27.900;  -61.000;  -41.000
263.413; -181.600; -589.000; -561.000
263.555;  -80.600; -669.000; -143.000
263.696; -166.000; -550.000; -641.000
263.837;  -84.400; -449.000; -551.000
263.978;   13.900;   -5.000;  -77.000
264.119;  -68.700; -283.000; -264.000
264.261; -261.600; -847.000; -630.000
264.402;   28.100;   33.000;   40.000
264.543; -164.800; -509.000; -524.000
264.684;    6.700;   61.000;  -50.000
264.825; -146.900; -816.000; -538.000
264.966;   -3.400;  -84.000;  -67.000
265.107; -230.300; -646.000; -670.000
265.248; -226.800; -825.000; -812.000
265.390;   21.000;  152.000;   -9.000
265.531;  -15.200; -238.000; -107.000
265.672; -191.900; -557.000; -630.000
265.813;  160.500;  563.000;  439.000
265.954; -290.500; -959.000; -940.000
266.095;   -2.100; -372.000; -322.000
266.236; -205.400; -686.000; -548.000
266.377;  -80.400; -243.000; -297.000
266.518; -137.000; -619.000; -547.000
266.659;   98.400;  170.000;  268.000
266.800;   31.900;   83.000;   85.000
266.941; -136.500; -487.000; -478.000
267.082;   22.500;  354.000;   99.000
267.223;  -99.800; -344.000; -273.000
267.364; -236.800; -892.000; -686.000
267.504;  -10.900;    3.000;  135.000
267.645;    6.500;  160.000;   67.000
267.786;  -11.200; -147.000;  -86.000
267.927; -126.800; -473.000; -379.000
268.068;  -15.300; -186.000;  -61.000
268.209; -113.400; -175.000; -413.000
268.350; -107.600; -388.000; -532.000
268.490; -180.600; -648.000; -521.000
268.631;   87.600;  127.000;  225.000
268.772; -222.500; -874.000; -647.000
268.913;  -69.400; -328.000; -476.000
269.054;    4.300; -117.000;   12.000
269.194;  -79.500; -418.000; -402.000
269.335; -322.900;-1137.000;-1074.000
269.476;  -12.800;   33.000;  -35.000
269.617; -111.700; -347.000; -392.000
269.757; -172.900; -713.000; -646.000
269.898; -194.500; -856.000; -613.000
270.039; -117.600; -415.000; -405.000
270.180; -269.300; -952.000; -816.000
270.320;  -42.400; -190.000; -250.000
270.461;  -68.900; -277.000; -249.000
270.602;    1.500; -186.000; -156.000
270.742; -236.900; -868.000; -943.000
270.883;  -90.900; -442.000; -390.000
271.023;  -98.500; -358.000; -357.000
271.164; -129.300; -607.000; -528.000
271.305; -205.000; -666.000; -654.000
271.445; -167.300; -722.000; -683.000
271.586; -157.100; -462.000; -283.000
271.726;  -70.900; -397.000; -322.000
271.867; -109.900; -594.000; -534.000
272.008;  318.300; -473.000; -285.000
272.148;  276.500;  462.000;  468.000
272.289;   69.700; -113.000; -181.000
272.429;   61.300;   19.000;  185.000
272.570; -149.200; -633.000; -737.000
272.710; -205.400; -825.000; -775.000
272.851;    1.500;  113.000; -130.000
272.991; -312.300;-1173.000;-1077.000
273.131; -112.800; -419.000; -459.000
273.272; -182.200; -683.000; -723.000
273.412;   26.800; -143.000;  -31.000
273.553; -134.900; -488.000; -507.000
273.693;  330.900;  913.000;  858.000
273.834; -198.900; -894.000; -692.000
273.974; -127.100; -664.000; -615.000
274.114; -189.000; -772.000; -560.000
274.255;  157.100;  414.000;  373.000
274.395;   19.900; -180.000; -125.000
274.535;  105.300;  199.000;  350.000
274.676;   41.200;  225.000;   94.000
274.816;   56.000;  110.000;   34.000
274.956; -177.600; -624.000; -690.000
275.097; -125.300;-1014.000; -922.000
275.237; -211.000; -913.000; -803.000
275.377; -192.500; -778.000; -689.000
275.517; -306.200; -878.000; -937.000
275.658; -130.400; -590.000; -555.000
275.798; -161.100; -606.000; -413.000
275.938;   94.900;  215.000;  323.000
276.078; -153.300; -626.000; -395.000
276.218;   42.300;   99.000;  104.000
276.359; -260.100;-1026.000;-1024.000
276.499; -123.800; -605.000; -446.000
276.639;  -20.500; -305.000; -151.000
276.779;  -85.200; -475.000; -357.000
276.919; -197.300; -783.000; -624.000
277.059;   17.500; -261.000; -212.000
277.199;  -65.300; -357.000; -259.000
277.340;  141.300;  287.000;  175.000
277.480; -227.400; -840.000; -693.000
277.620;  102.200;  192.000;   16.000
277.760; -401.900;-1533.000;-1294.000
277.900;   45.600;  113.000;   33.000
278.040;   51.500;  137.000;  159.000
278.180;   93.000;  270.000;  170.000
278.320;    7.400;   21.000;   56.000
278.460; -103.600; -443.000; -469.000
278.600; -174.900; -708.000; -598.000
278.740;  134.100;  448.000;  224.000
278.880; -153.000; -768.000; -791.000
279.020;   49.800; -194.000; -144.000
279.160; -196.300; -672.000; -595.000
279.300; -234.700; -926.000; -873.000
279.440; -157.400; -709.000; -622.000
279.579;  -86.200;-1014.000; -929.000
279.719;  -88.400; -410.000; -394.000
279.859;  120.000;   -4.000;   41.000
279.999;   39.900; -208.000;  101.000
280.139;  -27.900; -435.000; -387.000
280.279; -157.500; -708.000; -745.000
280.419;  -19.500; -229.000; -147.000
280.559;  -57.300; -259.000; -180.000
280.698; -142.200; -790.000; -639.000
280.838; -195.000; -778.000; -800.000
280.978; -168.700; -846.000; -790.000
281.118; -255.900; -811.000; -704.000
281.257;   36.400;   24.000;    6.000
281.397; -231.600;-1094.000; -960.000
281.537; -171.000; -599.000; -712.000
281.677;  -40.100; -150.000; -101.000
281.816; -156.400; -700.000; -630.000
281.956;  -27.200; -193.000; -257.000
282.096; -104.000; -539.000; -396.000
282.235; -193.800; -672.000; -638.000
282.375;    1.800; -243.000;  -98.000
282.515; -181.800; -715.000; -707.000
282.654;   92.400;   29.000;  106.000
282.794;   48.700;  388.000;  244.000
282.934; -102.100; -530.000; -491.000
283.073; -243.900;-1030.000; -857.000
283.213;  -69.600; -460.000; -467.000
283.353;  -65.500; -408.000; -349.000
283.492;  -52.900; -264.000; -296.000
283.632;  -79.600; -254.000; -168.000
283.771; -190.800; -859.000; -730.000
283.911;  -84.900; -369.000; -260.000
284.050; -183.700; -794.000; -748.000
284.190; -311.300;-1229.000;-1096.000
284.329; -269.700;-1055.000; -964.000
284.469; -115.700; -516.000; -591.000
284.608;  -88.600; -559.000; -598.000
284.748; -154.300; -614.000; -570.000
284.887;    4.100;  -87.000;  -20.000
285.027; -212.000; -844.000; -892.000
285.166;  -49.200; -192.000; -249.000
285.306;  -15.200; -116.000;  -33.000
285.445;  -58.900; -229.000; -343.000
285.584; -156.400; -630.000; -494.000
285.724;  -57.700; -282.000; -322.000
285.863; -219.900; -857.000; -507.000
286.002;  -78.000; -366.000; -276.000
286.142; -187.300; -715.000; -622.000
286.281; -140.200; -525.000; -493.000
286.420; -150.600; -554.000; -417.000
286.560;  234.900;  653.000;  623.000
286.699; -267.200; -958.000; -912.000
286.838; -156.200; -590.000; -591.000
286.978; -175.200; -533.000; -537.000
287.117; -242.000;-1085.000; -950.000
287.256;  -62.100; -228.000; -211.000
287.395;  -74.100; -197.000; -378.000
287.535;  -68.400; -370.000; -298.000
287.674; -154.400; -509.000; -484.000
287.813;  172.000;  661.000;  533.000
287.952; -223.500;-1010.000; -871.000
288.091; -276.800;-1049.000; -915.000
288.231;   64.200;   13.000;   15.000
288.370; -358.100;-1217.000;-1200.000
288.509; -176.200; -728.000; -645.000
288.648; -144.400; -770.000; -548.000
288.787;  -23.400; -243.000;  -87.000
288.926; -106.200; -454.000; -475.000
289.065;  273.300;  859.000;  672.000
289.204;  -75.000; -377.000; -217.000
289.344; -175.400; -791.000; -690.000
289.483;   75.600;  416.000;  304.000
289.622;  -32.300; -291.000; -149.000
289.761;    1.200; -309.000; -166.000
289.900; -229.300; -785.000; -626.000
290.039;  -30.900;  -12.000;  -95.000
290.178;  -46.700; -274.000; -180.000
290.317; -147.300; -618.000; -479.000
290.456;  -67.200; -463.000; -451.000
290.595; -278.200; -961.000; -833.000
290.734; -273.800; -904.000; -891.000
290.873; -122.100; -456.000; -420.000
291.011; -184.000; -833.000; -843.000
291.150; -217.600; -770.000; -682.000
291.289;  -20.500; -343.000; -110.000
291.428; -154.000; -599.000; -480.000
291.567;  -81.500; -370.000; -442.000
291.706;   29.200;  109.000;  154.000
291.845; -128.400; -597.000; -505.000
291.984; -315.200;-1234.000;-1061.000
292.122;  167.800;  602.000;  582.000
292.261;  126.000;  620.000;  463.000
292.400;   58.700; -144.000;  211.000
292.539; -243.100; -959.000; -813.000
292.678;  -86.400; -325.000; -300.000
292.816; -318.200;-1136.000; -965.000
292.955; -158.200; -844.000; -684.000
293.094;  -44.000; -173.000; -337.000
293.233;  -85.000; -556.000; -400.000
293.371;  -42.000; -225.000;  -84.000
293.510; -193.800; -866.000; -780.000
293.649; -259.900; -959.000; -924.000
293.787; -161.200;-1083.000;-1012.000
293.926;    2.300; -113.000;  -32.000
294.065;  -51.500; -379.000; -290.000
294.203;  106.800;  298.000;  406.000
294.342;   83.500;   74.000;  156.000
294.481;12016.800;51180.000; -836.000
294.619;  -30.400; -425.000; -582.000
294.758; -283.900;-1230.000;-1137.000
294.896;  146.300; -125.000;    5.000
295.035; -240.300;-1040.000;-1006.000
295.174; -252.300;-1082.000; -954.000
295.312;  -58.400; -323.000; -203.000
295.451;   -1.400; -307.000; -428.000
295.589;  -96.500; -389.000; -518.000
295.728;   68.500; -292.000; -165.000
295.866;    3.900;  -36.000;  -51.000
296.005; -153.400; -584.000; -341.000
296.143; -131.000; -558.000; -596.000
296.282; -203.300; -957.000; -881.000
296.420; -157.600; -657.000; -557.000
296.559; -139.100; -892.000; -633.000
296.697;  -32.900; -847.000; -665.000
296.835;   50.500;-1141.000;-1002.000
296.974;  106.700;  -23.000;   39.000
297.112;   -2.900; -443.000; -504.000
297.251; -141.200; -815.000; -755.000
297.389;  155.700; -576.000; -438.000
297.527;   66.700; -145.000;  -83.000
297.666;  -98.500; -486.000; -438.000
297.804;  -58.600; -404.000; -264.000
297.942;   17.800; -136.000; -161.000
298.081;   20.300; -183.000;   63.000
298.219;  127.300;  -17.000;  -19.000
298.357;   98.500; -144.000;  -71.000
298.495;   33.400; -810.000; -812.000
298.634;  141.800;  245.000;  219.000
298.772;   67.400; -220.000; -338.000
298.910;  -34.900; -309.000; -182.000
299.048;   32.800; -130.000; -153.000
299.187;  -49.700; -350.000; -250.000
299.325;   76.500;   52.000;  122.000
299.463;   65.800; -389.000; -299.000
299.601;  159.800; -327.000; -271.000
299.739; -236.400; -908.000; -883.000
299.877; -149.600; -791.000; -703.000
300.016; -133.400;-1095.000; -935.000
300.154;  260.700;  -19.000; -161.000
300.292;   59.100; -428.000; -348.000
300.430;   62.700; -408.000; -291.000
300.568; -187.000; -940.000; -874.000
300.706;  -52.000; -366.000; -469.000
300.844; -169.500;-1108.000; -979.000
300.982;  243.800;  246.000;  282.000
301.120; -210.600; -965.000; -866.000
301.258; -131.800; -812.000; -705.000
301.396;   60.700;  104.000;  -41.000
301.534;  139.200; -218.000; -293.000
301.672;  -53.500; -664.000; -521.000
301.810;   20.600; -613.000; -545.000
301.948;  268.900;   53.000;  149.000
302.086;  963.100; -250.000;  -32.000
302.224; 1470.900; -610.000; -585.000
302.362;   38.900; -558.000; -622.000
302.500;  -65.400; -923.000; -893.000
302.638;  198.600;  128.000;  245.000
302.776;    0.100; -352.000; -408.000
302.913;  146.900;  447.000;  236.000
303.051;   12.600;  -86.000;  -23.000
303.189;  132.600;   90.000;  118.000
303.327;  -30.300; -341.000; -256.000
303.465; -118.800; -832.000; -588.000
303.603; -187.500; -805.000; -604.000
303.740;  243.800;  417.000;  241.000
303.878;   -6.800; -800.000; -759.000
304.016; -149.300; -915.000; -790.000
304.154; -244.800;-1123.000;-1152.000
304.291;  -32.600; -505.000; -554.000
304.429;   51.900;  102.000;   74.000
304.567; -255.100; -908.000; -893.000
304.705; -109.700; -408.000; -515.000
304.842;  135.400; -616.000; -540.000
304.980;  146.500;  215.000;   35.000
305.118;   51.300; -367.000; -365.000
305.255; -165.300; -945.000; -927.000
305.393;  114.900;  178.000;  239.000
305.531; -230.500;-1173.000; -956.000
305.668; -121.600; -663.000; -582.000
305.806;  175.400; -358.000; -439.000
305.943;  147.200; -629.000; -637.000
306.081;  150.800; -378.000; -267.000
306.219; -201.600; -863.000; -748.000
306.356;   13.800;  158.000;   27.000
306.494;  289.100;  981.000;  761.000
306.631;   41.700;  -11.000;  -55.000
306.769;   21.200; -613.000; -485.000
306.906;  -23.600; -284.000; -258.000
307.044;  -65.900; -473.000; -488.000
307.181;  -97.400; -410.000; -332.000
307.319;  174.900;  112.000;   87.000
307.456; -321.400;-1191.000;-1153.000
307.594; -160.400; -980.000; -727.000
307.731;  -31.900; -371.000; -164.000
307.868;   23.000;  -15.000;   20.000
308.006; -248.200; -961.000; -847.000
308.143; -125.100; -618.000; -330.000
308.281;  360.700;  -37.000; -254.000
308.418;   35.100; -748.000; -640.000
308.555; -134.000; -400.000; -250.000
308.693; -106.200; -577.000; -573.000
308.830; -185.900; -712.000; -657.000
308.967;   34.400; -215.000;  -95.000
309.105;  -64.400; -507.000; -396.000
309.242;   91.900; -468.000; -367.000
309.379;  700.200; -577.000; -655.000
309.517;  -78.800; -936.000; -948.000
309.654; -190.100; -910.000; -734.000
309.791;  -96.700; -662.000; -580.000
309.928; -222.700; -977.000; -914.000
310.065;  396.700;  819.000;  697.000
310.203;  -34.400; -825.000; -850.000
310.340;    5.600; -465.000; -321.000
310.477; -146.500; -412.000; -516.000
310.614; -104.100; -383.000; -473.000
310.751; -122.400; -427.000; -518.000
310.889;  -31.700;    1.000;   11.000
311.026; -281.600;-1161.000; -939.000
311.163;  -75.500; -386.000; -380.000
311.300; -121.700; -512.000; -479.000
311.437; -124.400; -658.000; -619.000
311.574; -302.300;-1226.000; -985.000
311.711;  -92.400; -595.000; -433.000
311.848;  -72.600; -380.000; -388.000
311.985;   52.500;  270.000;   93.000
312.122; -193.400; -932.000; -762.000
312.259; -197.500; -941.000; -994.000
312.396; -137.400; -508.000; -551.000
312.533; -131.900; -812.000; -790.000
312.670; -228.200;-1070.000; -898.000
312.807;  -32.400; -352.000; -367.000
312.944; -131.900; -513.000; -611.000
313.081;  -33.300; -150.000; -415.000
313.218; -182.500;-1111.000; -867.000
313.355;   27.200; -531.000; -449.000
313.492;    1.600; -455.000; -292.000
313.629;  338.200;  815.000;  735.000
313.766; -298.000;-1176.000;-1008.000
313.902;    6.500; -186.000;   21.000
314.039;  -78.300; -372.000; -289.000
314.176;  107.000;  286.000;  192.000
314.313; -133.400; -569.000; -473.000
314.450; -134.500; -788.000; -684.000
314.587;  -84.400; -468.000; -480.000
314.723;   20.400;  -78.000;  130.000
314.860;  107.400;  318.000;  332.000
314.997;  114.500;  223.000;  142.000
315.134;  -52.800; -385.000; -368.000
315.270;  -58.600; -480.000; -496.000
315.407; -236.900;-1094.000; -967.000
315.544;  -78.800; -657.000; -538.000
315.681; -108.900; -681.000; -565.000
315.817;   99.300; -133.000; -176.000
315.954;   12.000; -613.000; -392.000
316.091; -228.000;-1045.000;-1023.000
316.227;  -16.900;  -71.000; -179.000
316.364;   27.800;   23.000;    6.000
316.500;  -72.500; -113.000; -300.000
316.637;  -44.200; -181.000; -302.000
316.774; -109.600; -625.000; -358.000
316.910; -147.000; -598.000; -629.000
317.047; -103.900; -487.000; -351.000
317.183;  -75.300; -435.000; -566.000
317.320;  -15.100; -367.000; -321.000
317.456; -102.300; -733.000; -805.000
317.593; -170.800; -598.000; -641.000
317.729;   60.300;  168.000;  -67.000
317.866; -401.900;-1434.000;-1285.000
318.002; -141.800; -708.000; -948.000
318.139; -173.600; -883.000; -867.000
318.275; -194.300;-1003.000; -738.000
318.412;  -87.200; -517.000; -336.000
318.548;  -89.700; -751.000; -720.000
318.685; -183.300; -985.000; -888.000
318.821; -126.500; -762.000; -735.000
318.957;  -15.000;   34.000;  -23.000
319.094;  106.400;  297.000;  154.000
319.230; -105.800; -756.000; -742.000
319.367;  181.900; -471.000; -520.000
319.503;  106.700; -538.000; -436.000
319.639; -154.000; -877.000; -793.000
319.775; -132.400; -750.000; -685.000
319.912;  -83.400; -424.000; -519.000
320.048; -214.300;-1184.000;-1184.000
320.184;  235.200;   59.000;   70.000
320.321;  -74.100; -497.000; -467.000
320.457;  192.500;  475.000;  662.000
320.593;  -89.100; -375.000; -382.000
320.729; -161.700; -732.000; -734.000
320.866; -111.200; -577.000; -635.000
321.002; -134.300; -759.000; -809.000
321.138;  -17.100; -135.000; -211.000
321.274;  157.500; -148.000; -115.000
321.410;  -41.000; -585.000; -353.000
321.546;  -79.800;-1011.000; -911.000
321.683;  150.600;  400.000;  185.000
321.819;   60.800;  -48.000; -117.000
321.955; -214.500; -743.000; -722.000
322.091;  -73.400; -585.000; -540.000
322.227;    2.900; -382.000; -202.000
322.363;  -28.800; -320.000; -215.000
322.499;  -32.500; -343.000; -331.000
322.635;  342.300;  636.000;  443.000
322.771;   53.500; -139.000;   12.000
322.907;  195.000;  129.000;  327.000
323.043;   -1.700; -115.000; -206.000
323.179;   -8.500; -394.000; -363.000
323.315;    3.700; -401.000; -371.000
323.451;  141.700; -328.000; -236.000
323.587;   89.500;  -60.000;  -77.000
323.723;   29.900; -682.000; -601.000
323.859;  -29.300; -258.000;  -76.000
323.995;   -4.700; -467.000; -409.000
324.131; -215.000; -967.000; -892.000
324.267;  -43.800; -254.000; -276.000
324.402; -252.700; -960.000; -983.000
324.538;   22.600; -279.000; -104.000
324.674;   71.300;  164.000;   77.000
324.810;  232.500;  226.000;  308.000
324.946;   31.100; -810.000; -658.000
325.082;  -82.900; -568.000; -475.000
325.217;   27.300;  -62.000;   16.000
325.353; -173.400; -764.000; -659.000
325.489; -146.900; -540.000; -506.000
325.625; -100.100; -579.000; -525.000
325.760;  171.100;  517.000;  376.000
325.896;   -7.800; -515.000; -702.000
326.032;  -82.200; -403.000; -352.000
326.168;  -95.900; -462.000; -369.000
326.303; -107.700; -352.000; -461.000
326.439;    6.300; -336.000; -276.000
326.575;   41.200; -190.000;  -29.000
326.710;   35.300; -156.000;  -30.000
326.846;    9.000;  146.000;  103.000
326.982; -164.300; -530.000; -548.000
327.117; -121.100; -481.000; -442.000
327.253; -145.000; -745.000; -742.000
327.388; -316.600;-1137.000;-1153.000
327.524;  -93.300; -811.000; -578.000
327.659;  -17.500;  -58.000;  -22.000
327.795;    9.900;   69.000;   45.000
327.931; -131.100; -723.000; -499.000
328.066;    4.500; -417.000; -276.000
328.202;  -27.800;   12.000; -129.000
328.337;  276.000;  957.000;  713.000
328.473;   24.800;  -12.000;  -74.000
328.608;  -21.300; -256.000; -267.000
328.743; -129.900; -799.000; -664.000
328.879;  111.600;  214.000;  114.000
329.014; -131.700; -102.000; -122.000
329.150; -118.100; -358.000; -483.000
329.285; -131.500; -465.000; -466.000
329.421;  -75.400; -548.000; -246.000
329.556;  -21.500;  -36.000;   85.000
329.691; -133.900; -633.000; -615.000
329.827; -140.900; -626.000; -480.000
329.962;  -40.200;  131.000; -301.000
330.097; -144.600; -673.000; -585.000
330.233;  -60.900; -410.000; -223.000
330.368; -214.300; -839.000; -628.000
330.503;   46.900;    3.000;   98.000
330.638;   21.700;  -93.000; -125.000
330.774;  -76.200; -609.000; -530.000
330.909;  -60.200; -434.000; -244.000
331.044; -143.500; -714.000; -708.000
331.179; -338.300;-1217.000;-1109.000
331.315;   85.200;   77.000;   20.000
331.450;   66.700;  157.000;  285.000
331.585; -131.400; -805.000; -706.000
331.720; -148.100; -510.000; -460.000
331.855;   20.500;  -35.000; -102.000
331.990;  571.800;   62.000;  138.000
332.126;  357.700; -110.000;   71.000
332.261;    6.100; -379.000; -265.000
332.396;   37.800; -135.000; -242.000
332.531; -143.400;-1074.000;-1031.000
332.666;  139.700; -519.000; -363.000
332.801; -193.100; -726.000; -807.000
332.936;   -8.800; -192.000; -122.000
333.071; -251.900; -870.000; -817.000
333.206;   77.300;  307.000;  379.000
333.341;  109.100;  344.000;  418.000
333.476; -139.600; -627.000; -623.000
333.611;  -35.200; -251.000; -173.000
333.746;  -69.200; -381.000; -464.000
333.881; -200.900; -973.000; -935.000
334.016; -230.100; -936.000; -917.000
334.151; -226.300; -746.000; -702.000
334.286;   92.500;  152.000;  186.000
334.421;    6.600; -125.000; -178.000
334.556; -117.800; -611.000; -567.000
334.690; -137.100; -631.000; -577.000
334.825;  147.500;  381.000;   83.000
334.960;  -76.600; -285.000; -413.000
335.095;   22.700;  135.000;  -91.000
335.230; -182.400; -722.000; -738.000
335.365; -266.900;-1084.000; -990.000
335.499; -260.700;-1108.000;-1037.000
335.634;  103.500;    9.000;  534.000
335.769; -219.700; -755.000; -720.000
335.904;  -90.900; -603.000; -561.000
336.038;  -94.600; -735.000; -657.000
336.173; -229.300;-1206.000;-1194.000
336.308;   10.900; -116.000; -189.000
336.443;   61.600; -544.000; -634.000
336.577; -139.100; -936.000; -787.000
336.712;  170.400;   -4.000;  -12.000
336.847; -109.700; -724.000; -607.000
336.981;   93.600; -272.000; -208.000
337.116;  480.300;  615.000;  501.000
337.250;  250.500; -434.000; -421.000
337.385;  587.900; -297.000; -208.000
337.520;  249.200; -632.000; -603.000
337.654;  -40.000; -215.000; -126.000
337.789; -211.200; -989.000; -933.000
337.923;  -30.800; -104.000; -205.000
338.058; -140.100; -673.000; -738.000
338.192;  -56.900; -611.000; -488.000
338.327;   50.800;  -18.000; -155.000
338.461; -136.000; -299.000; -469.000
338.596; -157.800; -780.000; -638.000
338.730; -164.400; -767.000; -803.000
338.865;  234.900;  -46.000; -140.000
338.999;  -73.500; -846.000; -702.000
339.134;  -13.100; -634.000; -536.000
339.268;   70.400; -741.000; -603.000
339.403;  762.900; -740.000; -775.000
339.537;  298.200; -894.000; -820.000
339.671; -183.200; -829.000; -813.000
339.806; -110.900; -556.000; -512.000
339.940;   56.600; -261.000; -235.000
340.074; -176.700; -685.000; -510.000
340.209;  -31.900; -351.000; -230.000
340.343; -156.500; -517.000; -573.000
340.477;  358.600;  998.000; 1036.000
340.612; -103.500;-1033.000; -900.000
340.746;  319.200; -199.000; -243.000
340.880; -137.400; -924.000; -785.000
341.014;    9.000;  -45.000; -154.000
341.149; -214.900; -756.000; -718.000
341.283; -166.700; -839.000; -754.000
341.417; -227.100;-1124.000; -938.000
341.551;  173.200; -768.000; -708.000
341.685;  -57.200; -633.000; -611.000
341.820;  -75.800; -562.000; -493.000
341.954;  -49.500; -218.000; -349.000
342.088; -279.600;-1102.000;-1019.000
342.222;  129.700;  565.000;  618.000
342.356; -114.700; -395.000; -335.000
342.490; -201.300; -880.000; -841.000
342.624;  -72.700; -339.000; -242.000
342.758;  -13.000; -364.000; -312.000
342.892; -114.700; -710.000; -585.000
343.026;  -43.100;  -58.000; -116.000
343.160;  -75.300; -426.000; -376.000
343.294; -110.300; -474.000; -337.000
343.428;  -24.400; -488.000; -448.000
343.562;  -16.200; -172.000;  -23.000
343.696;   -1.800; -385.000; -314.000
343.830;    5.000; -362.000; -356.000
343.964;   25.200; -231.000; -168.000
344.098; 1422.700;  199.000;   70.000
344.232; 1173.400; -266.000; -127.000
344.366;  147.300; -567.000; -453.000
344.500;  111.400; -665.000; -744.000
344.634;   55.300; -324.000; -164.000
344.768;    3.800; -531.000; -341.000
344.902;   60.500;  278.000;  256.000
345.035; -109.900; -556.000; -496.000
345.169; -243.900; -933.000; -656.000
345.303;  -15.900; -308.000; -482.000
345.437; -130.100; -826.000; -717.000
345.571; -106.100; -675.000; -594.000
345.704; -108.700; -309.000; -532.000
345.838;   28.500; -331.000; -284.000
345.972;  -41.400; -543.000; -495.000
346.106;  417.600; -179.000; -190.000
346.239;  844.200; -312.000; -243.000
346.373;   34.400; -343.000; -302.000
346.507; -263.900; -950.000; -962.000
346.640;  264.200;  -30.000;   13.000
346.774;  -97.000; -650.000; -797.000
346.908;   23.100; -138.000;  -11.000
347.041; -170.500; -646.000; -593.000
347.175;   52.500;  259.000;   27.000
347.309; -128.700; -698.000; -628.000
347.442; -189.800; -883.000; -732.000
347.576;  496.100;  670.000;  668.000
347.709;  335.000; -123.000;  -52.000
347.843; -180.500; -933.000; -825.000
347.976;  114.100;  235.000;  294.000
348.110; -332.300;-1268.000;-1186.000
348.243; -161.500; -679.000; -772.000
348.377;   30.000;  -26.000;   60.000
348.510;  191.900;  403.000;  540.000
348.644;  -33.800;  -37.000; -159.000
348.777;   74.100;  180.000;  191.000
348.911;  -43.100; -142.000; -112.000
349.044;  342.000;  471.000;  448.000
349.178;  197.900;-1069.000;-1006.000
349.311;  268.900;  141.000;  255.000
349.444;   41.100; -927.000; -813.000
349.578;  -36.900; -347.000; -200.000
349.711; -197.800; -959.000; -862.000
349.845;  -37.300; -661.000; -591.000
349.978; -288.900;-1224.000;-1137.000
350.111; -134.200; -546.000; -612.000
350.244; -149.600; -596.000; -700.000
350.378;   13.000; -392.000; -393.000
350.511;  -92.400; -393.000; -426.000
350.644; -189.200; -808.000; -806.000
350.778;   32.900;  168.000;  104.000
350.911;   47.100;  134.000;  140.000
351.044; -175.100; -685.000; -615.000
351.177;  -41.100; -321.000; -281.000
351.310;  -17.500;    3.000; -131.000
351.444; -172.100; -888.000; -788.000
351.577;  206.700;  140.000;   90.000
351.710;  243.200;  593.000;  417.000
351.843;  -27.400; -165.000;  -77.000
351.976;   41.900;  149.000;  -79.000
352.109; -155.200; -621.000; -612.000
352.242;  -11.900; -464.000; -419.000
352.376; -128.700; -580.000; -636.000
352.509;  236.700; -437.000; -356.000
352.642;  -45.300; -654.000; -604.000
352.775;  114.500; -141.000;  -98.000
352.908; -229.000; -933.000; -904.000
353.041; -174.100; -814.000; -824.000
353.174; -100.300; -551.000; -424.000
353.307; -138.200; -753.000; -764.000
353.440;  151.600;  541.000;  453.000
353.573; -200.300; -957.000;-1008.000
353.706;  -88.100; -384.000; -558.000
353.839;  -24.200; -264.000; -220.000
353.971; -157.700; -657.000; -512.000
354.104; -169.700; -896.000; -835.000
354.237;  -80.400; -627.000; -662.000
354.370; -138.700; -846.000; -879.000
354.503; -333.400;-1231.000;-1308.000
354.636;  -20.400; -529.000; -348.000
354.769; -235.300; -937.000; -860.000
354.902;    9.700; -230.000; -139.000
355.034;    2.600; -164.000; -220.000
355.167;    9.400; -262.000; -162.000
355.300; -164.400;-1061.000; -880.000
355.433; 2090.600;  -71.000;  -14.000
355.565; 3169.600; -402.000; -384.000
355.698;  814.900; -356.000; -296.000
355.831;    3.700; -882.000; -801.000
355.964;  169.100; -285.000; -170.000
356.096; -120.600; -856.000; -843.000
356.229;   26.100; -523.000; -530.000
356.362;  697.100; -373.000; -266.000
356.494; 1295.500; -229.000; -162.000
356.627;  858.900;  269.000;  377.000
356.760; 1461.100;  120.000;   53.000
356.892; 2044.600; -286.000; -601.000
357.025; 1113.500;  403.000;  389.000
357.157;  919.800; -167.000; -179.000
357.290; 1497.900; -856.000; -713.000
357.423;  430.500; -667.000; -556.000
357.555;  200.700; -217.000; -228.000
357.688;  188.200; -483.000; -364.000
357.820;  691.000; -870.000; -877.000
357.953; 5819.400; -563.000; -589.000
358.085; 1193.200; -632.000; -612.000
358.218; 1566.500;-1131.000; -932.000
358.350;  347.700;  -58.000;  312.000
358.483; -256.600;-1300.000;-1187.000
358.615;  -83.000;-1182.000;-1078.000
358.747; -169.300;-1187.000;-1058.000
358.880;   25.200; -810.000; -744.000
359.012;  -22.700; -376.000; -202.000
359.145;  -66.700; -480.000; -511.000
359.277;   10.400; -962.000; -913.000
359.409; 4812.600;  536.000;  231.000
359.542; 1145.000; -738.000; -688.000
359.674;  147.100;   46.000;   13.000
359.806;  -79.700; -565.000; -438.000
359.939;  -27.900; -617.000; -516.000
360.071;   34.700; -583.000; -579.000
360.203;   -4.800; -411.000; -364.000
360.335;  121.400;  164.000;  -16.000
360.468;  333.600; -249.000; -307.000
360.600; 4010.900; -547.000; -454.000
360.732; 6079.600; -546.000; -423.000
360.864;  763.100;-1216.000;-1044.000
360.996;  434.700; -516.000; -554.000
361.129;   44.900; -389.000; -598.000
361.261;   72.000;  110.000; -113.000
361.393;  -67.800; -252.000; -214.000
361.525;  115.800;   94.000;  244.000
361.657;  -80.600; -821.000; -703.000
361.789;   32.700; -139.000; -155.000
361.921;  311.900; -642.000; -593.000
362.053;  449.900;  524.000;  541.000
362.185;  142.600;  288.000;   72.000
362.318; -143.600; -709.000; -705.000
362.450;  243.700;  294.000;  444.000
362.582;   71.200; -913.000; -870.000
362.714;  -30.900; -353.000; -332.000
362.846; -136.400; -606.000; -490.000
362.978; -255.600; -941.000; -811.000
363.109;   91.400; -161.000; -260.000
363.241;  666.500; -739.000; -749.000
363.373;  945.400; -649.000; -564.000
363.505; 1501.900; -186.000;  -91.000
363.637;  377.100; -787.000; -601.000
363.769; -212.900;-1067.000;-1080.000
363.901; -133.300; -596.000; -654.000
364.033; -222.500;-1103.000;-1062.000
364.165;   21.600; -283.000; -283.000
364.296;  192.700; -316.000; -177.000
364.428;  234.000;-1344.000;-1220.000
364.560;  -76.600; -679.000; -661.000
364.692;  -88.000; -738.000; -835.000
364.824;  360.500; -588.000; -456.000
364.955;  901.400; -402.000; -564.000
365.087; 2089.500;-1097.000; -852.000
365.219;   94.600; -686.000; -816.000
365.351; -105.800; -526.000; -572.000
365.482;  136.100;  300.000;  240.000
365.614;  -82.900; -402.000; -314.000
365.746; -139.200; -729.000; -752.000
365.877; -186.400; -706.000; -672.000
366.009;  628.800;  -35.000;  -62.000
366.141; -115.100;-1249.000;-1134.000
366.272; -177.100; -803.000; -719.000
366.404; -224.900;-1005.000; -874.000
366.535;   31.300; -139.000;  -12.000
366.667; -182.300; -644.000; -649.000
366.799;  132.100;  353.000;  203.000
366.930; -204.600; -862.000; -996.000
367.062;  320.800; -639.000; -613.000
367.193;  346.400; -872.000; -842.000
367.325;  -80.000; -580.000; -684.000
367.456;   62.200; -246.000;   31.000
367.588;  386.600; -371.000; -318.000
367.719;   75.900;  -44.000;  -45.000
367.851;    3.900; -222.000; -241.000
367.982; -115.500; -875.000; -732.000
368.113;  134.200; -475.000; -358.000
368.245; -203.200; -960.000; -841.000
368.376;   12.300; -254.000; -302.000
368.508;  -41.300; -188.000; -263.000
368.639; -240.100;-1166.000;-1034.000
368.770;  -21.900; -670.000; -589.000
368.902; -129.600; -836.000; -926.000
369.033; -177.300; -906.000; -855.000
369.164;  -61.000; -720.000; -653.000
369.296; -165.100; -452.000; -601.000
369.427;   25.100; -209.000; -144.000
369.558;  -84.800; -593.000; -377.000
369.689; -102.500; -721.000; -569.000
369.821; -240.300; -951.000; -845.000
369.952;   22.600;   42.000; -108.000
370.083;  -38.300; -229.000; -108.000
370.214;  -84.900; -735.000; -650.000
370.345;   40.600;   65.000;   81.000
370.477; -137.700; -810.000; -790.000
370.608;  342.700; -328.000; -264.000
370.739; -138.800;-1233.000;-1292.000
370.870; -104.100;-1102.000; -923.000
371.001;  173.800; -378.000; -467.000
371.132; -162.100; -754.000; -735.000
371.263;   24.100;  -42.000; -148.000
371.394; -247.100; -841.000; -748.000
371.525;  122.800;  345.000;  225.000
371.657; -179.400; -808.000; -670.000
371.788;  151.400;  103.000;  199.000
371.919;  218.800; -384.000; -304.000
372.050; 5587.600;  -91.000; -156.000
372.181; 1531.300; -188.000; -294.000
372.311;  578.700;   42.000; -127.000
372.442;   48.200; -457.000; -451.000
372.573;  -22.300; -444.000; -340.000
372.704; -248.000;-1008.000; -980.000
372.835;  151.500; -228.000; -289.000
372.966;  -92.800; -646.000; -554.000
373.097; -127.900; -575.000; -711.000
373.228;  -76.400; -717.000; -542.000
373.359;  167.300; -824.000; -536.000
373.490; 1402.200; -881.000; -727.000
373.620; 1697.100;-1001.000; -803.000
373.751; 2655.400; -332.000; -396.000
373.882; 1091.200; -663.000; -733.000
374.013;   60.300; -449.000; -262.000
374.143;  -46.100; -581.000; -659.000
374.274; -210.300; -987.000; -908.000
374.405;  297.600; -388.000; -276.000
374.536;  640.500; -526.000; -387.000
374.666; 1626.200; -759.000; -807.000
374.797;  283.800; -817.000; -868.000
374.928; 1245.100; -710.000; -560.000
375.058; 1342.100; -535.000; -500.000
375.189;  153.200;  -59.000;  -93.000
375.320; -158.000; -928.000;-1034.000
375.450;  -40.700; -625.000; -616.000
375.581;  -45.700; -526.000; -436.000
375.712;    5.600; -574.000; -250.000
375.842;  435.100; -438.000; -415.000
375.973;  311.200; -554.000; -513.000
376.103; -128.300; -665.000; -648.000
376.234; -102.200; -531.000; -552.000
376.364;  -94.700; -944.000; -867.000
376.495;  581.800;  925.000;  529.000
376.625;  -37.900; -472.000; -485.000
376.756;   95.100; -709.000; -678.000
376.886; -179.600;-1178.000;-1026.000
377.017;  181.400;-1048.000;-1061.000
377.147;  796.900; -786.000; -782.000
377.278;  165.400;  174.000;  228.000
377.408; -222.200; -801.000; -815.000
377.538; -182.200; -707.000; -693.000
377.669; -140.400; -537.000; -613.000
377.799; -164.500; -645.000; -635.000
377.929;  -74.300; -610.000; -428.000
378.060; -209.900; -781.000; -847.000
378.190;  -60.700; -726.000; -531.000
378.320;  -19.100; -401.000; -406.000
378.451;   53.300; -131.000;  -22.000
378.581;   27.300;  -67.000; -110.000
378.711;  341.200; 1035.000;  866.000
378.841;  -32.400; -533.000; -675.000
378.972; -196.700; -871.000; -751.000
379.102;  -11.600; -652.000; -579.000
379.232;   -7.700; -126.000;  -73.000
379.362; -190.200;-1001.000; -885.000
379.492;   20.500; -373.000; -424.000
379.623;  177.100;    0.000;  111.000
379.753; -193.400;-1107.000; -974.000
379.883;  372.200;   59.000;  156.000
380.013;  -42.400;-1081.000;-1017.000
380.143; -203.500;-1097.000;-1056.000
380.273; -217.200; -985.000; -861.000
380.403;   33.000; -344.000; -257.000
380.533;  -21.200; -651.000; -664.000
380.663;  191.800;  173.000;  128.000
380.793; -200.700;-1027.000;-1074.000
380.923;  -10.600; -103.000;  -34.000
381.053; -168.600; -613.000; -623.000
381.183;  -29.500; -106.000; -248.000
381.313;   58.200; -656.000; -470.000
381.443;   39.300; -692.000; -473.000
381.573;  323.900; -402.000; -409.000
381.703;  350.400;-1249.000;-1095.000
381.833; -283.200;-1454.000;-1336.000
381.963;  233.500; -134.000;  -87.000
382.093; 2207.900; -925.000; -909.000
382.223;  603.200; -713.000; -602.000
382.353;  -70.300; -801.000; -608.000
382.482;  536.700;-1091.000; -964.000
382.612; 1209.200; -872.000; -644.000
382.742;  606.000; -695.000; -622.000
382.872;  365.300; -565.000; -551.000
383.002;  140.400;  347.000; -132.000
383.131;   -3.400; -226.000; -160.000
383.261;  -65.100; -706.000; -768.000
383.391;  613.300; -552.000; -377.000
383.521; 7122.300;  451.000;  263.000
383.650; 1580.100; -947.000; -904.000
383.780;   15.300; -783.000; -656.000
383.910;  247.600;  880.000;  802.000
384.039;   41.700; -794.000; -656.000
384.169;  252.600;-1205.000;-1017.000
384.299;  -49.400; -650.000; -662.000
384.428; -182.600; -764.000; -680.000
384.558;  -47.100; -308.000; -275.000
384.687;  -39.300; -414.000; -334.000
384.817;   83.300;   75.000;   -2.000
384.947;   55.900; -234.000; -141.000
385.076;  527.300;  982.000;  912.000
385.206;  243.400;  369.000;  480.000
385.335;  -40.300; -549.000; -417.000
385.465; -140.000; -655.000; -663.000
385.594;  231.800;  -53.000;  -44.000
385.724;  577.000; -868.000; -838.000
385.853;  185.300; -296.000; -270.000
385.982; 2125.400; -743.000; -787.000
386.112; 3114.700;-1052.000; -871.000
386.241;  202.700; -307.000; -312.000
386.371;   78.400; -174.000;  -87.000
386.500;  -24.400; -825.000; -789.000
386.629;   36.700; -874.000; -817.000
386.759;  163.300;  -43.000;   68.000
386.888;   50.300; -170.000; -250.000
387.017; -155.100; -648.000; -620.000
387.147; -146.300; -771.000; -798.000
387.276;   -5.900; -410.000; -397.000
387.405;    9.800; -398.000; -342.000
387.535;  -48.700; -452.000; -361.000
387.664;  -92.000; -692.000; -620.000
387.793;  119.600; -198.000; -113.000
387.922;  795.900;  255.000;  200.000
388.052;    6.300; -576.000; -423.000
388.181;   52.500; -342.000; -472.000
388.310;  -67.300; -889.000; -710.000
388.439;  -99.100; -749.000; -742.000
388.568;  294.100;  365.000;  244.000
388.697; 1560.600; -756.000; -653.000
388.826;  275.600; -768.000; -666.000
388.956;  101.200; -285.000; -307.000
389.085;  -47.200; -347.000; -287.000
389.214; -172.700; -842.000; -872.000
389.343; -107.100; -645.000; -413.000
389.472;  917.100;  126.000;  149.000
389.601; 1018.500;   91.000;    0.000
389.730;   38.800; -568.000; -687.000
389.859;  156.600;  226.000;   46.000
389.988;  303.100; -423.000; -408.000
390.117;  248.000; -168.000; -146.000
390.246;  -21.200; -331.000; -320.000
390.375;   80.200; -673.000; -626.000
390.504; -110.600; -703.000; -621.000
390.633; -184.600; -672.000; -726.000
390.761;  -85.900; -732.000; -645.000
390.890;   62.900;   -4.000; -130.000
391.019;  -26.400; -421.000; -441.000
391.148; -223.400; -826.000; -855.000
391.277; -135.100; -576.000; -493.000
391.406; -183.800; -821.000; -805.000
391.534;  100.000;  574.000; -301.000
391.663; -133.500; -583.000; -645.000
391.792; -133.600; -673.000; -701.000
391.921;  174.200;   -3.000;   15.000
392.050;  282.000; -287.000; -228.000
392.178; -129.900;-1206.000;-1061.000
392.307;  201.600; -758.000; -712.000
392.436;  106.200; -427.000; -641.000
392.564;   93.200;  166.000;   -6.000
392.693; -185.700; -860.000; -682.000
392.822;  305.500; -529.000; -534.000
392.950;  106.800; -880.000; -714.000
393.079;  578.100; -188.000; -328.000
393.208;   41.300; -488.000; -511.000
393.336;   38.300; -170.000; -145.000
393.465;  -54.800; -317.000; -199.000
393.593;   93.000;   62.000;   79.000
393.722; -268.500;-1121.000; -916.000
393.850;    1.500; -188.000;  -61.000
393.979; -254.700; -926.000; -805.000
394.107;  -72.300; -517.000; -537.000
394.236;  -25.400; -570.000; -507.000
394.364;  552.100;  383.000;  206.000
394.493;  762.400; -911.000; -767.000
394.621;   13.700; -955.000; -916.000
394.750; 1715.200; -873.000; -923.000
394.878; 6670.400; -247.000; -149.000
395.007; 8499.100; -721.000; -807.000
395.135;  656.900; -790.000; -721.000
395.263; -143.000;-1038.000;-1040.000
395.392;   90.800;  -25.000; -107.000
395.520; -250.300; -818.000; -679.000
395.648; -155.400; -865.000; -915.000
395.777;  -23.600; -366.000; -405.000
395.905;  -13.500; -449.000; -564.000
396.033;   97.000;  217.000;  172.000
396.162; 1261.800; -399.000; -453.000
396.290; 1081.300;  -17.000;   -2.000
396.418;  162.600; -555.000; -514.000
396.546; -141.600; -571.000; -466.000
396.674; -158.800; -850.000; -878.000
396.803;   59.100;  -72.000;  -23.000
396.931;  204.700; -179.000; -199.000
397.059;   29.100;-1026.000; -989.000
397.187; -187.300;-1026.000; -975.000
397.315; -269.300; -884.000; -649.000
397.443; -143.400; -592.000; -443.000
397.572; -151.100; -578.000; -424.000
397.700;  -10.100; -607.000; -614.000
397.828;   49.400;  120.000;  -90.000
397.956;  -26.800; -508.000; -478.000
398.084;  -96.200; -767.000; -626.000
398.212;  126.200;  137.000;  124.000
398.340;   53.200;  -56.000;  159.000
398.468;   57.700; -390.000; -169.000
398.596; -254.400; -993.000; -953.000
398.724; -238.300; -762.000; -767.000
398.852; -266.600;-1024.000; -976.000
398.980; -118.500; -560.000; -560.000
399.108; -129.000; -982.000; -735.000
399.236;   66.300;   13.000;    8.000
399.363;   94.200;  222.000;  196.000
399.491;  -66.800; -404.000; -398.000
399.619; -203.900; -829.000; -800.000
399.747; -172.600; -859.000; -771.000
399.875;  192.300;  220.000;  234.000
400.003;  -37.100; -359.000; -284.000
400.130; -124.400; -421.000; -341.000
400.258;    4.800;  -83.000;   38.000
400.386;  -74.800; -352.000; -168.000
400.514;  -58.900; -526.000; -587.000
400.641; -172.800; -928.000; -802.000
400.769; -232.800; -979.000; -888.000
400.897; -195.500; -838.000; -793.000
401.025;   37.300; -166.000; -152.000
401.152;   42.600;  220.000;   38.000
401.280;  -80.400; -430.000; -429.000
401.408; -193.000; -712.000; -576.000
401.535; -165.200; -735.000; -758.000
401.663; -341.300;-1134.000;-1054.000
401.790; -111.400; -514.000; -525.000
401.918;  144.900;  436.000;  405.000
402.046;   42.600;  134.000;  122.000
402.173;  -15.900;  -18.000;    7.000
402.301;  -87.900; -519.000; -397.000
402.428;  119.200;  528.000;  383.000
402.556; -242.700;-1188.000; -913.000
402.683;   -0.500;  -20.000;   -1.000
402.811;    7.100;  -37.000; -206.000
402.938;   52.800;   20.000;   27.000
403.066;  306.000; -574.000; -558.000
403.193;  509.500;  299.000;  239.000
403.321;  434.800; -396.000; -574.000
403.448;  514.200;   83.000;   27.000
403.575;  281.300;  -90.000;  -46.000
403.703; -122.200; -732.000; -557.000
403.830;  -72.200; -531.000; -496.000
403.957; -244.200;-1117.000;-1023.000
404.085;   78.600;  -61.000; -172.000
404.212;  233.500;  -50.000;   63.000
404.339;  660.500; -566.000; -306.000
404.467;13116.700; -612.000; -524.000
404.594; 7440.500; -287.000; -227.000
404.721; 1617.900; -869.000; -764.000
404.848;  211.400; -113.000; -202.000
404.976; -164.100; -856.000; -783.000
405.103;   93.500;  -14.000;  -82.000
405.230;   32.400;  190.000;  226.000
405.357;  131.900;  117.000;   44.000
405.484;  669.000;  -49.000;    5.000
405.612;  149.000; -548.000; -563.000
405.739;  -83.100; -488.000; -243.000
405.866;  250.800;  669.000;  385.000
405.993;  -71.200; -398.000; -102.000
406.120; -226.100; -801.000; -887.000
406.247;  -79.200; -323.000; -342.000
406.374;  757.100;  540.000;  629.000
406.501;  110.000; -632.000; -702.000
406.628; -117.700; -621.000; -589.000
406.755; -167.300; -803.000; -620.000
406.882;  -33.700; -228.000; -277.000
407.009; -164.500; -719.000; -628.000
407.136;   59.800; -480.000; -401.000
407.263;  152.900; -939.000; -829.000
407.390; -100.300; -692.000; -614.000
407.517; -330.200;-1139.000;-1187.000
407.644;  -51.600; -332.000; -256.000
407.771;  -86.400; -249.000; -287.000
407.898;   79.300;  168.000;  328.000
408.025;  -65.800; -421.000; -313.000
408.151;   28.700;   82.000;  153.000
408.278;  -58.700; -267.000; -216.000
408.405; -182.900; -931.000; -899.000
408.532; -126.600; -549.000; -542.000
408.659; -177.100; -677.000; -648.000
408.785; -372.200;-1298.000;-1170.000
408.912;  -91.900; -412.000; -296.000
409.039; -150.600; -610.000; -686.000
409.166; -160.400; -591.000; -555.000
409.292; -189.300; -571.000; -534.000
409.419; -191.600; -665.000; -649.000
409.546; -118.600; -431.000; -192.000
409.672; -159.400; -713.000; -545.000
409.799;   -2.800;  -36.000;   34.000
409.926;   -3.200; -180.000; -179.000
410.052; -292.800;-1127.000;-1091.000
410.179;  -92.700; -368.000; -392.000
410.305; -101.400; -375.000; -493.000
410.432;  -15.400; -220.000; -333.000
410.558; -157.900; -305.000; -380.000
410.685; -178.800; -688.000; -431.000
410.812; -144.800; -409.000; -588.000
410.938; -225.400; -964.000; -808.000
411.065; -158.600; -671.000; -645.000
411.191;   -0.200; -189.000; -174.000
411.317; -198.300; -823.000; -742.000
411.444;  -57.100; -317.000; -246.000
411.570;  -92.100; -339.000; -294.000
411.697; -201.000; -758.000; -752.000
411.823; -304.500; -989.000; -999.000
411.949;   13.700;  -56.000;   17.000
412.076; -180.600; -539.000; -519.000
412.202; -170.900; -758.000; -757.000
412.329; -208.200; -798.000; -752.000
412.455; -178.400; -821.000; -657.000
412.581;    5.000;  -15.000;  172.000
412.707; -105.100; -540.000; -457.000
412.834;   77.200;  156.000;  219.000
412.960; -129.800; -785.000; -784.000
413.086; -171.800; -743.000; -701.000
413.212;  357.100;  604.000;  578.000
413.339; -103.000; -685.000; -701.000
413.465;   50.900; -364.000; -310.000
413.591; -172.600; -757.000; -474.000
413.717;  -45.400; -358.000; -366.000
413.843; -236.800; -839.000; -861.000
413.969;  -92.700;  -47.000; -292.000
414.096; -142.300; -679.000; -679.000
414.222;   56.800;  -33.000;   85.000
414.348;  -42.700; -652.000; -385.000
414.474;  201.800;   38.000;  -52.000
414.600;   12.400; -126.000; -144.000
414.726;   37.700;  -96.000;  -55.000
414.852;  -64.400; -365.000; -342.000
414.978;  124.700;  104.000;  -18.000
415.104;  157.700;   38.000;   80.000
415.230;  103.500; -329.000; -330.000
415.356;  153.300; -409.000; -514.000
415.482;  517.200;   13.000;  -35.000
415.608;  628.400; -247.000; -323.000
415.734; 2196.700;   67.000;   38.000
415.860;44072.100; -875.000; -767.000
415.986;28854.800; -685.000; -607.000
416.111; 2385.000; -798.000; -652.000
416.237;  608.600; -424.000; -571.000
416.363; 2773.300; -765.000; -733.000
416.489; 9039.300; -324.000; -251.000
416.615;  905.900; -707.000; -742.000
416.741;   31.200; -677.000; -784.000
416.866; -115.300; -673.000; -736.000
416.992; -167.100; -801.000; -818.000
417.118;   26.800;  -41.000;  -80.000
417.244;  -50.800; -798.000; -531.000
417.369; -119.600; -801.000; -612.000
417.495;   44.900; -325.000; -254.000
417.621; -151.000;-1015.000; -803.000
417.746;   61.200; -579.000; -572.000
417.872;  164.400; -254.000; -144.000
417.998;  177.400; -515.000; -530.000
418.123; 2590.200;-1073.000; -845.000
418.249;12018.000; -512.000; -601.000
418.374; 1583.500; -916.000; -824.000
418.500;  308.900; -383.000; -482.000
418.626;  332.700;   70.000;  -59.000
418.751;  272.300; -549.000; -448.000
418.877;  511.500; -637.000; -643.000
419.002; 4445.000; -688.000; -560.000
419.128;27962.900; -930.000; -721.000
419.253; 6163.400; -967.000; -837.000
419.379;  888.300; -391.000; -338.000
419.504;  888.600;  325.000;  415.000
419.629; 1181.000; -393.000; -212.000
419.755; 8901.500; -317.000; -254.000
419.880;46673.200;  -98.000;   67.000
420.006;25556.800; -280.000; -221.000
420.131;60182.100; -662.000; -775.000
420.256; 7803.400; -315.000; -316.000
420.382; 1133.000; -665.000; -687.000
420.507;  167.900; -649.000; -778.000
420.632;  192.500; -337.000; -339.000
420.758;  364.500; -251.000; -425.000
420.883; -152.000; -876.000; -672.000
421.008; -143.700; -775.000; -619.000
421.133; -119.100; -509.000; -467.000
421.259;  -30.600; -325.000; -259.000
421.384; -189.100; -834.000; -693.000
421.509;  -78.100;-1052.000; -862.000
421.634; 1558.000; -936.000; -820.000
421.759;  641.800; -359.000; -327.000
421.885; -111.800; -717.000; -656.000
422.010;  -83.000; -673.000; -542.000
422.135; -220.100; -695.000; -727.000
422.260;  162.200;  340.000;  280.000
422.385;  -23.000;   12.000;  -98.000
422.510;   56.500;  151.000;  -26.000
422.635;   90.600;  -87.000;  -43.000
422.760;  180.700; -766.000; -791.000
422.885;  150.000;  -57.000;  -80.000
423.010;   -9.300; -112.000; -169.000
423.135; -159.200; -481.000; -561.000
423.260;   22.300; -150.000; -245.000
423.385;  200.100;  476.000;  222.000
423.510;  130.000;   71.000;  -22.000
423.635;  154.900;  133.000;   45.000
423.760;  193.500;  383.000;  328.000
423.885;  183.000;  336.000;  391.000
424.010;  102.700;  -68.000;  -13.000
424.135;   62.000;    5.000;  -33.000
424.259; -123.500; -654.000; -457.000
424.384;  -39.400; -279.000; -272.000
424.509;   11.200; -260.000; -186.000
424.634; -126.500; -761.000; -623.000
424.759;    9.700; -688.000; -544.000
424.883;   26.300; -506.000; -527.000
425.008;  402.700; -502.000; -410.000
425.133; 4551.000; -679.000; -653.000
425.258; 1881.300; -517.000; -381.000
425.382; 1797.800; -867.000; -774.000
425.507; 3987.200; -487.000; -543.000
425.632;  707.300; -802.000; -663.000
425.756; 1043.200; -256.000; -146.000
425.881;16359.300; -831.000; -857.000
426.006;39607.000; -604.000; -355.000
426.130; 5452.200; -696.000; -508.000
426.255;  795.100; -611.000; -491.000
426.379;  390.400; -189.000; -577.000
426.504;  859.100;  660.000;  544.000
426.629; 9227.600; -519.000; -466.000
426.753; 5565.500;   64.000;  -46.000
426.878;  706.500; -252.000; -288.000
427.002;  449.000; -651.000; -668.000
427.127; 3842.500;  -35.000; -158.000
427.251;25459.300;  372.000;  401.000
427.375; 6206.000; -191.000; -173.000
427.500; 3699.600; -616.000; -610.000
427.624; 1103.900; -234.000; -400.000
427.749;  237.300; -216.000; -225.000
427.873;  -63.100; -499.000; -412.000
427.997;  -23.300; -222.000; -230.000
428.122;  207.900;  795.000;  703.000
428.246;  236.300;  433.000;  434.000
428.371; -218.800; -869.000; -773.000
428.495; -157.500; -624.000; -646.000
428.619;  -19.300; -186.000; -117.000
428.743;  121.600;   65.000;  132.000
428.868;   25.800; -732.000; -643.000
428.992; 2180.900; -219.000; -326.000
429.116;  778.800; -329.000; -357.000
429.240;  441.000;  419.000;  426.000
429.365;   -4.700; -454.000; -574.000
429.489;  -32.000; -638.000; -647.000
429.613;   99.200; -236.000; -177.000
429.737;  161.700; -563.000; -432.000
429.861;  654.600; -247.000; -133.000
429.985;12969.100; -425.000; -305.000
430.109;12683.800; -770.000; -908.000
430.234; 1449.600;   76.000;  -50.000
430.358;  148.600; -250.000; -160.000
430.482;  -74.000; -672.000; -564.000
430.606;  -77.300; -655.000; -375.000
430.730;   66.300; -437.000; -388.000
430.854;  158.000; -909.000; -835.000
430.978; -111.300; -795.000; -764.000
431.102;  -96.700; -499.000; -422.000
431.226; -195.100; -874.000; -815.000
431.350;  112.400;  345.000;  422.000
431.474;  -85.900; -661.000; -373.000
431.597; -240.700;-1060.000; -848.000
431.721; -107.300; -276.000; -267.000
431.845; -213.200; -704.000; -472.000
431.969;  -88.100; -304.000; -349.000
432.093; -140.400; -395.000; -317.000
432.217;   21.300;   32.000;   82.000
432.341; -106.800; -523.000; -518.000
432.464;   83.300;   96.000;   40.000
432.588;  302.800; -401.000; -329.000
432.712;  218.400;  -52.000;  -52.000
432.836;  168.100;  213.000;  263.000
432.959;   46.900; -372.000; -311.000
433.083;  295.500;   11.000;    2.000
433.207;  931.500;  285.000;  930.000
433.330;12092.100; -391.000; -200.000
433.454;13346.000; -654.000; -638.000
433.578; 7826.800;  583.000;  278.000
433.701; 1312.900; -623.000; -675.000
433.825;  278.400; -292.000; -299.000
433.949;  269.600;   28.000;  -72.000
434.072;   87.500; -410.000; -323.000
434.196;   47.100; -309.000; -117.000
434.319; 8044.200;25482.000;25124.000
434.443; 1675.600; -656.000; -603.000
434.566; 5762.100;  281.000;   62.000
434.690;  935.900; -637.000; -383.000
434.813;  183.100; -251.000; -173.000
434.937;  -83.000; -569.000; -696.000
435.060;  -67.700; -423.000; -332.000
435.184;  384.200; -492.000; -217.000
435.307;  276.300;  159.000;  102.000
435.431;   36.900;  -40.000;   24.000
435.554;  -73.000; -399.000; -240.000
435.677; -114.400; -350.000; -258.000
435.801;  -25.700;  -25.000;   49.000
435.924;   42.700;    1.000;  -67.000
436.048; -240.200;-1019.000; -732.000
436.171;  -74.000; -240.000;  -66.000
436.294;   35.700; -248.000; -229.000
436.417;  286.500; -963.000; -849.000
436.541; -137.600; -814.000; -840.000
436.664;  -19.100; -242.000; -316.000
436.787;   47.800;   13.000;  113.000
436.910; -144.000; -792.000; -422.000
437.034;   31.200;  142.000;  143.000
437.157;  156.800;  -11.000;    0.000
437.280; -114.800; -392.000; -292.000
437.403; -134.200; -982.000; -869.000
437.526;  836.700; -903.000; -865.000
437.649; 2908.400; -505.000; -332.000
437.772;  302.400; -692.000; -540.000
437.896;  278.800;  700.000;  544.000
438.019; -161.700; -758.000; -503.000
438.142; -107.700; -596.000; -506.000
438.265;  -22.000; -639.000; -670.000
438.388;  847.600; -520.000; -410.000
438.511;   90.600; -597.000; -394.000
438.634;  -82.000; -247.000; -125.000
438.757; -217.600; -693.000; -619.000
438.880;   -7.400;  -34.000;  -57.000
439.003; -120.400; -417.000; -437.000
439.126;  -52.000; -287.000; -167.000
439.248;  -64.600;  -98.000; -139.000
439.371;  -20.500;    9.000;  -53.000
439.494;  128.900;  510.000;  439.000
439.617;  -14.700;   65.000;  -88.000
439.740; -332.500; -968.000; -816.000
439.863; -252.900; -755.000; -595.000
439.986; -199.200; -476.000; -431.000
440.108;  -30.900; -161.000; -112.000
440.231; -263.900; -950.000; -836.000
440.354;  -29.300;  -64.000; -150.000
440.477;   31.200; -566.000; -542.000
440.599;   10.800; -200.000; -225.000
440.722; -187.900; -709.000; -586.000
440.845;  262.400;  751.000;  928.000
440.968; -158.600; -415.000; -311.000
441.090;  -60.600; -199.000;  -33.000
441.213; -286.300;-1021.000; -825.000
441.336;   -6.500; -159.000;   -5.000
441.458; -133.400; -549.000; -396.000
441.581; -160.700; -628.000; -629.000
441.703;  -85.600; -152.000;   13.000
441.826; -168.700; -557.000; -400.000
441.948;  -34.000;   56.000;   51.000
442.071;  142.600;  555.000;  424.000
442.193; -178.300; -531.000; -485.000
442.316;  125.400;  152.000;   97.000
442.438;  151.600; -233.000;  -10.000
442.561;  196.700;  272.000;  262.000
442.683;  771.500; -809.000; -522.000
442.806; 1518.300;   -8.000;   74.000
442.928;  -74.400; -859.000; -604.000
443.051; -107.000; -577.000; -373.000
443.173; -126.300; -341.000; -339.000
443.295; -124.000; -263.000; -371.000
443.418;  -91.400; -321.000;  -29.000
443.540;   51.300; -106.000;   -4.000
443.662; -185.200; -563.000; -465.000
443.785;   57.000;  335.000;  199.000
443.907; -148.300; -362.000; -208.000
444.029; -197.800; -767.000; -494.000
444.152; -197.400; -644.000; -554.000
444.274;  -12.300;  -18.000;  -24.000
444.396; -155.300; -461.000; -221.000
444.518; -197.600; -691.000; -454.000
444.640; -139.500; -268.000; -111.000
444.763;   57.100;  388.000;  249.000
444.885; -161.400; -432.000; -392.000
445.007;    4.100;   35.000;   86.000
445.129; -209.000; -610.000; -515.000
445.251; -148.100; -372.000; -439.000
445.373; -251.100; -537.000; -386.000
445.495;   90.400;  242.000;  350.000
445.617;  190.100;  853.000;  753.000
445.739;  -64.000; -215.000;  -97.000
445.861;    4.400; -245.000; -112.000
445.984;  -14.500; -267.000; -101.000
446.105;  310.200; -418.000; -251.000
446.227;  855.300; -176.000;  -19.000
446.349;   12.200; -358.000; -249.000
446.471; -164.700; -615.000; -448.000
446.593;  -94.600; -316.000;   19.000
446.715;   36.700;  -67.000;   41.000
446.837;  193.200;  697.000;  832.000
446.959; -156.500; -457.000; -478.000
447.081; -210.900; -628.000; -518.000
447.203;  202.500;  862.000;  834.000
447.325; -126.400; -270.000;   42.000
447.446;   52.500;  286.000;  530.000
447.568; -306.000; -921.000; -803.000
447.690;  -95.100; -236.000; -245.000
447.812; -230.900; -798.000; -519.000
447.933;   15.400;  155.000;  127.000
448.055;  -78.200; -306.000; -261.000
448.177;  283.300;   31.000;   79.000
448.299;   13.200; -935.000; -727.000
448.420;   80.400;  -25.000;  159.000
448.542;  -12.800;   -3.000;   33.000
448.664;   29.700;  109.000;  322.000
448.785;  -23.000;  265.000;   83.000
448.907; -122.600; -614.000; -353.000
449.028;  -75.700; -771.000; -471.000
449.150;  182.600;  492.000;  589.000
449.272; -305.300;-1044.000; -913.000
449.393;  114.000;  612.000;  694.000
449.515; -222.900; -634.000; -581.000
449.636;  -69.200; -264.000; -155.000
449.758;  243.000;  763.000;  622.000
449.879; -116.600; -498.000; -396.000
450.001;  -76.700; -149.000;  -49.000
450.122;    5.700;  -95.000;  162.000
450.244;   15.300;   37.000;  364.000
450.365; -109.200; -495.000; -301.000
450.486;   -7.000;   80.000;  268.000
450.608;   91.100;  393.000;  326.000
450.729;  240.300;  578.000;  645.000
450.850;  141.700; -574.000; -466.000
450.972; 1974.400; -552.000; -389.000
451.093;11508.500;  190.000;  588.000
451.214; 4413.100; -516.000; -337.000
451.336;  873.200;  773.000;  579.000
451.457;  191.200;  264.000;  393.000
451.578;   22.700; -118.000;  -74.000
451.699; -166.600; -546.000; -540.000
451.821;  -42.900; -284.000;  -50.000
451.942;   82.700;  278.000;  285.000
452.063;  162.000;  228.000;  419.000
452.184; 1416.500;  -54.000;  -49.000
452.305; 2429.400;  103.000;  170.000
452.427;  323.000; -549.000; -301.000
452.548;   50.800;   23.000;   79.000
452.669;  -15.900; -257.000;  -89.000
452.790;  -19.000;    3.000;  -18.000
452.911;   53.700;  195.000;  259.000
453.032;  -95.600; -289.000;  -60.000
453.153;  -12.900;  -29.000;   81.000
453.274;  244.100;  737.000;  868.000
453.395;  -25.300;  -51.000;  175.000
453.516;  326.200; 1317.000; 1388.000
453.637;  -87.500; -205.000; -150.000
453.758;  -47.900;   15.000;   69.000
453.879; -192.000; -462.000; -250.000
454.000;  260.300; 1086.000;  948.000
454.121; -177.500; -554.000; -326.000
454.242; -197.900; -599.000; -383.000
454.362;  -57.200;  -99.000;  114.000
454.483;  -13.600; -309.000; -229.000
454.604;  165.400;  512.000;  580.000
454.725; -188.100; -627.000; -555.000
454.846; -193.000; -474.000; -406.000
454.967;   43.600;  230.000;  539.000
455.087;  -45.000;  179.000;  153.000
455.208;  111.600;  554.000;  856.000
455.329;  -52.300;  -22.000;   82.000
455.450;  184.100;  473.000;  633.000
455.570; -102.500; -234.000; -211.000
455.691;   37.600;  201.000;  407.000
455.812; -187.900; -270.000;  -92.000
455.932;  -46.300;  107.000;  -97.000
456.053; -119.500;   36.000;   24.000
456.173; -145.000; -433.000; -355.000
456.294; -210.000; -476.000; -303.000
456.415;  -43.500;  -73.000;   70.000
456.535;    4.000;  297.000;  273.000
456.656;   -5.900;  132.000;  240.000
456.776;  -89.800;    3.000;  298.000
456.897;   83.000;  308.000;  513.000
457.017;  -73.100; -153.000;   -3.000
457.138; -135.400; -402.000; -249.000
457.258;   19.300;  263.000;  224.000
457.379;   53.400;  509.000;  521.000
457.499;   10.200;  443.000;  432.000
457.620; -180.100; -407.000; -231.000
457.740; -107.100; -132.000;  -11.000
457.860;  -46.100;   87.000;   44.000
457.981;  -36.700;  132.000;  124.000
458.101;  -78.600;  -89.000;   40.000
458.221;   61.500;  336.000;  402.000
458.342;  -48.000;   -4.000;  -37.000
458.462;  126.000;  617.000;  352.000
458.582;   31.300; -302.000; -294.000
458.703;  110.500;  303.000;  154.000
458.823;   40.600;   22.000;  163.000
458.943;  133.500;  341.000;  467.000
459.063;   37.900; 1124.000;  192.000
459.183;   47.200;  328.000;  313.000
459.304;   92.000;  315.000;  517.000
459.424;  -77.500; -246.000;  -89.000
459.544;  898.700;  388.000;  764.000
459.664; 1924.000;  499.000;  506.000
459.784;  732.100; 1004.000; 1175.000
459.904;  170.900;  867.000;  744.000
460.024;  199.200;  867.000;  684.000
460.144;   79.800;  449.000;  554.000
460.264;   48.900;  515.000;  327.000
460.385; -135.500; -145.000; -119.000
460.505;  161.800;  905.000;  858.000
460.625; -114.600;  -17.000;  -68.000
460.745;   16.400;  396.000;  541.000
460.864;    0.800;  153.000;  469.000
460.984;   77.600;  499.000;  573.000
461.104;  366.600; 1656.000; 1775.000
461.224;  140.900;  657.000;  650.000
461.344;   -1.100;  431.000;  360.000
461.464;   26.300;  258.000;  513.000
461.584;   12.400;  283.000;  466.000
461.704;  -43.300;   58.000;  108.000
461.824;  -53.000;  238.000;  259.000
461.943;  -25.400;  191.000;  130.000
462.063; -112.400;    2.000;  324.000
462.183;  146.200;  639.000;  717.000
462.303;  294.200; 1678.000; 1230.000
462.422;  125.900;  781.000;  840.000
462.542;  -12.600;  271.000;  391.000
462.662;  150.500;  353.000;  380.000
462.782;  681.300;  833.000;  572.000
462.901; 1170.300;  545.000;  717.000
463.021;  642.700; 1702.000; 1638.000
463.141;   38.700;  337.000;  770.000
463.260;   26.100;  614.000;  474.000
463.380;  111.600;  902.000;  884.000
463.499;  -10.400;  342.000;  332.000
463.619;  -20.300;  581.000;  559.000
463.738;  303.200; 1644.000;  903.000
463.858;  125.000;  657.000;  811.000
463.978;   10.900;  542.000;  396.000
464.097;  219.600;  921.000; 1114.000
464.217;  340.900; 1196.000; 1143.000
464.336;  342.900; 1068.000; 1130.000
464.455;  -14.100;  328.000;  659.000
464.575;  128.100;  597.000;  602.000
464.694;  376.100; 1204.000; 1179.000
464.814;  325.100; 1190.000; 1138.000
464.933;  217.600; 1095.000; 1027.000
465.052;  274.200; 1412.000; 1054.000
465.172;  218.000;  922.000;  799.000
465.291;  363.600; 1376.000; 1320.000
465.410;   61.200;  462.000;  735.000
465.530;  276.600; 1355.000; 1310.000
465.649;  211.200; 1209.000; 1273.000
465.768;  395.300; 1673.000; 1508.000
465.888;  169.600;  941.000; 1174.000
466.007;  281.200; 1335.000; 1440.000
466.126;   79.300;  721.000;  641.000
466.245;  173.700; 1176.000; 1187.000
466.364;  143.000;  950.000; 1060.000
466.484;  224.700; 1024.000; 1213.000
466.603;  132.600; 1101.000; 1222.000
466.722;  341.700; 1490.000; 1769.000
466.841;  215.300; 1151.000; 1401.000
466.960;  164.100; 1069.000;  972.000
467.079;  337.300; 1971.000; 1786.000
467.198;  192.500; 1238.000; 1181.000
467.317;  270.800; 1768.000; 1162.000
467.436;  218.700; 1709.000; 1261.000
467.555;  342.700; 1796.000; 1746.000
467.674;  184.800; 1227.000; 1329.000
467.793;  184.100; 1376.000; 1374.000
467.912;  207.100; 1658.000; 1539.000
468.031;  352.200; 2038.000; 1930.000
468.150;  412.300; 1842.000; 1837.000
468.269;  466.200; 2313.000; 2090.000
468.388;  491.800; 2168.000; 2339.000
468.507;  595.600; 2884.000; 2903.000
468.626;  670.300; 2555.000; 2541.000
468.744;  376.000; 2018.000; 2174.000
468.863;  492.600; 2312.000; 2523.000
468.982;  249.800; 1503.000; 1555.000
469.101;  553.100; 2788.000; 2692.000
469.220;  373.700; 2333.000; 2176.000
469.338;  626.800; 2935.000; 3051.000
469.457;  503.600; 2719.000; 2545.000
469.576;  783.400; 3953.000; 3784.000
469.695;  571.800; 2877.000; 3066.000
469.813;  914.300; 4148.000; 4192.000
469.932;  908.300; 4255.000; 4485.000
470.051;  962.300; 4075.000; 4161.000
470.169; 1996.200; 4470.000; 4338.000
470.288; 3296.500; 4700.000; 4809.000
470.406; 1767.400; 5059.000; 5194.000
470.525; 1392.300; 6101.000; 5787.000
470.644; 1409.200; 6847.000; 6794.000
470.762; 1799.300; 8397.000; 7873.000
470.881; 1889.100; 8651.000; 8464.000
470.999; 2221.900; 9685.000; 9151.000
471.118; 2327.100;11174.000;10711.000

