
Integration time [ms]: 200.000
Averaging Nr. [scans]: 10
Smoothing Nr. [pixels]: 0
Data measured with spectrometer [name]: 2101012U2
Wave   ;Sample   ;Dark     ;Reference
[nm]   ;[counts] ;[counts] ;[counts] 

197.733;  120.400;  516.000;  404.000
197.879; -148.800; -610.000; -634.000
198.025;  -95.300; -475.000; -420.000
198.171; -125.900; -602.000; -612.000
198.317;  -84.100; -401.000; -316.000
198.463; -113.700; -655.000; -404.000
198.609;   27.100;  181.000; -137.000
198.755; -173.200; -644.000; -410.000
198.901; -165.400; -505.000; -424.000
199.047; -135.200; -615.000; -488.000
199.193; -103.800; -230.000; -468.000
199.339;  -71.100; -222.000; -369.000
199.485;   80.100;  330.000;  271.000
199.631;   30.600;  227.000;  310.000
199.777; -143.700; -466.000; -398.000
199.923; -121.400; -610.000; -424.000
200.069;    1.900; -141.000;  -58.000
200.215;  109.600;  128.000;  453.000
200.361;   57.900;  243.000;  477.000
200.507; -111.400; -600.000; -373.000
200.653;  -44.400; -371.000; -194.000
200.798;  -85.100; -215.000; -125.000
200.944;  -43.700; -146.000;  -41.000
201.090;   92.300;   61.000;  222.000
201.236;  -22.800; -116.000; -158.000
201.382;  249.300;  874.000;  903.000
201.528;   -2.900;  -58.000;  -48.000
201.674; -116.400; -386.000; -293.000
201.819; -151.400; -540.000; -439.000
201.965; -173.100; -699.000; -447.000
202.111;  -68.700; -273.000; -226.000
202.257;  -63.500; -250.000; -238.000
202.402;  -17.600;   13.000;  -36.000
202.548;  -45.700; -169.000; -116.000
202.694;  138.500;  410.000; -183.000
202.840; -175.400; -603.000; -531.000
202.985; -158.400; -681.000; -639.000
203.131; -215.100; -832.000; -666.000
203.277;  -83.300; -199.000; -262.000
203.423; -119.500; -434.000; -520.000
203.568; -120.300; -462.000; -237.000
203.714; -106.900; -535.000; -542.000
203.860; -139.800; -682.000; -641.000
204.005;   38.600;  112.000;  167.000
204.151;  138.500;  561.000;  556.000
204.296;  -65.900; -354.000; -221.000
204.442; -153.700; -600.000; -547.000
204.588; -166.400; -592.000; -579.000
204.733;   43.800;  178.000;  168.000
204.879; -265.400;-1018.000; -822.000
205.025;   33.300;  -99.000;  126.000
205.170;   18.200;  -17.000;   94.000
205.316;  166.700;  438.000;  661.000
205.461; -155.300; -698.000; -554.000
205.607;  169.700;  609.000;  665.000
205.752; -158.800; -626.000; -551.000
205.898; -101.400; -501.000; -391.000
206.043; -141.800; -578.000; -506.000
206.189;  -99.300; -243.000; -285.000
206.334;  159.800;  554.000;  606.000
206.480;  158.100;  409.000;  239.000
206.625; -145.900; -529.000; -552.000
206.771;  -99.600; -451.000; -373.000
206.916;  -35.400; -210.000; -537.000
207.062; -156.900; -545.000; -591.000
207.207; -109.300; -546.000; -443.000
207.353;  103.800;  185.000;  460.000
207.498;   21.700;  196.000;   85.000
207.643; -112.500; -501.000; -370.000
207.789; -261.500;-1069.000; -910.000
207.934; -202.700; -665.000; -713.000
208.080;  -68.900; -154.000;   66.000
208.225;  -42.700;  -22.000;  -57.000
208.370; -144.200; -727.000; -619.000
208.516; -159.500; -741.000; -487.000
208.661;  -62.200; -127.000;  -69.000
208.806;  -66.900; -165.000; -171.000
208.952; -241.900;-1044.000; -731.000
209.097;  197.500;  378.000;  349.000
209.242;  -69.300; -307.000; -382.000
209.387;  102.900;  392.000;  350.000
209.533;  -67.000; -321.000; -350.000
209.678;  143.100;  472.000;  543.000
209.823;  -72.400; -408.000; -310.000
209.969; -230.400; -860.000; -757.000
210.114; -178.100; -907.000; -719.000
210.259; -241.400; -939.000; -889.000
210.404;  -24.100; -171.000;  103.000
210.549;   25.800;  108.000;    3.000
210.695;  -13.200;   -3.000;  -95.000
210.840;   64.800;   94.000;   67.000
210.985; -106.900; -484.000; -303.000
211.130;  145.200;  268.000;  406.000
211.275;   71.200;  207.000;  199.000
211.420; -127.400; -300.000; -289.000
211.566; -151.100; -536.000; -489.000
211.711;   48.000;  218.000;  157.000
211.856; -138.900; -545.000; -519.000
212.001;   35.300;  151.000;   44.000
212.146;   41.000;  153.000;   49.000
212.291;  -21.700; -210.000; -186.000
212.436;  -79.000; -280.000;   -6.000
212.581; -176.200; -685.000; -653.000
212.726; -141.500; -487.000; -538.000
212.871; -109.000; -552.000; -217.000
213.016; -307.100;-1172.000;-1029.000
213.161;  125.200;  406.000;  291.000
213.306; -145.800; -435.000; -577.000
213.451; -226.200; -778.000; -689.000
213.596; -102.900; -455.000; -347.000
213.741; -148.300; -448.000; -538.000
213.886; -132.000; -498.000; -517.000
214.031;  -57.700; -294.000; -124.000
214.176; -125.700; -408.000; -341.000
214.321;  -64.200; -296.000; -157.000
214.466;  -38.000; -163.000;  -43.000
214.611;   -3.900;  -61.000;  -10.000
214.756; -226.700; -948.000; -858.000
214.901;  -52.800; -388.000; -226.000
215.046; -227.700; -797.000; -825.000
215.191;   45.800;  128.000;   35.000
215.336;  -13.600; -157.000;  -19.000
215.480; -139.600; -684.000; -505.000
215.625;  -12.100; -175.000;  -19.000
215.770; -160.200; -757.000; -662.000
215.915;   33.000;   -5.000;  -97.000
216.060;    0.200; -113.000;  -21.000
216.205; -227.700; -731.000; -779.000
216.349; -139.300; -470.000; -533.000
216.494; -261.400; -939.000; -867.000
216.639; -251.100; -823.000; -888.000
216.784; -127.700; -577.000; -525.000
216.929;  111.700;  392.000;  281.000
217.073;    3.400; -244.000;  -31.000
217.218;  -20.800;   78.000;  -47.000
217.363; -164.400; -656.000; -618.000
217.507; -164.800; -623.000; -588.000
217.652; -254.900; -845.000; -874.000
217.797; -196.600; -708.000; -659.000
217.942; -205.500; -856.000; -720.000
218.086;  112.000;  608.000;  539.000
218.231;   11.600; -174.000;  -26.000
218.376;  -65.900; -337.000; -229.000
218.520;   22.600;  -41.000;   96.000
218.665;  -54.900; -338.000; -204.000
218.810;  -82.500; -275.000; -233.000
218.954;    8.200;  201.000;   35.000
219.099; -215.800; -713.000; -963.000
219.243; -127.300; -589.000; -554.000
219.388;  -58.100; -264.000; -136.000
219.532;    2.300; -116.000; -116.000
219.677; -142.800; -564.000; -521.000
219.822;    9.800;   33.000;   89.000
219.966;   49.000;   17.000;  -99.000
220.111;  -65.900; -328.000;  -40.000
220.255; -171.900; -797.000; -750.000
220.400;  -69.700; -180.000; -146.000
220.544; -154.100; -516.000; -450.000
220.689; -127.200; -422.000; -451.000
220.833;  -29.700; -123.000;  -58.000
220.978; -104.200; -393.000; -563.000
221.122;   53.700;  319.000;  307.000
221.267; -244.700; -906.000; -837.000
221.411; -165.000; -478.000; -394.000
221.555;  -15.000; -104.000;  -23.000
221.700;  -96.400; -329.000; -222.000
221.844;   56.500;  255.000;  272.000
221.989;  -92.600; -328.000; -311.000
222.133;  -91.600; -289.000; -307.000
222.277;   16.700;    5.000;   78.000
222.422;   30.800;  227.000;  113.000
222.566;  -90.300; -381.000; -214.000
222.711; -116.500; -414.000; -479.000
222.855; -147.100; -643.000; -586.000
222.999; -184.300; -642.000; -717.000
223.144;  -44.700; -195.000; -194.000
223.288;  119.100;  423.000;  251.000
223.432;   42.700;  184.000;  230.000
223.576;   56.300;  152.000;  -21.000
223.721;  103.400;  364.000;  273.000
223.865; -141.900; -472.000; -475.000
224.009;  465.200; 1673.000; 1631.000
224.153; -173.300; -660.000; -671.000
224.298; -116.900; -531.000; -489.000
224.442;   -9.200;  -74.000;  -33.000
224.586;  -11.000; -169.000; -106.000
224.730; -221.300; -858.000; -670.000
224.875; -208.700; -739.000; -688.000
225.019;   30.700;  102.000;  188.000
225.163;  132.800;  208.000;  341.000
225.307;   22.600;   97.000;  -91.000
225.451;  103.800;  360.000;  481.000
225.595;   56.600;  264.000;  176.000
225.739;  -61.500; -170.000;  -94.000
225.884;    5.400;   86.000;    5.000
226.028; -196.500; -760.000; -626.000
226.172;  -69.600; -260.000; -273.000
226.316; -235.200; -941.000; -902.000
226.460; -137.000; -645.000; -493.000
226.604;  -85.800; -406.000; -400.000
226.748; -209.200; -836.000; -733.000
226.892;  -58.100; -227.000; -181.000
227.036;  -96.200; -537.000; -447.000
227.180; -112.700; -551.000; -375.000
227.324; -131.900; -561.000; -580.000
227.468; -216.800; -819.000; -717.000
227.612;   -4.000;  242.000;  -28.000
227.756; -194.100; -845.000; -698.000
227.900;  112.800;  342.000;  441.000
228.044;  -79.700; -509.000; -290.000
228.188;  144.500;  448.000;  568.000
228.332; -177.700; -546.000; -472.000
228.476;  -62.500; -223.000; -149.000
228.620;  -46.100; -210.000; -150.000
228.764;  161.000;  431.000;  349.000
228.908;   -4.700; -155.000;   30.000
229.052; -109.200; -615.000; -528.000
229.195;  -40.700; -172.000;   13.000
229.339;  -66.500; -235.000; -305.000
229.483;  -43.400;    5.000; -162.000
229.627;  -17.100; -156.000;  139.000
229.771; -114.600; -218.000; -294.000
229.915;   57.200;  230.000;   79.000
230.059; -176.700; -648.000; -663.000
230.202;  -82.000; -370.000; -317.000
230.346;  -16.300; -107.000;  107.000
230.490; -127.000; -489.000; -521.000
230.634; -238.400; -736.000; -553.000
230.777;  141.700;  478.000;  509.000
230.921; -112.800; -450.000; -359.000
231.065;  -93.800; -246.000; -286.000
231.209;   76.700;  261.000;  265.000
231.352;   26.600;   54.000;   40.000
231.496;   43.300;  568.000;  188.000
231.640; -189.000; -693.000; -621.000
231.783;  139.200;  546.000;  525.000
231.927;  -83.300; -294.000; -365.000
232.071; -247.400; -962.000; -736.000
232.214; -198.900; -980.000; -764.000
232.358; -186.900; -683.000; -599.000
232.502;   24.800;  -19.000;    7.000
232.645; -247.200;-1090.000; -927.000
232.789;  -39.800; -257.000; -218.000
232.933;  -88.500; -407.000; -224.000
233.076; -283.000;-1038.000; -897.000
233.220; -193.400; -752.000; -777.000
233.363; -166.200; -669.000; -477.000
233.507;  137.100;  371.000;  129.000
233.650; -179.500; -764.000; -834.000
233.794;  144.000;  438.000;  461.000
233.938; -125.800; -530.000; -362.000
234.081;  -16.200;  -93.000;   31.000
234.225; -173.800; -631.000; -539.000
234.368; -196.600; -773.000; -723.000
234.512; -126.600; -385.000; -299.000
234.655; -162.100; -582.000; -555.000
234.798; -150.500; -493.000; -466.000
234.942; -254.200; -884.000;-1002.000
235.085; -159.000; -651.000; -443.000
235.229; -135.800; -405.000; -410.000
235.372;  -99.500; -247.000; -191.000
235.516;  -95.600; -397.000; -321.000
235.659;   49.800;   92.000;  121.000
235.802;   -6.700;  -38.000;  -22.000
235.946;   60.900;  335.000;  215.000
236.089;  102.900;  126.000;  250.000
236.233;   90.800;  275.000;  298.000
236.376; -100.600; -235.000; -378.000
236.519;  -55.500; -297.000; -319.000
236.663;  -14.500; -215.000; -117.000
236.806; -297.900;-1029.000; -999.000
236.949;  170.200;  543.000;  431.000
237.092;  118.100;  412.000;  391.000
237.236; -170.500; -589.000; -502.000
237.379;  132.600;  352.000;  428.000
237.522; -224.400; -879.000; -768.000
237.666;  -59.800; -271.000;   18.000
237.809; -255.500; -851.000; -823.000
237.952;   77.900;  469.000;  271.000
238.095;  -88.800; -447.000; -442.000
238.238;  164.300;  688.000;  700.000
238.382;   21.700;  166.000;  103.000
238.525; -127.300; -598.000; -511.000
238.668; -278.800;-1060.000; -985.000
238.811; -217.200; -638.000; -643.000
238.954;  -91.200; -483.000; -334.000
239.097;  210.900;  617.000;  664.000
239.241;   86.500;  394.000;  326.000
239.384;  -41.500; -254.000; -214.000
239.527; -107.700; -424.000; -224.000
239.670; -297.400; -994.000;-1091.000
239.813; -222.300; -696.000; -658.000
239.956;  146.900;  579.000;  473.000
240.099; -204.100; -778.000; -725.000
240.242;  147.000;  428.000;  432.000
240.385;  102.000;  466.000;  450.000
240.528; -134.200; -706.000; -473.000
240.671;   56.300;  189.000;  134.000
240.814; -103.300; -441.000; -158.000
240.957; -192.100; -767.000; -578.000
241.100; -204.300; -779.000; -755.000
241.243; -269.000;-1234.000; -893.000
241.386; -114.600; -508.000; -379.000
241.529; -155.800; -735.000; -547.000
241.672; -134.900; -566.000; -495.000
241.815; -235.100; -832.000; -808.000
241.958;  -44.300; -125.000; -182.000
242.101; -172.900; -545.000; -390.000
242.244;  -91.700; -270.000; -325.000
242.387;  -68.500; -304.000; -246.000
242.530;  110.300;  470.000;  134.000
242.673;  -74.000; -381.000; -309.000
242.815; -242.700; -925.000; -899.000
242.958; -120.600; -482.000; -381.000
243.101;   50.200;  132.000;  187.000
243.244; -156.900; -564.000; -521.000
243.387; -101.500; -313.000; -316.000
243.530; -191.100; -657.000; -674.000
243.672;   22.100;   43.000;  -92.000
243.815; -100.300; -355.000; -283.000
243.958;  -19.100;   98.000;  -26.000
244.101;    5.500;   59.000;  -16.000
244.243;   -8.600;  -47.000;  101.000
244.386; -210.500; -761.000; -630.000
244.529;  -60.300; -132.000; -139.000
244.672; -331.900;-1154.000; -951.000
244.814; -195.900; -621.000; -794.000
244.957; -132.500; -380.000; -304.000
245.100; -148.300; -489.000; -489.000
245.242; -112.600; -387.000; -374.000
245.385;  -28.000;  -59.000;  -39.000
245.528; -201.000; -871.000; -705.000
245.670;  179.000;  612.000;  634.000
245.813; -165.900; -599.000; -547.000
245.956;  -64.800; -324.000; -275.000
246.098; -150.100; -508.000; -650.000
246.241;   21.000;  194.000;   48.000
246.383;    1.400; -119.000;  -73.000
246.526; -180.100; -454.000; -525.000
246.669; -223.100; -889.000; -780.000
246.811;   45.200;  172.000;   -1.000
246.954; -112.800; -512.000; -426.000
247.096;  -79.400;  -84.000;   -6.000
247.239; -105.800; -482.000; -445.000
247.381; -169.100; -647.000; -488.000
247.524;  214.200;  645.000;  679.000
247.666;    4.600;   58.000;   11.000
247.809; -203.300; -887.000; -691.000
247.951;  -43.000;  -75.000;  138.000
248.094;   74.200;  432.000;  308.000
248.236; -344.200;-1262.000;-1238.000
248.378;   37.900; -356.000;  -81.000
248.521;  -45.900; -334.000; -337.000
248.663;  -72.900; -236.000; -267.000
248.806;  -64.800; -300.000; -266.000
248.948; -184.500; -886.000; -763.000
249.090; -114.000; -428.000; -398.000
249.233;  -76.300; -344.000; -381.000
249.375; -138.100; -474.000; -451.000
249.518;  -43.600;  -83.000; -133.000
249.660;   -2.800; -103.000;    3.000
249.802; -318.900;-1303.000;-1189.000
249.945; -135.400; -612.000; -540.000
250.087; -223.900; -834.000; -768.000
250.229; -110.900; -362.000; -480.000
250.371; -113.000; -494.000; -439.000
250.514;  -97.500; -310.000; -244.000
250.656; -107.000;   69.000;  102.000
250.798; -235.000; -849.000; -800.000
250.940;  -96.200; -322.000; -322.000
251.083;  -93.000; -335.000; -111.000
251.225;  144.400;  338.000;  310.000
251.367; -108.500; -274.000; -373.000
251.509;  -39.100; -265.000; -210.000
251.651; -188.100; -731.000; -671.000
251.794;  111.700;  538.000;  632.000
251.936; -210.300; -821.000; -747.000
252.078; -129.600; -540.000; -461.000
252.220; -132.700; -645.000; -477.000
252.362;  155.900;  344.000;  462.000
252.504; -136.400; -677.000; -584.000
252.646; -210.000; -875.000; -722.000
252.788;   -7.100;   14.000; -128.000
252.931;  -46.600; -257.000; -253.000
253.073; -106.400; -376.000; -317.000
253.215;    1.500;  141.000;  122.000
253.357;  -55.600;   82.000; -153.000
253.499;  -83.400; -374.000; -234.000
253.641; -214.800; -749.000; -594.000
253.783; -166.300; -609.000; -527.000
253.925; -185.800; -586.000; -591.000
254.067; -221.500; -744.000; -667.000
254.209;  -55.800; -391.000; -259.000
254.351; -271.800; -865.000; -883.000
254.493; -110.500; -441.000; -417.000
254.635; -206.300; -936.000; -818.000
254.777; -191.500; -752.000; -687.000
254.918; -138.000; -512.000; -430.000
255.060; -131.000; -551.000; -395.000
255.202; -108.100; -473.000; -261.000
255.344; -174.800; -658.000; -455.000
255.486; -137.000; -471.000; -406.000
255.628; -248.200; -780.000; -781.000
255.770; -186.300; -676.000; -536.000
255.912; -127.400; -559.000; -468.000
256.053; -148.800; -730.000; -508.000
256.195;  343.200; 1008.000;  903.000
256.337; -195.400; -861.000; -595.000
256.479;  130.800;  532.000;  416.000
256.621;  -66.800; -394.000; -212.000
256.762; -186.700; -789.000; -742.000
256.904;  159.500;  485.000;  487.000
257.046;  -92.200; -381.000; -271.000
257.188;  -83.500; -351.000; -264.000
257.329; -166.500; -525.000; -464.000
257.471; -210.000; -939.000; -807.000
257.613; -122.200; -584.000; -498.000
257.755; -278.700;-1073.000; -982.000
257.896;   54.700;  286.000;  392.000
258.038; -115.900; -403.000; -352.000
258.180; -102.100; -354.000; -279.000
258.321; -135.600; -581.000; -457.000
258.463;    2.400;  -71.000;  133.000
258.605; -174.600; -562.000; -570.000
258.746; -217.500; -886.000; -772.000
258.888; -294.900;-1026.000;-1020.000
259.029;   38.000;  121.000;   -8.000
259.171; -150.000; -614.000; -550.000
259.313;    7.500;  -49.000;  -47.000
259.454; -122.200; -536.000; -414.000
259.596; -102.400; -483.000; -390.000
259.737; -130.400; -590.000; -474.000
259.879;   91.100;  217.000;  311.000
260.020;  227.300;  901.000;  636.000
260.162;  -76.000; -146.000; -253.000
260.303; -232.800; -768.000; -687.000
260.445; -158.400; -609.000; -613.000
260.586;  100.800;  392.000;  157.000
260.728;  -81.700; -360.000; -248.000
260.869; -133.200; -350.000; -343.000
261.011;  184.500;  706.000;  537.000
261.152; -119.500; -479.000; -319.000
261.293; -142.600; -576.000; -595.000
261.435;  -22.300; -219.000; -184.000
261.576;  -72.100; -455.000; -325.000
261.718;  144.100;  420.000;  470.000
261.859; -250.700; -940.000; -949.000
262.000; -252.700; -951.000;-1016.000
262.142;  -38.600;  -52.000;  -60.000
262.283; -214.500; -808.000; -691.000
262.424; -188.000; -666.000; -625.000
262.566; -296.400;-1161.000; -983.000
262.707; -212.800; -840.000; -830.000
262.848; -204.300; -769.000; -726.000
262.990;  -95.700; -362.000; -345.000
263.131;  208.500;  650.000;  681.000
263.272;   -4.000;  -61.000;  -41.000
263.413; -169.100; -589.000; -561.000
263.555; -116.300; -669.000; -143.000
263.696; -180.600; -550.000; -641.000
263.837; -123.500; -449.000; -551.000
263.978;   10.600;   -5.000;  -77.000
264.119;  -83.900; -283.000; -264.000
264.261; -208.200; -847.000; -630.000
264.402;   11.200;   33.000;   40.000
264.543; -140.000; -509.000; -524.000
264.684;   -2.800;   61.000;  -50.000
264.825; -138.900; -816.000; -538.000
264.966;    9.000;  -84.000;  -67.000
265.107; -211.400; -646.000; -670.000
265.248; -232.300; -825.000; -812.000
265.390;    4.600;  152.000;   -9.000
265.531;  -21.900; -238.000; -107.000
265.672; -159.200; -557.000; -630.000
265.813;  149.900;  563.000;  439.000
265.954; -259.100; -959.000; -940.000
266.095;   -4.300; -372.000; -322.000
266.236; -172.900; -686.000; -548.000
266.377;  -69.100; -243.000; -297.000
266.518; -109.000; -619.000; -547.000
266.659;   77.800;  170.000;  268.000
266.800;   63.800;   83.000;   85.000
266.941; -156.600; -487.000; -478.000
267.082;   56.900;  354.000;   99.000
267.223;  -95.700; -344.000; -273.000
267.364; -217.100; -892.000; -686.000
267.504;  -34.200;    3.000;  135.000
267.645;   -5.300;  160.000;   67.000
267.786;  -56.600; -147.000;  -86.000
267.927; -130.500; -473.000; -379.000
268.068;  -25.800; -186.000;  -61.000
268.209;  -84.000; -175.000; -413.000
268.350; -125.600; -388.000; -532.000
268.490; -182.400; -648.000; -521.000
268.631;   45.700;  127.000;  225.000
268.772; -194.900; -874.000; -647.000
268.913;  -90.100; -328.000; -476.000
269.054;    2.600; -117.000;   12.000
269.194;  -77.500; -418.000; -402.000
269.335; -313.800;-1137.000;-1074.000
269.476;  -12.800;   33.000;  -35.000
269.617; -103.300; -347.000; -392.000
269.757; -178.300; -713.000; -646.000
269.898; -195.100; -856.000; -613.000
270.039; -128.600; -415.000; -405.000
270.180; -271.700; -952.000; -816.000
270.320;  -33.300; -190.000; -250.000
270.461;  -68.900; -277.000; -249.000
270.602;   -7.700; -186.000; -156.000
270.742; -240.600; -868.000; -943.000
270.883;  -84.900; -442.000; -390.000
271.023;  -94.300; -358.000; -357.000
271.164; -155.700; -607.000; -528.000
271.305; -177.000; -666.000; -654.000
271.445; -194.100; -722.000; -683.000
271.586;  -91.200; -462.000; -283.000
271.726;  -86.900; -397.000; -322.000
271.867; -119.100; -594.000; -534.000
272.008;  298.700; -473.000; -285.000
272.148;  269.700;  462.000;  468.000
272.289;   16.600; -113.000; -181.000
272.429;   56.100;   19.000;  185.000
272.570; -173.800; -633.000; -737.000
272.710; -183.600; -825.000; -775.000
272.851;  -26.900;  113.000; -130.000
272.991; -315.700;-1173.000;-1077.000
273.131; -124.300; -419.000; -459.000
273.272; -182.600; -683.000; -723.000
273.412;   11.200; -143.000;  -31.000
273.553;  -75.100; -488.000; -507.000
273.693;  290.400;  913.000;  858.000
273.834; -201.700; -894.000; -692.000
273.974; -132.400; -664.000; -615.000
274.114; -173.000; -772.000; -560.000
274.255;  174.900;  414.000;  373.000
274.395;   26.700; -180.000; -125.000
274.535;  122.600;  199.000;  350.000
274.676;   96.900;  225.000;   94.000
274.816;    3.700;  110.000;   34.000
274.956; -159.800; -624.000; -690.000
275.097; -153.100;-1014.000; -922.000
275.237; -230.400; -913.000; -803.000
275.377; -199.300; -778.000; -689.000
275.517; -276.800; -878.000; -937.000
275.658; -126.500; -590.000; -555.000
275.798; -107.000; -606.000; -413.000
275.938;   54.200;  215.000;  323.000
276.078; -124.700; -626.000; -395.000
276.218;   32.700;   99.000;  104.000
276.359; -257.100;-1026.000;-1024.000
276.499; -161.500; -605.000; -446.000
276.639;  -54.400; -305.000; -151.000
276.779;  -65.400; -475.000; -357.000
276.919; -188.500; -783.000; -624.000
277.059;  -21.500; -261.000; -212.000
277.199;  -83.600; -357.000; -259.000
277.340;  101.400;  287.000;  175.000
277.480; -207.700; -840.000; -693.000
277.620;   46.000;  192.000;   16.000
277.760; -374.200;-1533.000;-1294.000
277.900;   43.000;  113.000;   33.000
278.040;  110.200;  137.000;  159.000
278.180;   73.600;  270.000;  170.000
278.320;   26.900;   21.000;   56.000
278.460; -139.100; -443.000; -469.000
278.600; -151.900; -708.000; -598.000
278.740;   98.100;  448.000;  224.000
278.880; -110.900; -768.000; -791.000
279.020;   23.400; -194.000; -144.000
279.160; -146.000; -672.000; -595.000
279.300; -253.700; -926.000; -873.000
279.440; -161.900; -709.000; -622.000
279.579;  -93.200;-1014.000; -929.000
279.719;  -98.300; -410.000; -394.000
279.859;   94.300;   -4.000;   41.000
279.999;   54.600; -208.000;  101.000
280.139;  -46.300; -435.000; -387.000
280.279; -132.400; -708.000; -745.000
280.419;   -0.100; -229.000; -147.000
280.559;  -52.800; -259.000; -180.000
280.698; -185.800; -790.000; -639.000
280.838; -159.400; -778.000; -800.000
280.978; -199.500; -846.000; -790.000
281.118; -213.800; -811.000; -704.000
281.257;   11.400;   24.000;    6.000
281.397; -209.700;-1094.000; -960.000
281.537; -183.300; -599.000; -712.000
281.677;  -18.300; -150.000; -101.000
281.816; -158.400; -700.000; -630.000
281.956;  -21.400; -193.000; -257.000
282.096;  -98.700; -539.000; -396.000
282.235; -194.700; -672.000; -638.000
282.375;  -40.000; -243.000;  -98.000
282.515; -147.500; -715.000; -707.000
282.654;   56.400;   29.000;  106.000
282.794;  113.000;  388.000;  244.000
282.934; -105.400; -530.000; -491.000
283.073; -227.400;-1030.000; -857.000
283.213;  -82.600; -460.000; -467.000
283.353;   -6.700; -408.000; -349.000
283.492;  -36.100; -264.000; -296.000
283.632;  -60.700; -254.000; -168.000
283.771; -167.400; -859.000; -730.000
283.911;  -75.100; -369.000; -260.000
284.050; -210.700; -794.000; -748.000
284.190; -313.000;-1229.000;-1096.000
284.329; -266.600;-1055.000; -964.000
284.469; -103.200; -516.000; -591.000
284.608;  -93.300; -559.000; -598.000
284.748; -131.700; -614.000; -570.000
284.887;   10.500;  -87.000;  -20.000
285.027; -221.700; -844.000; -892.000
285.166;  -71.400; -192.000; -249.000
285.306;   47.700; -116.000;  -33.000
285.445;  -57.800; -229.000; -343.000
285.584; -158.600; -630.000; -494.000
285.724;  -89.900; -282.000; -322.000
285.863; -180.000; -857.000; -507.000
286.002; -101.300; -366.000; -276.000
286.142; -192.800; -715.000; -622.000
286.281; -149.600; -525.000; -493.000
286.420; -109.500; -554.000; -417.000
286.560;  204.900;  653.000;  623.000
286.699; -230.500; -958.000; -912.000
286.838; -159.700; -590.000; -591.000
286.978; -133.200; -533.000; -537.000
287.117; -241.000;-1085.000; -950.000
287.256;  -28.800; -228.000; -211.000
287.395;  -74.300; -197.000; -378.000
287.535;  -89.500; -370.000; -298.000
287.674; -150.100; -509.000; -484.000
287.813;  196.300;  661.000;  533.000
287.952; -252.500;-1010.000; -871.000
288.091; -285.800;-1049.000; -915.000
288.231;   83.100;   13.000;   15.000
288.370; -324.000;-1217.000;-1200.000
288.509; -168.700; -728.000; -645.000
288.648; -132.200; -770.000; -548.000
288.787;  -22.600; -243.000;  -87.000
288.926;  -99.800; -454.000; -475.000
289.065;  246.100;  859.000;  672.000
289.204;  -61.300; -377.000; -217.000
289.344; -183.200; -791.000; -690.000
289.483;  128.000;  416.000;  304.000
289.622;  -26.300; -291.000; -149.000
289.761;   11.700; -309.000; -166.000
289.900; -186.600; -785.000; -626.000
290.039;   10.700;  -12.000;  -95.000
290.178;  -63.700; -274.000; -180.000
290.317; -110.700; -618.000; -479.000
290.456;  -89.900; -463.000; -451.000
290.595; -266.100; -961.000; -833.000
290.734; -265.100; -904.000; -891.000
290.873;  -97.800; -456.000; -420.000
291.011; -238.400; -833.000; -843.000
291.150; -204.500; -770.000; -682.000
291.289;  -19.800; -343.000; -110.000
291.428; -146.300; -599.000; -480.000
291.567;  -95.300; -370.000; -442.000
291.706;   15.100;  109.000;  154.000
291.845; -175.400; -597.000; -505.000
291.984; -321.700;-1234.000;-1061.000
292.122;  165.300;  602.000;  582.000
292.261;  129.100;  620.000;  463.000
292.400;   27.800; -144.000;  211.000
292.539; -220.700; -959.000; -813.000
292.678;  -36.200; -325.000; -300.000
292.816; -256.700;-1136.000; -965.000
292.955; -195.000; -844.000; -684.000
293.094;  -10.200; -173.000; -337.000
293.233;  -82.800; -556.000; -400.000
293.371;  -43.500; -225.000;  -84.000
293.510; -188.200; -866.000; -780.000
293.649; -203.000; -959.000; -924.000
293.787; -132.000;-1083.000;-1012.000
293.926;   43.300; -113.000;  -32.000
294.065;  -77.700; -379.000; -290.000
294.203;  133.600;  298.000;  406.000
294.342;   72.600;   74.000;  156.000
294.481;12832.900;51180.000; -836.000
294.619;  -20.600; -425.000; -582.000
294.758; -280.700;-1230.000;-1137.000
294.896;  136.100; -125.000;    5.000
295.035; -219.400;-1040.000;-1006.000
295.174; -243.600;-1082.000; -954.000
295.312;  -40.300; -323.000; -203.000
295.451;  -17.100; -307.000; -428.000
295.589;  -70.600; -389.000; -518.000
295.728;   87.900; -292.000; -165.000
295.866;   26.900;  -36.000;  -51.000
296.005; -108.900; -584.000; -341.000
296.143; -128.200; -558.000; -596.000
296.282; -195.300; -957.000; -881.000
296.420; -157.900; -657.000; -557.000
296.559; -166.800; -892.000; -633.000
296.697;   65.400; -847.000; -665.000
296.835;   91.300;-1141.000;-1002.000
296.974;  133.300;  -23.000;   39.000
297.112;   28.700; -443.000; -504.000
297.251; -139.200; -815.000; -755.000
297.389;  136.500; -576.000; -438.000
297.527;  146.200; -145.000;  -83.000
297.666;  -86.200; -486.000; -438.000
297.804;  -80.300; -404.000; -264.000
297.942;   50.200; -136.000; -161.000
298.081;    4.000; -183.000;   63.000
298.219;  120.700;  -17.000;  -19.000
298.357;   95.800; -144.000;  -71.000
298.495;   61.900; -810.000; -812.000
298.634;  181.800;  245.000;  219.000
298.772;  112.200; -220.000; -338.000
298.910;  -40.200; -309.000; -182.000
299.048;    9.100; -130.000; -153.000
299.187;  -28.900; -350.000; -250.000
299.325;   49.000;   52.000;  122.000
299.463;   98.200; -389.000; -299.000
299.601;  234.800; -327.000; -271.000
299.739; -169.100; -908.000; -883.000
299.877; -133.600; -791.000; -703.000
300.016; -125.700;-1095.000; -935.000
300.154;  316.300;  -19.000; -161.000
300.292;   98.300; -428.000; -348.000
300.430;   68.800; -408.000; -291.000
300.568; -210.500; -940.000; -874.000
300.706;  -89.400; -366.000; -469.000
300.844; -144.200;-1108.000; -979.000
300.982;  272.600;  246.000;  282.000
301.120; -193.600; -965.000; -866.000
301.258; -127.200; -812.000; -705.000
301.396;  105.800;  104.000;  -41.000
301.534;  147.300; -218.000; -293.000
301.672;   24.300; -664.000; -521.000
301.810;   46.000; -613.000; -545.000
301.948;  268.900;   53.000;  149.000
302.086;  993.900; -250.000;  -32.000
302.224; 1723.700; -610.000; -585.000
302.362;   97.800; -558.000; -622.000
302.500;  -30.700; -923.000; -893.000
302.638;  178.500;  128.000;  245.000
302.776;   71.300; -352.000; -408.000
302.913;  115.600;  447.000;  236.000
303.051;   16.900;  -86.000;  -23.000
303.189;  132.200;   90.000;  118.000
303.327;   -3.100; -341.000; -256.000
303.465; -149.100; -832.000; -588.000
303.603; -150.000; -805.000; -604.000
303.740;  217.900;  417.000;  241.000
303.878;   69.600; -800.000; -759.000
304.016; -162.900; -915.000; -790.000
304.154; -234.800;-1123.000;-1152.000
304.291;  -36.400; -505.000; -554.000
304.429;   64.400;  102.000;   74.000
304.567; -245.900; -908.000; -893.000
304.705;  -94.700; -408.000; -515.000
304.842;  168.200; -616.000; -540.000
304.980;  163.000;  215.000;   35.000
305.118;   98.000; -367.000; -365.000
305.255; -157.500; -945.000; -927.000
305.393;  105.700;  178.000;  239.000
305.531; -192.000;-1173.000; -956.000
305.668; -127.000; -663.000; -582.000
305.806;  174.100; -358.000; -439.000
305.943;  159.900; -629.000; -637.000
306.081;  131.600; -378.000; -267.000
306.219; -191.100; -863.000; -748.000
306.356;   67.100;  158.000;   27.000
306.494;  308.400;  981.000;  761.000
306.631;   65.600;  -11.000;  -55.000
306.769;   33.600; -613.000; -485.000
306.906;   25.500; -284.000; -258.000
307.044;  -89.300; -473.000; -488.000
307.181;  -91.700; -410.000; -332.000
307.319;  156.600;  112.000;   87.000
307.456; -307.300;-1191.000;-1153.000
307.594; -184.500; -980.000; -727.000
307.731;   21.500; -371.000; -164.000
307.868;   38.800;  -15.000;   20.000
308.006; -219.500; -961.000; -847.000
308.143; -103.500; -618.000; -330.000
308.281;  393.900;  -37.000; -254.000
308.418;   39.500; -748.000; -640.000
308.555;  -91.400; -400.000; -250.000
308.693; -126.500; -577.000; -573.000
308.830; -164.400; -712.000; -657.000
308.967;   -4.500; -215.000;  -95.000
309.105;  -41.800; -507.000; -396.000
309.242;   73.200; -468.000; -367.000
309.379;  756.200; -577.000; -655.000
309.517;  -99.000; -936.000; -948.000
309.654; -139.100; -910.000; -734.000
309.791;  -90.700; -662.000; -580.000
309.928; -184.100; -977.000; -914.000
310.065;  384.500;  819.000;  697.000
310.203;  -15.900; -825.000; -850.000
310.340;   43.500; -465.000; -321.000
310.477; -126.200; -412.000; -516.000
310.614;  -61.600; -383.000; -473.000
310.751;  -91.900; -427.000; -518.000
310.889;    7.300;    1.000;   11.000
311.026; -263.400;-1161.000; -939.000
311.163;  -76.000; -386.000; -380.000
311.300; -104.100; -512.000; -479.000
311.437; -121.600; -658.000; -619.000
311.574; -278.100;-1226.000; -985.000
311.711; -103.800; -595.000; -433.000
311.848;  -24.500; -380.000; -388.000
311.985;   55.300;  270.000;   93.000
312.122; -186.700; -932.000; -762.000
312.259; -222.800; -941.000; -994.000
312.396;  -96.100; -508.000; -551.000
312.533; -122.600; -812.000; -790.000
312.670; -209.900;-1070.000; -898.000
312.807;    2.700; -352.000; -367.000
312.944; -100.500; -513.000; -611.000
313.081;  -13.000; -150.000; -415.000
313.218; -208.000;-1111.000; -867.000
313.355;   36.800; -531.000; -449.000
313.492;   53.500; -455.000; -292.000
313.629;  318.100;  815.000;  735.000
313.766; -275.200;-1176.000;-1008.000
313.902;   31.300; -186.000;   21.000
314.039;  -18.200; -372.000; -289.000
314.176;   99.100;  286.000;  192.000
314.313;  -90.400; -569.000; -473.000
314.450; -128.800; -788.000; -684.000
314.587;  -40.100; -468.000; -480.000
314.723;   47.700;  -78.000;  130.000
314.860;  111.100;  318.000;  332.000
314.997;   91.200;  223.000;  142.000
315.134;  -14.500; -385.000; -368.000
315.270;  -47.700; -480.000; -496.000
315.407; -182.600;-1094.000; -967.000
315.544;  -62.500; -657.000; -538.000
315.681; -107.900; -681.000; -565.000
315.817;   49.400; -133.000; -176.000
315.954;   32.300; -613.000; -392.000
316.091; -230.300;-1045.000;-1023.000
316.227;   10.700;  -71.000; -179.000
316.364;   41.100;   23.000;    6.000
316.500;  -56.500; -113.000; -300.000
316.637;  -73.700; -181.000; -302.000
316.774; -147.400; -625.000; -358.000
316.910; -163.000; -598.000; -629.000
317.047;  -90.100; -487.000; -351.000
317.183;  -99.300; -435.000; -566.000
317.320;   -8.700; -367.000; -321.000
317.456; -122.200; -733.000; -805.000
317.593; -101.000; -598.000; -641.000
317.729;   52.300;  168.000;  -67.000
317.866; -357.700;-1434.000;-1285.000
318.002; -161.700; -708.000; -948.000
318.139; -153.000; -883.000; -867.000
318.275; -176.200;-1003.000; -738.000
318.412; -100.200; -517.000; -336.000
318.548;  -58.800; -751.000; -720.000
318.685; -163.000; -985.000; -888.000
318.821; -163.600; -762.000; -735.000
318.957;    1.800;   34.000;  -23.000
319.094;  131.600;  297.000;  154.000
319.230; -119.300; -756.000; -742.000
319.367;  196.600; -471.000; -520.000
319.503;  126.000; -538.000; -436.000
319.639; -181.000; -877.000; -793.000
319.775; -121.500; -750.000; -685.000
319.912;  -72.700; -424.000; -519.000
320.048; -136.800;-1184.000;-1184.000
320.184;  174.500;   59.000;   70.000
320.321;  -97.300; -497.000; -467.000
320.457;  152.900;  475.000;  662.000
320.593;  -95.500; -375.000; -382.000
320.729; -209.800; -732.000; -734.000
320.866;  -86.900; -577.000; -635.000
321.002; -127.100; -759.000; -809.000
321.138;    5.500; -135.000; -211.000
321.274;  166.100; -148.000; -115.000
321.410;  -12.500; -585.000; -353.000
321.546;  -61.400;-1011.000; -911.000
321.683;  171.400;  400.000;  185.000
321.819;   50.800;  -48.000; -117.000
321.955; -190.200; -743.000; -722.000
322.091;  -76.600; -585.000; -540.000
322.227;   -8.900; -382.000; -202.000
322.363;   -8.800; -320.000; -215.000
322.499;  -83.800; -343.000; -331.000
322.635;  360.700;  636.000;  443.000
322.771;   68.900; -139.000;   12.000
322.907;  192.700;  129.000;  327.000
323.043;    6.600; -115.000; -206.000
323.179;  -52.600; -394.000; -363.000
323.315;   81.600; -401.000; -371.000
323.451;  197.300; -328.000; -236.000
323.587;  134.600;  -60.000;  -77.000
323.723;   50.700; -682.000; -601.000
323.859;    5.000; -258.000;  -76.000
323.995;  -79.000; -467.000; -409.000
324.131; -180.700; -967.000; -892.000
324.267;  -77.600; -254.000; -276.000
324.402; -212.600; -960.000; -983.000
324.538;   18.500; -279.000; -104.000
324.674;   79.100;  164.000;   77.000
324.810;  316.500;  226.000;  308.000
324.946;   64.400; -810.000; -658.000
325.082;  -96.800; -568.000; -475.000
325.217;   37.700;  -62.000;   16.000
325.353; -195.800; -764.000; -659.000
325.489; -136.400; -540.000; -506.000
325.625; -156.600; -579.000; -525.000
325.760;  181.100;  517.000;  376.000
325.896;  -27.700; -515.000; -702.000
326.032;  -69.300; -403.000; -352.000
326.168;  -93.300; -462.000; -369.000
326.303;  -52.900; -352.000; -461.000
326.439;   15.500; -336.000; -276.000
326.575;   61.600; -190.000;  -29.000
326.710;   16.900; -156.000;  -30.000
326.846;   44.700;  146.000;  103.000
326.982; -137.600; -530.000; -548.000
327.117;  -96.600; -481.000; -442.000
327.253; -174.800; -745.000; -742.000
327.388; -283.400;-1137.000;-1153.000
327.524;  -56.600; -811.000; -578.000
327.659;    3.900;  -58.000;  -22.000
327.795;   -1.700;   69.000;   45.000
327.931; -126.900; -723.000; -499.000
328.066;  -40.500; -417.000; -276.000
328.202;  -17.800;   12.000; -129.000
328.337;  234.800;  957.000;  713.000
328.473;   25.000;  -12.000;  -74.000
328.608;   -5.500; -256.000; -267.000
328.743; -146.700; -799.000; -664.000
328.879;   66.100;  214.000;  114.000
329.014;  -71.500; -102.000; -122.000
329.150; -163.200; -358.000; -483.000
329.285;  -88.400; -465.000; -466.000
329.421;  -68.600; -548.000; -246.000
329.556;   25.700;  -36.000;   85.000
329.691; -159.200; -633.000; -615.000
329.827; -140.800; -626.000; -480.000
329.962;  -43.000;  131.000; -301.000
330.097; -143.500; -673.000; -585.000
330.233;  -66.100; -410.000; -223.000
330.368; -187.400; -839.000; -628.000
330.503;   23.200;    3.000;   98.000
330.638;   46.700;  -93.000; -125.000
330.774; -117.300; -609.000; -530.000
330.909;  -46.300; -434.000; -244.000
331.044; -188.800; -714.000; -708.000
331.179; -306.900;-1217.000;-1109.000
331.315;   56.300;   77.000;   20.000
331.450;   76.700;  157.000;  285.000
331.585; -149.500; -805.000; -706.000
331.720; -115.500; -510.000; -460.000
331.855;   15.100;  -35.000; -102.000
331.990;  468.400;   62.000;  138.000
332.126;  262.500; -110.000;   71.000
332.261;    1.500; -379.000; -265.000
332.396;   35.700; -135.000; -242.000
332.531; -181.900;-1074.000;-1031.000
332.666;   46.800; -519.000; -363.000
332.801; -149.000; -726.000; -807.000
332.936;   -4.900; -192.000; -122.000
333.071; -240.700; -870.000; -817.000
333.206;   93.300;  307.000;  379.000
333.341;  101.400;  344.000;  418.000
333.476; -129.500; -627.000; -623.000
333.611;  -51.800; -251.000; -173.000
333.746;  -48.100; -381.000; -464.000
333.881; -172.900; -973.000; -935.000
334.016; -258.700; -936.000; -917.000
334.151; -220.800; -746.000; -702.000
334.286;   60.400;  152.000;  186.000
334.421;   24.700; -125.000; -178.000
334.556; -133.000; -611.000; -567.000
334.690; -126.200; -631.000; -577.000
334.825;  148.400;  381.000;   83.000
334.960;  -89.700; -285.000; -413.000
335.095;   19.200;  135.000;  -91.000
335.230; -161.800; -722.000; -738.000
335.365; -258.700;-1084.000; -990.000
335.499; -244.200;-1108.000;-1037.000
335.634;   86.300;    9.000;  534.000
335.769; -169.100; -755.000; -720.000
335.904;  -90.600; -603.000; -561.000
336.038;  -84.900; -735.000; -657.000
336.173; -235.100;-1206.000;-1194.000
336.308;   30.700; -116.000; -189.000
336.443;  -12.000; -544.000; -634.000
336.577; -118.500; -936.000; -787.000
336.712;  113.300;   -4.000;  -12.000
336.847;  -37.200; -724.000; -607.000
336.981;  157.300; -272.000; -208.000
337.116;  535.500;  615.000;  501.000
337.250;  241.900; -434.000; -421.000
337.385;  420.400; -297.000; -208.000
337.520;  120.000; -632.000; -603.000
337.654;  -20.400; -215.000; -126.000
337.789; -237.900; -989.000; -933.000
337.923;  -23.700; -104.000; -205.000
338.058; -156.400; -673.000; -738.000
338.192;  -41.400; -611.000; -488.000
338.327;   43.200;  -18.000; -155.000
338.461;  -78.600; -299.000; -469.000
338.596; -147.500; -780.000; -638.000
338.730; -140.400; -767.000; -803.000
338.865;  181.000;  -46.000; -140.000
338.999;  -84.400; -846.000; -702.000
339.134;  -35.400; -634.000; -536.000
339.268;   -5.900; -741.000; -603.000
339.403;  571.900; -740.000; -775.000
339.537;  185.400; -894.000; -820.000
339.671; -198.000; -829.000; -813.000
339.806; -110.800; -556.000; -512.000
339.940;   43.000; -261.000; -235.000
340.074; -164.400; -685.000; -510.000
340.209;  -76.900; -351.000; -230.000
340.343; -159.100; -517.000; -573.000
340.477;  357.700;  998.000; 1036.000
340.612;  -94.300;-1033.000; -900.000
340.746;  230.700; -199.000; -243.000
340.880; -116.700; -924.000; -785.000
341.014;    3.200;  -45.000; -154.000
341.149; -186.900; -756.000; -718.000
341.283; -191.500; -839.000; -754.000
341.417; -158.800;-1124.000; -938.000
341.551;  273.900; -768.000; -708.000
341.685;  -25.200; -633.000; -611.000
341.820;  -71.200; -562.000; -493.000
341.954;  -41.300; -218.000; -349.000
342.088; -302.200;-1102.000;-1019.000
342.222;  118.900;  565.000;  618.000
342.356;  -81.900; -395.000; -335.000
342.490; -139.000; -880.000; -841.000
342.624;  -41.700; -339.000; -242.000
342.758;   44.100; -364.000; -312.000
342.892;  -94.800; -710.000; -585.000
343.026;  -60.800;  -58.000; -116.000
343.160;  -82.300; -426.000; -376.000
343.294; -112.900; -474.000; -337.000
343.428;  -35.700; -488.000; -448.000
343.562;   69.200; -172.000;  -23.000
343.696;  -23.400; -385.000; -314.000
343.830;   -2.600; -362.000; -356.000
343.964;   50.900; -231.000; -168.000
344.098; 1586.400;  199.000;   70.000
344.232; 1359.800; -266.000; -127.000
344.366;  168.400; -567.000; -453.000
344.500;  124.800; -665.000; -744.000
344.634;   92.500; -324.000; -164.000
344.768;  -35.800; -531.000; -341.000
344.902;  121.000;  278.000;  256.000
345.035; -129.800; -556.000; -496.000
345.169; -258.100; -933.000; -656.000
345.303;   -2.200; -308.000; -482.000
345.437; -106.600; -826.000; -717.000
345.571; -128.400; -675.000; -594.000
345.704;  -71.400; -309.000; -532.000
345.838;   19.400; -331.000; -284.000
345.972;  -53.500; -543.000; -495.000
346.106;  327.400; -179.000; -190.000
346.239;  785.700; -312.000; -243.000
346.373;   12.300; -343.000; -302.000
346.507; -246.300; -950.000; -962.000
346.640;  274.500;  -30.000;   13.000
346.774;  -64.900; -650.000; -797.000
346.908;    9.700; -138.000;  -11.000
347.041; -159.600; -646.000; -593.000
347.175;   57.400;  259.000;   27.000
347.309;  -96.100; -698.000; -628.000
347.442; -153.400; -883.000; -732.000
347.576;  594.700;  670.000;  668.000
347.709;  366.000; -123.000;  -52.000
347.843; -150.800; -933.000; -825.000
347.976;   92.900;  235.000;  294.000
348.110; -304.700;-1268.000;-1186.000
348.243; -147.200; -679.000; -772.000
348.377;   69.800;  -26.000;   60.000
348.510;  178.700;  403.000;  540.000
348.644;   14.000;  -37.000; -159.000
348.777;   36.600;  180.000;  191.000
348.911;  -25.700; -142.000; -112.000
349.044;  350.800;  471.000;  448.000
349.178;  259.700;-1069.000;-1006.000
349.311;  236.400;  141.000;  255.000
349.444;  -11.900; -927.000; -813.000
349.578;   26.600; -347.000; -200.000
349.711; -179.800; -959.000; -862.000
349.845;    3.000; -661.000; -591.000
349.978; -270.700;-1224.000;-1137.000
350.111; -143.100; -546.000; -612.000
350.244; -115.400; -596.000; -700.000
350.378;   45.800; -392.000; -393.000
350.511; -111.300; -393.000; -426.000
350.644; -183.500; -808.000; -806.000
350.778;   97.000;  168.000;  104.000
350.911;   13.000;  134.000;  140.000
351.044; -149.900; -685.000; -615.000
351.177;  -46.800; -321.000; -281.000
351.310;   24.300;    3.000; -131.000
351.444; -131.400; -888.000; -788.000
351.577;  285.800;  140.000;   90.000
351.710;  237.400;  593.000;  417.000
351.843;  -36.400; -165.000;  -77.000
351.976;   23.400;  149.000;  -79.000
352.109; -144.100; -621.000; -612.000
352.242;  -18.900; -464.000; -419.000
352.376;  -65.900; -580.000; -636.000
352.509;  337.300; -437.000; -356.000
352.642;   23.400; -654.000; -604.000
352.775;  124.100; -141.000;  -98.000
352.908; -177.500; -933.000; -904.000
353.041; -176.900; -814.000; -824.000
353.174;  -69.800; -551.000; -424.000
353.307; -168.100; -753.000; -764.000
353.440;  220.000;  541.000;  453.000
353.573; -208.500; -957.000;-1008.000
353.706;  -73.000; -384.000; -558.000
353.839;  -34.500; -264.000; -220.000
353.971; -129.600; -657.000; -512.000
354.104; -149.400; -896.000; -835.000
354.237;  -41.100; -627.000; -662.000
354.370; -147.100; -846.000; -879.000
354.503; -321.600;-1231.000;-1308.000
354.636;  -30.100; -529.000; -348.000
354.769; -220.600; -937.000; -860.000
354.902;    2.600; -230.000; -139.000
355.034;    8.300; -164.000; -220.000
355.167;   10.900; -262.000; -162.000
355.300; -184.700;-1061.000; -880.000
355.433; 1727.600;  -71.000;  -14.000
355.565; 2659.100; -402.000; -384.000
355.698;  650.200; -356.000; -296.000
355.831;    6.000; -882.000; -801.000
355.964;  179.900; -285.000; -170.000
356.096; -113.100; -856.000; -843.000
356.229;   30.800; -523.000; -530.000
356.362;  582.700; -373.000; -266.000
356.494; 1065.300; -229.000; -162.000
356.627;  928.500;  269.000;  377.000
356.760; 1136.700;  120.000;   53.000
356.892; 1648.300; -286.000; -601.000
357.025; 1188.400;  403.000;  389.000
357.157; 1130.200; -167.000; -179.000
357.290; 1047.100; -856.000; -713.000
357.423;  362.600; -667.000; -556.000
357.555;  214.200; -217.000; -228.000
357.688;  227.900; -483.000; -364.000
357.820;  731.400; -870.000; -877.000
357.953; 6224.000; -563.000; -589.000
358.085; 1349.900; -632.000; -612.000
358.218; 2097.900;-1131.000; -932.000
358.350;  400.300;  -58.000;  312.000
358.483; -226.200;-1300.000;-1187.000
358.615;   12.100;-1182.000;-1078.000
358.747; -117.800;-1187.000;-1058.000
358.880;   81.600; -810.000; -744.000
359.012;   14.900; -376.000; -202.000
359.145;  -66.800; -480.000; -511.000
359.277;  101.600; -962.000; -913.000
359.409; 5151.400;  536.000;  231.000
359.542; 1293.300; -738.000; -688.000
359.674;  152.800;   46.000;   13.000
359.806;  -90.600; -565.000; -438.000
359.939;  -53.700; -617.000; -516.000
360.071;   10.500; -583.000; -579.000
360.203;  -49.200; -411.000; -364.000
360.335;  143.400;  164.000;  -16.000
360.468;  342.200; -249.000; -307.000
360.600; 4159.400; -547.000; -454.000
360.732; 4661.000; -546.000; -423.000
360.864;  595.400;-1216.000;-1044.000
360.996;  533.600; -516.000; -554.000
361.129;  119.500; -389.000; -598.000
361.261;   79.900;  110.000; -113.000
361.393;    0.700; -252.000; -214.000
361.525;  140.000;   94.000;  244.000
361.657;  -49.500; -821.000; -703.000
361.789;   51.800; -139.000; -155.000
361.921;  442.600; -642.000; -593.000
362.053;  551.600;  524.000;  541.000
362.185;  157.800;  288.000;   72.000
362.318; -111.700; -709.000; -705.000
362.450;  310.700;  294.000;  444.000
362.582;  222.000; -913.000; -870.000
362.714;  -18.000; -353.000; -332.000
362.846; -124.400; -606.000; -490.000
362.978; -230.500; -941.000; -811.000
363.109;  125.800; -161.000; -260.000
363.241;  827.100; -739.000; -749.000
363.373;  799.700; -649.000; -564.000
363.505; 1152.600; -186.000;  -91.000
363.637;  264.000; -787.000; -601.000
363.769; -205.000;-1067.000;-1080.000
363.901; -118.200; -596.000; -654.000
364.033; -203.100;-1103.000;-1062.000
364.165;   42.900; -283.000; -283.000
364.296;  159.700; -316.000; -177.000
364.428;   75.500;-1344.000;-1220.000
364.560; -109.400; -679.000; -661.000
364.692; -148.500; -738.000; -835.000
364.824;  506.800; -588.000; -456.000
364.955;  785.500; -402.000; -564.000
365.087; 1480.000;-1097.000; -852.000
365.219;   28.100; -686.000; -816.000
365.351;  -83.300; -526.000; -572.000
365.482;  120.800;  300.000;  240.000
365.614;  -53.700; -402.000; -314.000
365.746; -160.100; -729.000; -752.000
365.877; -170.100; -706.000; -672.000
366.009;  481.200;  -35.000;  -62.000
366.141; -145.100;-1249.000;-1134.000
366.272; -175.600; -803.000; -719.000
366.404; -183.600;-1005.000; -874.000
366.535;   24.500; -139.000;  -12.000
366.667; -127.900; -644.000; -649.000
366.799;  105.600;  353.000;  203.000
366.930; -173.900; -862.000; -996.000
367.062;  230.900; -639.000; -613.000
367.193;  297.100; -872.000; -842.000
367.325; -107.600; -580.000; -684.000
367.456;  175.300; -246.000;   31.000
367.588;  320.200; -371.000; -318.000
367.719;   94.500;  -44.000;  -45.000
367.851;   23.500; -222.000; -241.000
367.982;  -66.100; -875.000; -732.000
368.113;  195.500; -475.000; -358.000
368.245; -214.600; -960.000; -841.000
368.376;  -29.200; -254.000; -302.000
368.508;  -19.400; -188.000; -263.000
368.639; -278.000;-1166.000;-1034.000
368.770;    2.300; -670.000; -589.000
368.902; -117.300; -836.000; -926.000
369.033; -163.200; -906.000; -855.000
369.164; -105.500; -720.000; -653.000
369.296; -163.600; -452.000; -601.000
369.427;   43.800; -209.000; -144.000
369.558;  -55.300; -593.000; -377.000
369.689; -128.800; -721.000; -569.000
369.821; -227.400; -951.000; -845.000
369.952;   -5.000;   42.000; -108.000
370.083;  -32.500; -229.000; -108.000
370.214;  -90.100; -735.000; -650.000
370.345;   39.800;   65.000;   81.000
370.477; -170.100; -810.000; -790.000
370.608;  444.100; -328.000; -264.000
370.739;  -98.800;-1233.000;-1292.000
370.870;  -52.300;-1102.000; -923.000
371.001;  204.800; -378.000; -467.000
371.132; -104.500; -754.000; -735.000
371.263;  -16.700;  -42.000; -148.000
371.394; -215.100; -841.000; -748.000
371.525;  117.200;  345.000;  225.000
371.657; -126.500; -808.000; -670.000
371.788;  190.100;  103.000;  199.000
371.919;  332.800; -384.000; -304.000
372.050; 6277.200;  -91.000; -156.000
372.181; 1785.700; -188.000; -294.000
372.311;  664.200;   42.000; -127.000
372.442;   83.400; -457.000; -451.000
372.573;   20.400; -444.000; -340.000
372.704; -160.600;-1008.000; -980.000
372.835;  182.500; -228.000; -289.000
372.966;  -68.900; -646.000; -554.000
373.097;  -90.900; -575.000; -711.000
373.228;   -8.200; -717.000; -542.000
373.359;  238.200; -824.000; -536.000
373.490; 1654.400; -881.000; -727.000
373.620; 1993.400;-1001.000; -803.000
373.751; 3180.200; -332.000; -396.000
373.882; 1363.500; -663.000; -733.000
374.013;  145.500; -449.000; -262.000
374.143;  -45.400; -581.000; -659.000
374.274; -195.300; -987.000; -908.000
374.405;  347.100; -388.000; -276.000
374.536;  787.000; -526.000; -387.000
374.666; 1985.800; -759.000; -807.000
374.797;  406.600; -817.000; -868.000
374.928; 1539.100; -710.000; -560.000
375.058; 1592.000; -535.000; -500.000
375.189;  170.800;  -59.000;  -93.000
375.320; -190.200; -928.000;-1034.000
375.450;  -65.300; -625.000; -616.000
375.581;  -36.800; -526.000; -436.000
375.712;   -6.900; -574.000; -250.000
375.842;  576.300; -438.000; -415.000
375.973;  406.900; -554.000; -513.000
376.103;  -49.700; -665.000; -648.000
376.234; -123.500; -531.000; -552.000
376.364;  -36.100; -944.000; -867.000
376.495;  709.800;  925.000;  529.000
376.625;   29.200; -472.000; -485.000
376.756;  120.300; -709.000; -678.000
376.886; -132.100;-1178.000;-1026.000
377.017;   81.000;-1048.000;-1061.000
377.147;  637.600; -786.000; -782.000
377.278;  149.800;  174.000;  228.000
377.408; -205.400; -801.000; -815.000
377.538; -204.100; -707.000; -693.000
377.669; -104.300; -537.000; -613.000
377.799; -115.100; -645.000; -635.000
377.929;  -57.200; -610.000; -428.000
378.060; -199.000; -781.000; -847.000
378.190;  -57.900; -726.000; -531.000
378.320;  -72.300; -401.000; -406.000
378.451;   40.200; -131.000;  -22.000
378.581;   32.700;  -67.000; -110.000
378.711;  393.600; 1035.000;  866.000
378.841;  -10.100; -533.000; -675.000
378.972;  -95.000; -871.000; -751.000
379.102;   10.200; -652.000; -579.000
379.232;    9.200; -126.000;  -73.000
379.362; -172.100;-1001.000; -885.000
379.492;   81.300; -373.000; -424.000
379.623;  246.000;    0.000;  111.000
379.753; -123.500;-1107.000; -974.000
379.883;  418.800;   59.000;  156.000
380.013;   50.700;-1081.000;-1017.000
380.143; -194.100;-1097.000;-1056.000
380.273; -135.400; -985.000; -861.000
380.403;   60.500; -344.000; -257.000
380.533;  -12.700; -651.000; -664.000
380.663;  192.700;  173.000;  128.000
380.793; -110.300;-1027.000;-1074.000
380.923;  -11.300; -103.000;  -34.000
381.053; -119.400; -613.000; -623.000
381.183;   46.900; -106.000; -248.000
381.313;  130.000; -656.000; -470.000
381.443;  135.600; -692.000; -473.000
381.573;  399.300; -402.000; -409.000
381.703;  524.500;-1249.000;-1095.000
381.833; -201.900;-1454.000;-1336.000
381.963;  261.200; -134.000;  -87.000
382.093; 2463.700; -925.000; -909.000
382.223;  748.500; -713.000; -602.000
382.353;   -3.500; -801.000; -608.000
382.482;  638.200;-1091.000; -964.000
382.612; 1389.200; -872.000; -644.000
382.742;  762.100; -695.000; -622.000
382.872;  496.700; -565.000; -551.000
383.002;  212.400;  347.000; -132.000
383.131;   46.000; -226.000; -160.000
383.261;  -50.600; -706.000; -768.000
383.391;  581.400; -552.000; -377.000
383.521; 5479.900;  451.000;  263.000
383.650; 1157.600; -947.000; -904.000
383.780;  -38.400; -783.000; -656.000
383.910;  279.700;  880.000;  802.000
384.039;   65.600; -794.000; -656.000
384.169;  386.900;-1205.000;-1017.000
384.299;  -11.400; -650.000; -662.000
384.428; -149.200; -764.000; -680.000
384.558;  -28.700; -308.000; -275.000
384.687;    0.500; -414.000; -334.000
384.817;  105.700;   75.000;   -2.000
384.947;  126.400; -234.000; -141.000
385.076;  619.000;  982.000;  912.000
385.206;  254.300;  369.000;  480.000
385.335;   -1.300; -549.000; -417.000
385.465;  -87.700; -655.000; -663.000
385.594;  318.000;  -53.000;  -44.000
385.724;  768.300; -868.000; -838.000
385.853;  255.200; -296.000; -270.000
385.982; 2563.500; -743.000; -787.000
386.112; 3709.900;-1052.000; -871.000
386.241;  332.800; -307.000; -312.000
386.371;  102.300; -174.000;  -87.000
386.500;   66.000; -825.000; -789.000
386.629;   90.400; -874.000; -817.000
386.759;  212.600;  -43.000;   68.000
386.888;   99.800; -170.000; -250.000
387.017;  -63.300; -648.000; -620.000
387.147;  -85.900; -771.000; -798.000
387.276;   61.200; -410.000; -397.000
387.405;   68.400; -398.000; -342.000
387.535;  -21.700; -452.000; -361.000
387.664;  -90.500; -692.000; -620.000
387.793;  206.300; -198.000; -113.000
387.922; 1044.100;  255.000;  200.000
388.052;  114.600; -576.000; -423.000
388.181;  155.900; -342.000; -472.000
388.310;  103.500; -889.000; -710.000
388.439;   -9.300; -749.000; -742.000
388.568;  419.600;  365.000;  244.000
388.697; 1896.500; -756.000; -653.000
388.826;  389.100; -768.000; -666.000
388.956;  159.600; -285.000; -307.000
389.085;   -2.400; -347.000; -287.000
389.214; -145.000; -842.000; -872.000
389.343;  -92.700; -645.000; -413.000
389.472;  796.800;  126.000;  149.000
389.601; 1022.100;   91.000;    0.000
389.730;   38.800; -568.000; -687.000
389.859;  194.300;  226.000;   46.000
389.988;  360.700; -423.000; -408.000
390.117;  309.800; -168.000; -146.000
390.246;   47.100; -331.000; -320.000
390.375;  228.400; -673.000; -626.000
390.504;  -56.300; -703.000; -621.000
390.633; -147.100; -672.000; -726.000
390.761;  -73.400; -732.000; -645.000
390.890;  127.500;   -4.000; -130.000
391.019;  -47.200; -421.000; -441.000
391.148; -190.200; -826.000; -855.000
391.277;  -86.900; -576.000; -493.000
391.406; -100.100; -821.000; -805.000
391.534;   96.600;  574.000; -301.000
391.663;  -46.400; -583.000; -645.000
391.792; -105.000; -673.000; -701.000
391.921;  277.100;   -3.000;   15.000
392.050;  423.500; -287.000; -228.000
392.178;  -64.500;-1206.000;-1061.000
392.307;  264.400; -758.000; -712.000
392.436;  133.500; -427.000; -641.000
392.564;   89.100;  166.000;   -6.000
392.693; -134.300; -860.000; -682.000
392.822;  358.000; -529.000; -534.000
392.950;  181.600; -880.000; -714.000
393.079;  617.000; -188.000; -328.000
393.208;   63.700; -488.000; -511.000
393.336;    8.500; -170.000; -145.000
393.465;  -25.000; -317.000; -199.000
393.593;   91.800;   62.000;   79.000
393.722; -226.800;-1121.000; -916.000
393.850;    4.700; -188.000;  -61.000
393.979; -242.000; -926.000; -805.000
394.107;  -84.000; -517.000; -537.000
394.236;   -5.700; -570.000; -507.000
394.364;  520.400;  383.000;  206.000
394.493;  745.900; -911.000; -767.000
394.621;   12.900; -955.000; -916.000
394.750; 1291.900; -873.000; -923.000
394.878; 5302.500; -247.000; -149.000
395.007; 6829.300; -721.000; -807.000
395.135;  504.100; -790.000; -721.000
395.263; -124.400;-1038.000;-1040.000
395.392;   66.000;  -25.000; -107.000
395.520; -159.300; -818.000; -679.000
395.648; -177.100; -865.000; -915.000
395.777;    8.500; -366.000; -405.000
395.905;  -50.300; -449.000; -564.000
396.033;  119.300;  217.000;  172.000
396.162; 1334.100; -399.000; -453.000
396.290; 1119.600;  -17.000;   -2.000
396.418;  228.500; -555.000; -514.000
396.546; -130.900; -571.000; -466.000
396.674; -159.300; -850.000; -878.000
396.803;   84.000;  -72.000;  -23.000
396.931;  198.800; -179.000; -199.000
397.059;   97.200;-1026.000; -989.000
397.187; -174.400;-1026.000; -975.000
397.315; -221.500; -884.000; -649.000
397.443; -141.800; -592.000; -443.000
397.572; -114.100; -578.000; -424.000
397.700;  -14.800; -607.000; -614.000
397.828;   64.400;  120.000;  -90.000
397.956;  -42.800; -508.000; -478.000
398.084;  -84.100; -767.000; -626.000
398.212;  125.900;  137.000;  124.000
398.340;   87.400;  -56.000;  159.000
398.468;   78.100; -390.000; -169.000
398.596; -230.700; -993.000; -953.000
398.724; -212.800; -762.000; -767.000
398.852; -246.400;-1024.000; -976.000
398.980; -105.600; -560.000; -560.000
399.108;  -63.700; -982.000; -735.000
399.236;  113.200;   13.000;    8.000
399.363;  105.600;  222.000;  196.000
399.491;  -73.900; -404.000; -398.000
399.619; -211.900; -829.000; -800.000
399.747; -173.700; -859.000; -771.000
399.875;  199.100;  220.000;  234.000
400.003;  -76.200; -359.000; -284.000
400.130;  -96.900; -421.000; -341.000
400.258;    7.000;  -83.000;   38.000
400.386;  -41.700; -352.000; -168.000
400.514;  -51.100; -526.000; -587.000
400.641; -131.400; -928.000; -802.000
400.769; -244.300; -979.000; -888.000
400.897; -137.700; -838.000; -793.000
401.025;    9.900; -166.000; -152.000
401.152;   37.800;  220.000;   38.000
401.280; -140.600; -430.000; -429.000
401.408; -173.000; -712.000; -576.000
401.535; -152.200; -735.000; -758.000
401.663; -310.300;-1134.000;-1054.000
401.790; -126.300; -514.000; -525.000
401.918;  160.300;  436.000;  405.000
402.046;   30.600;  134.000;  122.000
402.173;   22.200;  -18.000;    7.000
402.301;  -80.200; -519.000; -397.000
402.428;  152.700;  528.000;  383.000
402.556; -269.300;-1188.000; -913.000
402.683;   14.600;  -20.000;   -1.000
402.811;   38.100;  -37.000; -206.000
402.938;   37.600;   20.000;   27.000
403.066;  348.700; -574.000; -558.000
403.193;  588.700;  299.000;  239.000
403.321;  467.600; -396.000; -574.000
403.448;  615.000;   83.000;   27.000
403.575;  271.200;  -90.000;  -46.000
403.703; -137.600; -732.000; -557.000
403.830;  -70.500; -531.000; -496.000
403.957; -238.100;-1117.000;-1023.000
404.085;   62.300;  -61.000; -172.000
404.212;  246.900;  -50.000;   63.000
404.339;  524.800; -566.000; -306.000
404.467;10428.100; -612.000; -524.000
404.594; 6530.900; -287.000; -227.000
404.721; 1522.900; -869.000; -764.000
404.848;  175.300; -113.000; -202.000
404.976; -132.700; -856.000; -783.000
405.103;   35.500;  -14.000;  -82.000
405.230;   71.700;  190.000;  226.000
405.357;  110.100;  117.000;   44.000
405.484;  554.400;  -49.000;    5.000
405.612;  116.800; -548.000; -563.000
405.739;  -77.300; -488.000; -243.000
405.866;  244.900;  669.000;  385.000
405.993;   34.000; -398.000; -102.000
406.120; -232.200; -801.000; -887.000
406.247;  -27.500; -323.000; -342.000
406.374;  884.500;  540.000;  629.000
406.501;  216.200; -632.000; -702.000
406.628; -120.700; -621.000; -589.000
406.755; -153.300; -803.000; -620.000
406.882;  -63.300; -228.000; -277.000
407.009; -120.800; -719.000; -628.000
407.136;  149.900; -480.000; -401.000
407.263;  282.600; -939.000; -829.000
407.390; -119.400; -692.000; -614.000
407.517; -258.700;-1139.000;-1187.000
407.644;  -60.000; -332.000; -256.000
407.771;  -82.800; -249.000; -287.000
407.898;   80.400;  168.000;  328.000
408.025;  -42.200; -421.000; -313.000
408.151;   47.800;   82.000;  153.000
408.278;  -82.500; -267.000; -216.000
408.405; -188.900; -931.000; -899.000
408.532; -113.800; -549.000; -542.000
408.659; -162.300; -677.000; -648.000
408.785; -339.000;-1298.000;-1170.000
408.912;  -71.300; -412.000; -296.000
409.039; -149.000; -610.000; -686.000
409.166; -177.300; -591.000; -555.000
409.292; -172.800; -571.000; -534.000
409.419; -211.800; -665.000; -649.000
409.546; -101.200; -431.000; -192.000
409.672; -175.500; -713.000; -545.000
409.799;    5.900;  -36.000;   34.000
409.926;  -26.600; -180.000; -179.000
410.052; -300.700;-1127.000;-1091.000
410.179;  -80.000; -368.000; -392.000
410.305;  -82.000; -375.000; -493.000
410.432;  -34.000; -220.000; -333.000
410.558; -154.000; -305.000; -380.000
410.685; -154.500; -688.000; -431.000
410.812; -126.200; -409.000; -588.000
410.938; -222.400; -964.000; -808.000
411.065; -124.300; -671.000; -645.000
411.191;   10.900; -189.000; -174.000
411.317; -173.000; -823.000; -742.000
411.444;  -61.000; -317.000; -246.000
411.570;  -36.300; -339.000; -294.000
411.697; -219.500; -758.000; -752.000
411.823; -293.700; -989.000; -999.000
411.949;  -38.900;  -56.000;   17.000
412.076; -166.300; -539.000; -519.000
412.202; -216.200; -758.000; -757.000
412.329; -203.700; -798.000; -752.000
412.455; -183.100; -821.000; -657.000
412.581;   26.500;  -15.000;  172.000
412.707;  -68.400; -540.000; -457.000
412.834;  102.400;  156.000;  219.000
412.960; -134.700; -785.000; -784.000
413.086; -157.000; -743.000; -701.000
413.212;  368.700;  604.000;  578.000
413.339;  -80.800; -685.000; -701.000
413.465;   54.900; -364.000; -310.000
413.591; -141.200; -757.000; -474.000
413.717;  -42.600; -358.000; -366.000
413.843; -243.800; -839.000; -861.000
413.969;  -56.700;  -47.000; -292.000
414.096; -122.000; -679.000; -679.000
414.222;   23.500;  -33.000;   85.000
414.348;  -11.400; -652.000; -385.000
414.474;  221.100;   38.000;  -52.000
414.600;   39.100; -126.000; -144.000
414.726;   15.000;  -96.000;  -55.000
414.852;  -69.000; -365.000; -342.000
414.978;  111.100;  104.000;  -18.000
415.104;  131.400;   38.000;   80.000
415.230;   89.600; -329.000; -330.000
415.356;  102.700; -409.000; -514.000
415.482;  398.300;   13.000;  -35.000
415.608;  564.900; -247.000; -323.000
415.734; 1873.200;   67.000;   38.000
415.860;37621.800; -875.000; -767.000
415.986;24605.500; -685.000; -607.000
416.111; 2039.900; -798.000; -652.000
416.237;  492.700; -424.000; -571.000
416.363; 2141.900; -765.000; -733.000
416.489; 7271.000; -324.000; -251.000
416.615;  747.300; -707.000; -742.000
416.741;   -2.700; -677.000; -784.000
416.866; -135.400; -673.000; -736.000
416.992; -176.500; -801.000; -818.000
417.118;   -5.700;  -41.000;  -80.000
417.244;  -84.900; -798.000; -531.000
417.369; -106.000; -801.000; -612.000
417.495;   36.800; -325.000; -254.000
417.621; -125.500;-1015.000; -803.000
417.746;   27.400; -579.000; -572.000
417.872;  159.400; -254.000; -144.000
417.998;  113.000; -515.000; -530.000
418.123; 2069.200;-1073.000; -845.000
418.249; 9433.100; -512.000; -601.000
418.374; 1172.100; -916.000; -824.000
418.500;  199.700; -383.000; -482.000
418.626;  249.700;   70.000;  -59.000
418.751;  244.600; -549.000; -448.000
418.877;  402.500; -637.000; -643.000
419.002; 3594.900; -688.000; -560.000
419.128;22216.800; -930.000; -721.000
419.253; 4822.900; -967.000; -837.000
419.379;  692.600; -391.000; -338.000
419.504;  764.200;  325.000;  415.000
419.629;  943.800; -393.000; -212.000
419.755; 6737.800; -317.000; -254.000
419.880;36306.400;  -98.000;   67.000
420.006;20540.900; -280.000; -221.000
420.131;50806.100; -662.000; -775.000
420.256; 6671.100; -315.000; -316.000
420.382;  933.200; -665.000; -687.000
420.507;  135.000; -649.000; -778.000
420.632;  298.600; -337.000; -339.000
420.758;  465.500; -251.000; -425.000
420.883; -123.800; -876.000; -672.000
421.008; -147.900; -775.000; -619.000
421.133;  -80.100; -509.000; -467.000
421.259;  -37.300; -325.000; -259.000
421.384; -149.400; -834.000; -693.000
421.509;  -75.900;-1052.000; -862.000
421.634; 2207.400; -936.000; -820.000
421.759;  860.800; -359.000; -327.000
421.885;  -85.000; -717.000; -656.000
422.010; -118.000; -673.000; -542.000
422.135; -242.700; -695.000; -727.000
422.260;  125.000;  340.000;  280.000
422.385;  -22.700;   12.000;  -98.000
422.510;   54.200;  151.000;  -26.000
422.635;  121.200;  -87.000;  -43.000
422.760;  197.100; -766.000; -791.000
422.885;  180.100;  -57.000;  -80.000
423.010;   11.100; -112.000; -169.000
423.135; -102.300; -481.000; -561.000
423.260;    3.300; -150.000; -245.000
423.385;  213.900;  476.000;  222.000
423.510;  116.300;   71.000;  -22.000
423.635;  185.800;  133.000;   45.000
423.760;  171.100;  383.000;  328.000
423.885;  178.400;  336.000;  391.000
424.010;   49.300;  -68.000;  -13.000
424.135;   39.300;    5.000;  -33.000
424.259; -101.600; -654.000; -457.000
424.384;  -54.300; -279.000; -272.000
424.509;    1.000; -260.000; -186.000
424.634; -110.900; -761.000; -623.000
424.759;  -24.000; -688.000; -544.000
424.883;   22.300; -506.000; -527.000
425.008;  333.400; -502.000; -410.000
425.133; 3713.100; -679.000; -653.000
425.258; 1470.700; -517.000; -381.000
425.382; 1912.000; -867.000; -774.000
425.507; 4435.400; -487.000; -543.000
425.632;  734.300; -802.000; -663.000
425.756;  785.500; -256.000; -146.000
425.881;11954.800; -831.000; -857.000
426.006;29219.600; -604.000; -355.000
426.130; 4147.600; -696.000; -508.000
426.255;  568.600; -611.000; -491.000
426.379;  335.100; -189.000; -577.000
426.504;  790.400;  660.000;  544.000
426.629; 7793.700; -519.000; -466.000
426.753; 4602.900;   64.000;  -46.000
426.878;  578.200; -252.000; -288.000
427.002;  398.400; -651.000; -668.000
427.127; 3088.200;  -35.000; -158.000
427.251;20365.100;  372.000;  401.000
427.375; 5204.700; -191.000; -173.000
427.500; 3987.100; -616.000; -610.000
427.624; 1269.700; -234.000; -400.000
427.749;  180.100; -216.000; -225.000
427.873;  -22.100; -499.000; -412.000
427.997;  -22.200; -222.000; -230.000
428.122;  258.600;  795.000;  703.000
428.246;  239.300;  433.000;  434.000
428.371; -158.000; -869.000; -773.000
428.495; -143.500; -624.000; -646.000
428.619;   56.000; -186.000; -117.000
428.743;  108.900;   65.000;  132.000
428.868;   59.500; -732.000; -643.000
428.992; 2504.800; -219.000; -326.000
429.116;  918.500; -329.000; -357.000
429.240;  551.600;  419.000;  426.000
429.365;  -15.500; -454.000; -574.000
429.489;  -29.200; -638.000; -647.000
429.613;  147.400; -236.000; -177.000
429.737;  130.500; -563.000; -432.000
429.861;  586.500; -247.000; -133.000
429.985;10567.900; -425.000; -305.000
430.109;10378.500; -770.000; -908.000
430.234; 1189.300;   76.000;  -50.000
430.358;  151.400; -250.000; -160.000
430.482;  -48.400; -672.000; -564.000
430.606;  -31.800; -655.000; -375.000
430.730;   86.900; -437.000; -388.000
430.854;  294.500; -909.000; -835.000
430.978;  -93.200; -795.000; -764.000
431.102;  -74.800; -499.000; -422.000
431.226; -156.100; -874.000; -815.000
431.350;  192.700;  345.000;  422.000
431.474;  -92.900; -661.000; -373.000
431.597; -266.800;-1060.000; -848.000
431.721; -108.000; -276.000; -267.000
431.845; -217.600; -704.000; -472.000
431.969; -107.300; -304.000; -349.000
432.093; -134.500; -395.000; -317.000
432.217;   39.100;   32.000;   82.000
432.341; -115.000; -523.000; -518.000
432.464;   87.000;   96.000;   40.000
432.588;  463.700; -401.000; -329.000
432.712;  193.300;  -52.000;  -52.000
432.836;  149.000;  213.000;  263.000
432.959;   14.600; -372.000; -311.000
433.083;  241.500;   11.000;    2.000
433.207;  745.100;  285.000;  930.000
433.330; 9483.700; -391.000; -200.000
433.454;10553.100; -654.000; -638.000
433.578; 6320.700;  583.000;  278.000
433.701; 1035.000; -623.000; -675.000
433.825;  281.100; -292.000; -299.000
433.949;  383.600;   28.000;  -72.000
434.072;  160.700; -410.000; -323.000
434.196;   48.100; -309.000; -117.000
434.319; 7791.700;25482.000;25124.000
434.443; 1439.900; -656.000; -603.000
434.566; 4699.300;  281.000;   62.000
434.690;  657.700; -637.000; -383.000
434.813;  124.900; -251.000; -173.000
434.937; -114.500; -569.000; -696.000
435.060;  -24.100; -423.000; -332.000
435.184;  607.100; -492.000; -217.000
435.307;  407.000;  159.000;  102.000
435.431;   40.500;  -40.000;   24.000
435.554;  -32.800; -399.000; -240.000
435.677;  -75.500; -350.000; -258.000
435.801;  -28.400;  -25.000;   49.000
435.924;   31.100;    1.000;  -67.000
436.048; -150.100;-1019.000; -732.000
436.171;  -84.200; -240.000;  -66.000
436.294;   -7.800; -248.000; -229.000
436.417;  168.700; -963.000; -849.000
436.541; -143.000; -814.000; -840.000
436.664;  -88.100; -242.000; -316.000
436.787;   20.500;   13.000;  113.000
436.910; -180.400; -792.000; -422.000
437.034;   98.700;  142.000;  143.000
437.157;  156.600;  -11.000;    0.000
437.280;  -18.000; -392.000; -292.000
437.403; -135.400; -982.000; -869.000
437.526; 1280.600; -903.000; -865.000
437.649; 4081.800; -505.000; -332.000
437.772;  516.800; -692.000; -540.000
437.896;  262.600;  700.000;  544.000
438.019; -117.500; -758.000; -503.000
438.142; -108.000; -596.000; -506.000
438.265;   32.100; -639.000; -670.000
438.388; 1099.700; -520.000; -410.000
438.511;  219.300; -597.000; -394.000
438.634;  -41.900; -247.000; -125.000
438.757; -193.600; -693.000; -619.000
438.880;  -31.800;  -34.000;  -57.000
439.003;  -71.500; -417.000; -437.000
439.126;  -68.000; -287.000; -167.000
439.248;  -43.200;  -98.000; -139.000
439.371;    3.500;    9.000;  -53.000
439.494;  153.800;  510.000;  439.000
439.617;  -30.200;   65.000;  -88.000
439.740; -274.200; -968.000; -816.000
439.863; -220.300; -755.000; -595.000
439.986; -179.600; -476.000; -431.000
440.108;  -40.900; -161.000; -112.000
440.231; -268.800; -950.000; -836.000
440.354;  -46.000;  -64.000; -150.000
440.477;  113.400; -566.000; -542.000
440.599;   65.200; -200.000; -225.000
440.722; -195.300; -709.000; -586.000
440.845;  215.200;  751.000;  928.000
440.968; -140.100; -415.000; -311.000
441.090;  -65.600; -199.000;  -33.000
441.213; -269.900;-1021.000; -825.000
441.336;  -42.400; -159.000;   -5.000
441.458;  -87.300; -549.000; -396.000
441.581; -142.500; -628.000; -629.000
441.703;  -67.400; -152.000;   13.000
441.826; -179.800; -557.000; -400.000
441.948;  -32.600;   56.000;   51.000
442.071;  124.600;  555.000;  424.000
442.193; -189.200; -531.000; -485.000
442.316;   83.600;  152.000;   97.000
442.438;  139.900; -233.000;  -10.000
442.561;  205.500;  272.000;  262.000
442.683; 1094.400; -809.000; -522.000
442.806; 2051.500;   -8.000;   74.000
442.928;   54.900; -859.000; -604.000
443.051; -112.400; -577.000; -373.000
443.173; -121.500; -341.000; -339.000
443.295; -107.200; -263.000; -371.000
443.418; -103.300; -321.000;  -29.000
443.540;   25.400; -106.000;   -4.000
443.662; -154.500; -563.000; -465.000
443.785;   21.300;  335.000;  199.000
443.907; -165.300; -362.000; -208.000
444.029; -203.300; -767.000; -494.000
444.152; -214.900; -644.000; -554.000
444.274;  -32.200;  -18.000;  -24.000
444.396; -166.600; -461.000; -221.000
444.518; -212.100; -691.000; -454.000
444.640; -134.700; -268.000; -111.000
444.763;   25.200;  388.000;  249.000
444.885; -204.400; -432.000; -392.000
445.007;   -2.000;   35.000;   86.000
445.129; -166.700; -610.000; -515.000
445.251; -129.900; -372.000; -439.000
445.373; -159.600; -537.000; -386.000
445.495;   52.800;  242.000;  350.000
445.617;  212.400;  853.000;  753.000
445.739;  -92.000; -215.000;  -97.000
445.861;   -0.800; -245.000; -112.000
445.984;  -58.100; -267.000; -101.000
446.105;  453.500; -418.000; -251.000
446.227; 1100.300; -176.000;  -19.000
446.349;   47.900; -358.000; -249.000
446.471; -143.400; -615.000; -448.000
446.593;  -69.900; -316.000;   19.000
446.715;   45.000;  -67.000;   41.000
446.837;  183.000;  697.000;  832.000
446.959; -121.700; -457.000; -478.000
447.081; -212.900; -628.000; -518.000
447.203;  179.800;  862.000;  834.000
447.325; -130.300; -270.000;   42.000
447.446;   35.400;  286.000;  530.000
447.568; -269.300; -921.000; -803.000
447.690; -100.900; -236.000; -245.000
447.812; -229.700; -798.000; -519.000
447.933;   18.900;  155.000;  127.000
448.055;  -34.200; -306.000; -261.000
448.177;  338.500;   31.000;   79.000
448.299;  126.500; -935.000; -727.000
448.420;   79.800;  -25.000;  159.000
448.542;  -48.800;   -3.000;   33.000
448.664;   16.500;  109.000;  322.000
448.785;    0.900;  265.000;   83.000
448.907;  -92.500; -614.000; -353.000
449.028;  -41.600; -771.000; -471.000
449.150;  170.900;  492.000;  589.000
449.272; -300.800;-1044.000; -913.000
449.393;  162.300;  612.000;  694.000
449.515; -218.400; -634.000; -581.000
449.636;  -24.200; -264.000; -155.000
449.758;  228.900;  763.000;  622.000
449.879; -125.000; -498.000; -396.000
450.001; -106.800; -149.000;  -49.000
450.122;   -6.300;  -95.000;  162.000
450.244;   33.300;   37.000;  364.000
450.365; -149.600; -495.000; -301.000
450.486;  -12.700;   80.000;  268.000
450.608;  125.200;  393.000;  326.000
450.729;  214.100;  578.000;  645.000
450.850;    2.200; -574.000; -466.000
450.972; 1426.400; -552.000; -389.000
451.093; 8863.400;  190.000;  588.000
451.214; 3275.300; -516.000; -337.000
451.336;  658.600;  773.000;  579.000
451.457;  166.700;  264.000;  393.000
451.578;   -9.500; -118.000;  -74.000
451.699; -181.900; -546.000; -540.000
451.821;  -84.200; -284.000;  -50.000
451.942;   44.900;  278.000;  285.000
452.063;  115.500;  228.000;  419.000
452.184; 1157.500;  -54.000;  -49.000
452.305; 1931.600;  103.000;  170.000
452.427;  208.600; -549.000; -301.000
452.548;   13.200;   23.000;   79.000
452.669;  -36.000; -257.000;  -89.000
452.790;    9.000;    3.000;  -18.000
452.911;   99.900;  195.000;  259.000
453.032;  -67.000; -289.000;  -60.000
453.153;  -38.400;  -29.000;   81.000
453.274;  189.100;  737.000;  868.000
453.395;  -63.300;  -51.000;  175.000
453.516;  309.900; 1317.000; 1388.000
453.637;  -60.600; -205.000; -150.000
453.758;  -53.300;   15.000;   69.000
453.879; -180.700; -462.000; -250.000
454.000;  217.000; 1086.000;  948.000
454.121; -149.300; -554.000; -326.000
454.242; -170.400; -599.000; -383.000
454.362;  -22.500;  -99.000;  114.000
454.483;   11.900; -309.000; -229.000
454.604;  156.200;  512.000;  580.000
454.725; -214.200; -627.000; -555.000
454.846; -201.100; -474.000; -406.000
454.967;    0.700;  230.000;  539.000
455.087;   -7.500;  179.000;  153.000
455.208;  110.300;  554.000;  856.000
455.329;  -33.400;  -22.000;   82.000
455.450;  153.200;  473.000;  633.000
455.570; -108.100; -234.000; -211.000
455.691;  -37.400;  201.000;  407.000
455.812; -150.800; -270.000;  -92.000
455.932;  -32.200;  107.000;  -97.000
456.053;  -82.100;   36.000;   24.000
456.173; -183.700; -433.000; -355.000
456.294; -186.300; -476.000; -303.000
456.415;  -65.800;  -73.000;   70.000
456.535;   -8.400;  297.000;  273.000
456.656;   -0.600;  132.000;  240.000
456.776;  -28.800;    3.000;  298.000
456.897;   87.300;  308.000;  513.000
457.017;  -88.700; -153.000;   -3.000
457.138; -152.200; -402.000; -249.000
457.258;    2.000;  263.000;  224.000
457.379;   49.500;  509.000;  521.000
457.499;   46.800;  443.000;  432.000
457.620; -179.700; -407.000; -231.000
457.740;  -97.500; -132.000;  -11.000
457.860;  -36.200;   87.000;   44.000
457.981;   -2.700;  132.000;  124.000
458.101;  -92.700;  -89.000;   40.000
458.221;   47.400;  336.000;  402.000
458.342;  -54.400;   -4.000;  -37.000
458.462;  116.400;  617.000;  352.000
458.582;  -34.100; -302.000; -294.000
458.703;   82.500;  303.000;  154.000
458.823;  -18.700;   22.000;  163.000
458.943;  118.700;  341.000;  467.000
459.063;   23.300; 1124.000;  192.000
459.183;   10.700;  328.000;  313.000
459.304;   52.100;  315.000;  517.000
459.424;  -50.600; -246.000;  -89.000
459.544;  697.700;  388.000;  764.000
459.664; 1576.900;  499.000;  506.000
459.784;  573.400; 1004.000; 1175.000
459.904;  203.900;  867.000;  744.000
460.024;  225.400;  867.000;  684.000
460.144;  105.200;  449.000;  554.000
460.264;   77.500;  515.000;  327.000
460.385;  -96.200; -145.000; -119.000
460.505;  155.400;  905.000;  858.000
460.625;  -83.800;  -17.000;  -68.000
460.745;   26.200;  396.000;  541.000
460.864;   17.000;  153.000;  469.000
460.984;   90.700;  499.000;  573.000
461.104;  390.300; 1656.000; 1775.000
461.224;   78.900;  657.000;  650.000
461.344;    7.100;  431.000;  360.000
461.464;  -24.100;  258.000;  513.000
461.584;   63.600;  283.000;  466.000
461.704;  -48.000;   58.000;  108.000
461.824;  -53.800;  238.000;  259.000
461.943;   12.800;  191.000;  130.000
462.063;  -70.700;    2.000;  324.000
462.183;  108.400;  639.000;  717.000
462.303;  310.000; 1678.000; 1230.000
462.422;  111.000;  781.000;  840.000
462.542;  -23.400;  271.000;  391.000
462.662;  156.500;  353.000;  380.000
462.782;  557.400;  833.000;  572.000
462.901;  932.000;  545.000;  717.000
463.021;  605.200; 1702.000; 1638.000
463.141;   35.800;  337.000;  770.000
463.260;    5.700;  614.000;  474.000
463.380;   85.000;  902.000;  884.000
463.499;  -16.000;  342.000;  332.000
463.619;  -13.500;  581.000;  559.000
463.738;  301.500; 1644.000;  903.000
463.858;   96.300;  657.000;  811.000
463.978;   28.800;  542.000;  396.000
464.097;  143.000;  921.000; 1114.000
464.217;  311.300; 1196.000; 1143.000
464.336;  259.900; 1068.000; 1130.000
464.455;   -5.100;  328.000;  659.000
464.575;  122.000;  597.000;  602.000
464.694;  395.300; 1204.000; 1179.000
464.814;  302.000; 1190.000; 1138.000
464.933;  190.600; 1095.000; 1027.000
465.052;  269.900; 1412.000; 1054.000
465.172;  222.600;  922.000;  799.000
465.291;  349.500; 1376.000; 1320.000
465.410;  102.800;  462.000;  735.000
465.530;  236.400; 1355.000; 1310.000
465.649;  245.500; 1209.000; 1273.000
465.768;  394.200; 1673.000; 1508.000
465.888;  207.900;  941.000; 1174.000
466.007;  260.800; 1335.000; 1440.000
466.126;   78.600;  721.000;  641.000
466.245;  189.600; 1176.000; 1187.000
466.364;  129.300;  950.000; 1060.000
466.484;  176.100; 1024.000; 1213.000
466.603;  159.900; 1101.000; 1222.000
466.722;  322.100; 1490.000; 1769.000
466.841;  266.800; 1151.000; 1401.000
466.960;  207.900; 1069.000;  972.000
467.079;  351.900; 1971.000; 1786.000
467.198;  164.500; 1238.000; 1181.000
467.317;  293.800; 1768.000; 1162.000
467.436;  237.100; 1709.000; 1261.000
467.555;  379.800; 1796.000; 1746.000
467.674;  175.200; 1227.000; 1329.000
467.793;  219.600; 1376.000; 1374.000
467.912;  228.300; 1658.000; 1539.000
468.031;  374.300; 2038.000; 1930.000
468.150;  377.000; 1842.000; 1837.000
468.269;  484.400; 2313.000; 2090.000
468.388;  448.000; 2168.000; 2339.000
468.507;  629.300; 2884.000; 2903.000
468.626;  641.100; 2555.000; 2541.000
468.744;  400.600; 2018.000; 2174.000
468.863;  443.700; 2312.000; 2523.000
468.982;  244.500; 1503.000; 1555.000
469.101;  541.300; 2788.000; 2692.000
469.220;  382.900; 2333.000; 2176.000
469.338;  577.600; 2935.000; 3051.000
469.457;  500.500; 2719.000; 2545.000
469.576;  832.800; 3953.000; 3784.000
469.695;  570.200; 2877.000; 3066.000
469.813;  895.100; 4148.000; 4192.000
469.932;  899.900; 4255.000; 4485.000
470.051;  901.800; 4075.000; 4161.000
470.169; 1755.900; 4470.000; 4338.000
470.288; 2789.800; 4700.000; 4809.000
470.406; 1670.300; 5059.000; 5194.000
470.525; 1315.300; 6101.000; 5787.000
470.644; 1404.100; 6847.000; 6794.000
470.762; 1739.000; 8397.000; 7873.000
470.881; 1879.900; 8651.000; 8464.000
470.999; 2168.100; 9685.000; 9151.000
471.118; 2400.300;11174.000;10711.000

