
Integration time [ms]: 200.000
Averaging Nr. [scans]: 10
Smoothing Nr. [pixels]: 0
Data measured with spectrometer [name]: 2101012U2
Wave   ;Sample   ;Dark     ;Reference
[nm]   ;[counts] ;[counts] ;[counts] 

197.733;  124.400;  516.000;  404.000
197.879; -165.900; -610.000; -634.000
198.025; -103.700; -475.000; -420.000
198.171; -180.900; -602.000; -612.000
198.317;  -83.900; -401.000; -316.000
198.463; -113.500; -655.000; -404.000
198.609;   72.300;  181.000; -137.000
198.755; -168.900; -644.000; -410.000
198.901; -143.700; -505.000; -424.000
199.047; -124.600; -615.000; -488.000
199.193;  -73.600; -230.000; -468.000
199.339;  -81.300; -222.000; -369.000
199.485;   88.800;  330.000;  271.000
199.631;   27.700;  227.000;  310.000
199.777; -141.600; -466.000; -398.000
199.923; -142.500; -610.000; -424.000
200.069;    1.100; -141.000;  -58.000
200.215;  128.400;  128.000;  453.000
200.361;   74.000;  243.000;  477.000
200.507; -132.500; -600.000; -373.000
200.653;  -83.700; -371.000; -194.000
200.798;  -66.200; -215.000; -125.000
200.944;  -14.800; -146.000;  -41.000
201.090;   99.400;   61.000;  222.000
201.236;  -10.400; -116.000; -158.000
201.382;  282.300;  874.000;  903.000
201.528;   16.100;  -58.000;  -48.000
201.674;  -25.200; -386.000; -293.000
201.819; -146.300; -540.000; -439.000
201.965; -166.200; -699.000; -447.000
202.111;  -73.100; -273.000; -226.000
202.257;  -86.700; -250.000; -238.000
202.402;    1.800;   13.000;  -36.000
202.548;  -55.200; -169.000; -116.000
202.694;  163.100;  410.000; -183.000
202.840; -138.700; -603.000; -531.000
202.985; -174.800; -681.000; -639.000
203.131; -221.300; -832.000; -666.000
203.277;  -47.100; -199.000; -262.000
203.423; -119.200; -434.000; -520.000
203.568; -114.000; -462.000; -237.000
203.714; -125.000; -535.000; -542.000
203.860; -160.000; -682.000; -641.000
204.005;   41.600;  112.000;  167.000
204.151;  155.200;  561.000;  556.000
204.296;  -97.700; -354.000; -221.000
204.442; -151.900; -600.000; -547.000
204.588; -164.700; -592.000; -579.000
204.733;    7.000;  178.000;  168.000
204.879; -262.400;-1018.000; -822.000
205.025;   15.700;  -99.000;  126.000
205.170;   10.300;  -17.000;   94.000
205.316;  178.400;  438.000;  661.000
205.461; -180.800; -698.000; -554.000
205.607;  174.900;  609.000;  665.000
205.752; -180.100; -626.000; -551.000
205.898;  -98.100; -501.000; -391.000
206.043; -138.900; -578.000; -506.000
206.189;  -91.500; -243.000; -285.000
206.334;  187.400;  554.000;  606.000
206.480;  167.500;  409.000;  239.000
206.625; -178.600; -529.000; -552.000
206.771; -102.400; -451.000; -373.000
206.916;  -68.500; -210.000; -537.000
207.062; -170.300; -545.000; -591.000
207.207; -141.200; -546.000; -443.000
207.353;   77.900;  185.000;  460.000
207.498;   63.700;  196.000;   85.000
207.643; -111.400; -501.000; -370.000
207.789; -249.100;-1069.000; -910.000
207.934; -195.800; -665.000; -713.000
208.080;  -56.500; -154.000;   66.000
208.225;    8.100;  -22.000;  -57.000
208.370; -194.700; -727.000; -619.000
208.516; -196.100; -741.000; -487.000
208.661;  -51.500; -127.000;  -69.000
208.806;  -43.300; -165.000; -171.000
208.952; -257.700;-1044.000; -731.000
209.097;  153.000;  378.000;  349.000
209.242;  -70.800; -307.000; -382.000
209.387;   89.900;  392.000;  350.000
209.533; -102.300; -321.000; -350.000
209.678;  167.900;  472.000;  543.000
209.823; -117.700; -408.000; -310.000
209.969; -229.700; -860.000; -757.000
210.114; -228.600; -907.000; -719.000
210.259; -252.200; -939.000; -889.000
210.404;  -10.400; -171.000;  103.000
210.549;   24.100;  108.000;    3.000
210.695;  -51.400;   -3.000;  -95.000
210.840;   65.500;   94.000;   67.000
210.985; -132.600; -484.000; -303.000
211.130;  129.000;  268.000;  406.000
211.275;   49.700;  207.000;  199.000
211.420;  -76.100; -300.000; -289.000
211.566; -157.700; -536.000; -489.000
211.711;   35.900;  218.000;  157.000
211.856; -106.800; -545.000; -519.000
212.001;   36.100;  151.000;   44.000
212.146;  -14.000;  153.000;   49.000
212.291;  -17.200; -210.000; -186.000
212.436;  -60.100; -280.000;   -6.000
212.581; -216.300; -685.000; -653.000
212.726; -136.100; -487.000; -538.000
212.871;  -73.200; -552.000; -217.000
213.016; -336.000;-1172.000;-1029.000
213.161;  122.300;  406.000;  291.000
213.306; -157.900; -435.000; -577.000
213.451; -224.600; -778.000; -689.000
213.596;  -90.900; -455.000; -347.000
213.741; -111.000; -448.000; -538.000
213.886; -162.800; -498.000; -517.000
214.031;  -56.000; -294.000; -124.000
214.176;  -97.100; -408.000; -341.000
214.321;  -21.700; -296.000; -157.000
214.466;  -53.200; -163.000;  -43.000
214.611;   18.600;  -61.000;  -10.000
214.756; -258.900; -948.000; -858.000
214.901;  -42.500; -388.000; -226.000
215.046; -248.700; -797.000; -825.000
215.191;   28.900;  128.000;   35.000
215.336;   -5.100; -157.000;  -19.000
215.480; -127.500; -684.000; -505.000
215.625;  -34.400; -175.000;  -19.000
215.770; -182.400; -757.000; -662.000
215.915;   24.700;   -5.000;  -97.000
216.060;  -22.200; -113.000;  -21.000
216.205; -239.300; -731.000; -779.000
216.349; -147.300; -470.000; -533.000
216.494; -271.900; -939.000; -867.000
216.639; -260.300; -823.000; -888.000
216.784; -161.200; -577.000; -525.000
216.929;  112.600;  392.000;  281.000
217.073;  -20.400; -244.000;  -31.000
217.218;   18.200;   78.000;  -47.000
217.363; -155.500; -656.000; -618.000
217.507; -148.000; -623.000; -588.000
217.652; -257.600; -845.000; -874.000
217.797; -172.000; -708.000; -659.000
217.942; -228.800; -856.000; -720.000
218.086;  163.000;  608.000;  539.000
218.231;  -35.700; -174.000;  -26.000
218.376;  -88.100; -337.000; -229.000
218.520;   28.200;  -41.000;   96.000
218.665;  -84.100; -338.000; -204.000
218.810;  -93.300; -275.000; -233.000
218.954;   25.600;  201.000;   35.000
219.099; -233.400; -713.000; -963.000
219.243; -145.300; -589.000; -554.000
219.388;  -53.500; -264.000; -136.000
219.532;   -7.500; -116.000; -116.000
219.677; -177.300; -564.000; -521.000
219.822;   20.300;   33.000;   89.000
219.966;    2.700;   17.000;  -99.000
220.111;  -56.400; -328.000;  -40.000
220.255; -202.700; -797.000; -750.000
220.400;  -38.300; -180.000; -146.000
220.544; -161.100; -516.000; -450.000
220.689; -114.100; -422.000; -451.000
220.833;  -42.600; -123.000;  -58.000
220.978; -103.200; -393.000; -563.000
221.122;   47.600;  319.000;  307.000
221.267; -247.100; -906.000; -837.000
221.411; -138.700; -478.000; -394.000
221.555;    2.800; -104.000;  -23.000
221.700;  -92.800; -329.000; -222.000
221.844;   83.500;  255.000;  272.000
221.989; -101.200; -328.000; -311.000
222.133;  -94.500; -289.000; -307.000
222.277;   34.300;    5.000;   78.000
222.422;   41.500;  227.000;  113.000
222.566;  -70.900; -381.000; -214.000
222.711; -123.000; -414.000; -479.000
222.855; -156.000; -643.000; -586.000
222.999; -171.100; -642.000; -717.000
223.144;  -54.400; -195.000; -194.000
223.288;  137.200;  423.000;  251.000
223.432;   63.000;  184.000;  230.000
223.576;   42.300;  152.000;  -21.000
223.721;  102.300;  364.000;  273.000
223.865; -133.900; -472.000; -475.000
224.009;  529.900; 1673.000; 1631.000
224.153; -173.600; -660.000; -671.000
224.298; -139.700; -531.000; -489.000
224.442;  -18.600;  -74.000;  -33.000
224.586;  -21.900; -169.000; -106.000
224.730; -213.700; -858.000; -670.000
224.875; -247.300; -739.000; -688.000
225.019;   21.700;  102.000;  188.000
225.163;  130.000;  208.000;  341.000
225.307;   51.600;   97.000;  -91.000
225.451;  134.600;  360.000;  481.000
225.595;   78.800;  264.000;  176.000
225.739;  -18.800; -170.000;  -94.000
225.884;   51.400;   86.000;    5.000
226.028; -180.700; -760.000; -626.000
226.172;  -82.500; -260.000; -273.000
226.316; -254.800; -941.000; -902.000
226.460; -165.900; -645.000; -493.000
226.604;  -85.300; -406.000; -400.000
226.748; -204.400; -836.000; -733.000
226.892;  -52.100; -227.000; -181.000
227.036; -110.400; -537.000; -447.000
227.180; -115.800; -551.000; -375.000
227.324; -128.800; -561.000; -580.000
227.468; -239.400; -819.000; -717.000
227.612;    8.600;  242.000;  -28.000
227.756; -204.700; -845.000; -698.000
227.900;  114.100;  342.000;  441.000
228.044; -107.100; -509.000; -290.000
228.188;  121.500;  448.000;  568.000
228.332; -173.100; -546.000; -472.000
228.476;  -63.200; -223.000; -149.000
228.620;  -37.100; -210.000; -150.000
228.764;  125.500;  431.000;  349.000
228.908;  -25.400; -155.000;   30.000
229.052; -139.100; -615.000; -528.000
229.195;  -25.700; -172.000;   13.000
229.339;  -21.400; -235.000; -305.000
229.483;  -72.400;    5.000; -162.000
229.627;  -14.900; -156.000;  139.000
229.771;  -78.600; -218.000; -294.000
229.915;   17.500;  230.000;   79.000
230.059; -178.200; -648.000; -663.000
230.202;  -69.600; -370.000; -317.000
230.346;  -26.800; -107.000;  107.000
230.490; -128.200; -489.000; -521.000
230.634; -220.600; -736.000; -553.000
230.777;  160.900;  478.000;  509.000
230.921;  -96.300; -450.000; -359.000
231.065; -101.600; -246.000; -286.000
231.209;   67.700;  261.000;  265.000
231.352;   85.900;   54.000;   40.000
231.496;   65.200;  568.000;  188.000
231.640; -145.400; -693.000; -621.000
231.783;  131.600;  546.000;  525.000
231.927; -103.500; -294.000; -365.000
232.071; -261.800; -962.000; -736.000
232.214; -219.700; -980.000; -764.000
232.358; -224.200; -683.000; -599.000
232.502;   30.500;  -19.000;    7.000
232.645; -271.500;-1090.000; -927.000
232.789;  -41.700; -257.000; -218.000
232.933;  -83.200; -407.000; -224.000
233.076; -272.400;-1038.000; -897.000
233.220; -210.100; -752.000; -777.000
233.363; -132.700; -669.000; -477.000
233.507;  126.900;  371.000;  129.000
233.650; -175.500; -764.000; -834.000
233.794;  116.400;  438.000;  461.000
233.938; -125.400; -530.000; -362.000
234.081;  -19.700;  -93.000;   31.000
234.225; -160.900; -631.000; -539.000
234.368; -227.200; -773.000; -723.000
234.512;  -73.500; -385.000; -299.000
234.655; -202.800; -582.000; -555.000
234.798; -142.000; -493.000; -466.000
234.942; -261.700; -884.000;-1002.000
235.085; -132.400; -651.000; -443.000
235.229; -103.200; -405.000; -410.000
235.372; -109.600; -247.000; -191.000
235.516;  -98.500; -397.000; -321.000
235.659;   49.000;   92.000;  121.000
235.802;    1.800;  -38.000;  -22.000
235.946;   67.400;  335.000;  215.000
236.089;   78.900;  126.000;  250.000
236.233;   95.600;  275.000;  298.000
236.376; -110.200; -235.000; -378.000
236.519;  -94.200; -297.000; -319.000
236.663;  -43.300; -215.000; -117.000
236.806; -286.900;-1029.000; -999.000
236.949;  138.700;  543.000;  431.000
237.092;  179.200;  412.000;  391.000
237.236; -158.800; -589.000; -502.000
237.379;  129.400;  352.000;  428.000
237.522; -235.200; -879.000; -768.000
237.666;  -30.100; -271.000;   18.000
237.809; -247.500; -851.000; -823.000
237.952;   65.100;  469.000;  271.000
238.095; -139.200; -447.000; -442.000
238.238;  198.100;  688.000;  700.000
238.382;   19.400;  166.000;  103.000
238.525; -153.000; -598.000; -511.000
238.668; -277.700;-1060.000; -985.000
238.811; -174.500; -638.000; -643.000
238.954; -135.800; -483.000; -334.000
239.097;  210.400;  617.000;  664.000
239.241;   96.900;  394.000;  326.000
239.384;  -54.500; -254.000; -214.000
239.527; -116.400; -424.000; -224.000
239.670; -302.800; -994.000;-1091.000
239.813; -193.300; -696.000; -658.000
239.956;  192.200;  579.000;  473.000
240.099; -229.900; -778.000; -725.000
240.242;  138.000;  428.000;  432.000
240.385;  113.700;  466.000;  450.000
240.528; -162.000; -706.000; -473.000
240.671;   49.800;  189.000;  134.000
240.814;  -81.200; -441.000; -158.000
240.957; -192.300; -767.000; -578.000
241.100; -182.400; -779.000; -755.000
241.243; -301.300;-1234.000; -893.000
241.386; -126.300; -508.000; -379.000
241.529; -187.900; -735.000; -547.000
241.672; -124.500; -566.000; -495.000
241.815; -242.800; -832.000; -808.000
241.958;  -38.600; -125.000; -182.000
242.101; -160.600; -545.000; -390.000
242.244;  -94.600; -270.000; -325.000
242.387;  -96.000; -304.000; -246.000
242.530;  161.600;  470.000;  134.000
242.673;  -62.000; -381.000; -309.000
242.815; -237.400; -925.000; -899.000
242.958; -141.400; -482.000; -381.000
243.101;   37.700;  132.000;  187.000
243.244; -170.700; -564.000; -521.000
243.387;  -80.800; -313.000; -316.000
243.530; -202.300; -657.000; -674.000
243.672;   -2.200;   43.000;  -92.000
243.815;  -89.000; -355.000; -283.000
243.958;   11.200;   98.000;  -26.000
244.101;   18.300;   59.000;  -16.000
244.243;  -24.500;  -47.000;  101.000
244.386; -209.700; -761.000; -630.000
244.529;  -37.300; -132.000; -139.000
244.672; -328.100;-1154.000; -951.000
244.814; -202.700; -621.000; -794.000
244.957; -116.500; -380.000; -304.000
245.100; -153.000; -489.000; -489.000
245.242; -137.900; -387.000; -374.000
245.385;   -7.900;  -59.000;  -39.000
245.528; -238.200; -871.000; -705.000
245.670;  226.700;  612.000;  634.000
245.813; -171.000; -599.000; -547.000
245.956;  -76.500; -324.000; -275.000
246.098; -130.200; -508.000; -650.000
246.241;   -1.600;  194.000;   48.000
246.383;  -53.700; -119.000;  -73.000
246.526; -138.900; -454.000; -525.000
246.669; -234.200; -889.000; -780.000
246.811;   36.000;  172.000;   -1.000
246.954;  -92.400; -512.000; -426.000
247.096;  -56.400;  -84.000;   -6.000
247.239; -138.300; -482.000; -445.000
247.381; -123.800; -647.000; -488.000
247.524;  192.500;  645.000;  679.000
247.666;   11.100;   58.000;   11.000
247.809; -243.800; -887.000; -691.000
247.951;  -17.500;  -75.000;  138.000
248.094;   68.400;  432.000;  308.000
248.236; -320.600;-1262.000;-1238.000
248.378;   11.600; -356.000;  -81.000
248.521;  -28.700; -334.000; -337.000
248.663;  -64.600; -236.000; -267.000
248.806;  -37.700; -300.000; -266.000
248.948; -201.500; -886.000; -763.000
249.090;  -53.000; -428.000; -398.000
249.233;  -74.100; -344.000; -381.000
249.375; -133.500; -474.000; -451.000
249.518;  -17.200;  -83.000; -133.000
249.660;    4.800; -103.000;    3.000
249.802; -334.000;-1303.000;-1189.000
249.945; -135.800; -612.000; -540.000
250.087; -221.500; -834.000; -768.000
250.229;  -88.300; -362.000; -480.000
250.371; -130.700; -494.000; -439.000
250.514;  -87.300; -310.000; -244.000
250.656; -153.300;   69.000;  102.000
250.798; -261.500; -849.000; -800.000
250.940; -103.800; -322.000; -322.000
251.083;  -19.900; -335.000; -111.000
251.225;  106.900;  338.000;  310.000
251.367;  -84.100; -274.000; -373.000
251.509;  -75.500; -265.000; -210.000
251.651; -189.400; -731.000; -671.000
251.794;  135.200;  538.000;  632.000
251.936; -212.400; -821.000; -747.000
252.078; -161.200; -540.000; -461.000
252.220; -125.900; -645.000; -477.000
252.362;  171.400;  344.000;  462.000
252.504; -143.300; -677.000; -584.000
252.646; -224.000; -875.000; -722.000
252.788;    8.200;   14.000; -128.000
252.931;  -43.700; -257.000; -253.000
253.073;  -88.500; -376.000; -317.000
253.215;   -9.100;  141.000;  122.000
253.357;  -24.800;   82.000; -153.000
253.499;  -67.100; -374.000; -234.000
253.641; -177.700; -749.000; -594.000
253.783; -186.000; -609.000; -527.000
253.925; -148.700; -586.000; -591.000
254.067; -208.500; -744.000; -667.000
254.209;  -56.500; -391.000; -259.000
254.351; -278.400; -865.000; -883.000
254.493; -126.800; -441.000; -417.000
254.635; -224.400; -936.000; -818.000
254.777; -166.200; -752.000; -687.000
254.918; -182.300; -512.000; -430.000
255.060; -106.000; -551.000; -395.000
255.202; -102.400; -473.000; -261.000
255.344; -173.000; -658.000; -455.000
255.486; -113.800; -471.000; -406.000
255.628; -214.400; -780.000; -781.000
255.770; -206.300; -676.000; -536.000
255.912; -121.700; -559.000; -468.000
256.053; -172.800; -730.000; -508.000
256.195;  368.000; 1008.000;  903.000
256.337; -177.700; -861.000; -595.000
256.479;  156.600;  532.000;  416.000
256.621;  -53.200; -394.000; -212.000
256.762; -190.700; -789.000; -742.000
256.904;  121.400;  485.000;  487.000
257.046;  -70.300; -381.000; -271.000
257.188;  -83.800; -351.000; -264.000
257.329; -136.000; -525.000; -464.000
257.471; -224.100; -939.000; -807.000
257.613; -120.200; -584.000; -498.000
257.755; -298.700;-1073.000; -982.000
257.896;   88.500;  286.000;  392.000
258.038; -106.500; -403.000; -352.000
258.180;  -55.700; -354.000; -279.000
258.321; -146.600; -581.000; -457.000
258.463;   15.400;  -71.000;  133.000
258.605; -149.200; -562.000; -570.000
258.746; -205.900; -886.000; -772.000
258.888; -294.100;-1026.000;-1020.000
259.029;   62.800;  121.000;   -8.000
259.171; -180.200; -614.000; -550.000
259.313;    2.400;  -49.000;  -47.000
259.454; -160.600; -536.000; -414.000
259.596; -138.700; -483.000; -390.000
259.737; -127.600; -590.000; -474.000
259.879;   98.900;  217.000;  311.000
260.020;  166.000;  901.000;  636.000
260.162;  -53.200; -146.000; -253.000
260.303; -230.900; -768.000; -687.000
260.445; -146.100; -609.000; -613.000
260.586;   89.000;  392.000;  157.000
260.728;  -79.100; -360.000; -248.000
260.869; -122.700; -350.000; -343.000
261.011;  189.500;  706.000;  537.000
261.152;  -94.700; -479.000; -319.000
261.293; -166.700; -576.000; -595.000
261.435;  -49.700; -219.000; -184.000
261.576;  -92.800; -455.000; -325.000
261.718;  135.300;  420.000;  470.000
261.859; -258.800; -940.000; -949.000
262.000; -251.500; -951.000;-1016.000
262.142;  -33.700;  -52.000;  -60.000
262.283; -220.900; -808.000; -691.000
262.424; -162.600; -666.000; -625.000
262.566; -304.600;-1161.000; -983.000
262.707; -238.000; -840.000; -830.000
262.848; -193.400; -769.000; -726.000
262.990;  -91.800; -362.000; -345.000
263.131;  189.500;  650.000;  681.000
263.272;  -18.700;  -61.000;  -41.000
263.413; -191.800; -589.000; -561.000
263.555; -131.600; -669.000; -143.000
263.696; -154.400; -550.000; -641.000
263.837; -114.700; -449.000; -551.000
263.978;   -3.600;   -5.000;  -77.000
264.119;  -69.800; -283.000; -264.000
264.261; -221.800; -847.000; -630.000
264.402;    0.100;   33.000;   40.000
264.543; -138.600; -509.000; -524.000
264.684;    3.000;   61.000;  -50.000
264.825; -125.600; -816.000; -538.000
264.966;   -5.200;  -84.000;  -67.000
265.107; -190.500; -646.000; -670.000
265.248; -210.300; -825.000; -812.000
265.390;   28.300;  152.000;   -9.000
265.531;  -55.400; -238.000; -107.000
265.672; -182.700; -557.000; -630.000
265.813;  174.000;  563.000;  439.000
265.954; -283.400; -959.000; -940.000
266.095;   -0.500; -372.000; -322.000
266.236; -185.500; -686.000; -548.000
266.377;  -74.200; -243.000; -297.000
266.518; -147.000; -619.000; -547.000
266.659;   81.000;  170.000;  268.000
266.800;   29.100;   83.000;   85.000
266.941; -160.200; -487.000; -478.000
267.082;   75.600;  354.000;   99.000
267.223;  -96.500; -344.000; -273.000
267.364; -223.100; -892.000; -686.000
267.504;  -20.600;    3.000;  135.000
267.645;    2.800;  160.000;   67.000
267.786;  -68.300; -147.000;  -86.000
267.927; -128.100; -473.000; -379.000
268.068;  -28.500; -186.000;  -61.000
268.209;  -74.100; -175.000; -413.000
268.350; -111.000; -388.000; -532.000
268.490; -162.500; -648.000; -521.000
268.631;  106.200;  127.000;  225.000
268.772; -235.000; -874.000; -647.000
268.913;  -91.000; -328.000; -476.000
269.054;  -28.400; -117.000;   12.000
269.194; -105.500; -418.000; -402.000
269.335; -310.900;-1137.000;-1074.000
269.476;  -42.100;   33.000;  -35.000
269.617;  -71.900; -347.000; -392.000
269.757; -168.400; -713.000; -646.000
269.898; -213.500; -856.000; -613.000
270.039; -136.100; -415.000; -405.000
270.180; -275.000; -952.000; -816.000
270.320;  -35.300; -190.000; -250.000
270.461;  -75.300; -277.000; -249.000
270.602;  -16.500; -186.000; -156.000
270.742; -215.100; -868.000; -943.000
270.883; -117.700; -442.000; -390.000
271.023; -104.100; -358.000; -357.000
271.164; -148.800; -607.000; -528.000
271.305; -202.000; -666.000; -654.000
271.445; -192.400; -722.000; -683.000
271.586; -135.000; -462.000; -283.000
271.726;  -91.200; -397.000; -322.000
271.867; -107.200; -594.000; -534.000
272.008;  326.400; -473.000; -285.000
272.148;  269.400;  462.000;  468.000
272.289;   37.800; -113.000; -181.000
272.429;   55.300;   19.000;  185.000
272.570; -169.000; -633.000; -737.000
272.710; -162.600; -825.000; -775.000
272.851;  -35.200;  113.000; -130.000
272.991; -311.200;-1173.000;-1077.000
273.131; -120.300; -419.000; -459.000
273.272; -161.600; -683.000; -723.000
273.412;   -6.300; -143.000;  -31.000
273.553;  -95.200; -488.000; -507.000
273.693;  298.800;  913.000;  858.000
273.834; -172.000; -894.000; -692.000
273.974; -128.300; -664.000; -615.000
274.114; -214.000; -772.000; -560.000
274.255;  123.000;  414.000;  373.000
274.395;   21.900; -180.000; -125.000
274.535;   93.000;  199.000;  350.000
274.676;   59.800;  225.000;   94.000
274.816;   11.100;  110.000;   34.000
274.956; -143.000; -624.000; -690.000
275.097; -148.100;-1014.000; -922.000
275.237; -202.200; -913.000; -803.000
275.377; -197.100; -778.000; -689.000
275.517; -305.500; -878.000; -937.000
275.658;  -90.500; -590.000; -555.000
275.798; -118.600; -606.000; -413.000
275.938;   54.400;  215.000;  323.000
276.078; -154.200; -626.000; -395.000
276.218;   32.200;   99.000;  104.000
276.359; -268.400;-1026.000;-1024.000
276.499; -138.200; -605.000; -446.000
276.639;   -9.300; -305.000; -151.000
276.779;  -97.300; -475.000; -357.000
276.919; -200.500; -783.000; -624.000
277.059;  -42.800; -261.000; -212.000
277.199;  -94.600; -357.000; -259.000
277.340;  134.700;  287.000;  175.000
277.480; -217.800; -840.000; -693.000
277.620;   67.300;  192.000;   16.000
277.760; -362.200;-1533.000;-1294.000
277.900;   43.300;  113.000;   33.000
278.040;   87.600;  137.000;  159.000
278.180;   81.800;  270.000;  170.000
278.320;   16.100;   21.000;   56.000
278.460; -112.200; -443.000; -469.000
278.600; -184.000; -708.000; -598.000
278.740;  148.800;  448.000;  224.000
278.880; -139.300; -768.000; -791.000
279.020;   59.400; -194.000; -144.000
279.160; -172.500; -672.000; -595.000
279.300; -247.500; -926.000; -873.000
279.440; -172.800; -709.000; -622.000
279.579;  -52.300;-1014.000; -929.000
279.719;  -88.300; -410.000; -394.000
279.859;  156.800;   -4.000;   41.000
279.999;   73.100; -208.000;  101.000
280.139;  -25.600; -435.000; -387.000
280.279; -135.500; -708.000; -745.000
280.419;  -25.100; -229.000; -147.000
280.559;  -31.600; -259.000; -180.000
280.698; -172.600; -790.000; -639.000
280.838; -170.500; -778.000; -800.000
280.978; -205.600; -846.000; -790.000
281.118; -224.500; -811.000; -704.000
281.257;   46.900;   24.000;    6.000
281.397; -221.400;-1094.000; -960.000
281.537; -172.300; -599.000; -712.000
281.677;   -0.800; -150.000; -101.000
281.816; -179.600; -700.000; -630.000
281.956;  -43.500; -193.000; -257.000
282.096; -101.900; -539.000; -396.000
282.235; -201.100; -672.000; -638.000
282.375;  -48.100; -243.000;  -98.000
282.515; -205.000; -715.000; -707.000
282.654;   95.300;   29.000;  106.000
282.794;   71.400;  388.000;  244.000
282.934;  -76.900; -530.000; -491.000
283.073; -256.000;-1030.000; -857.000
283.213; -103.600; -460.000; -467.000
283.353;  -52.900; -408.000; -349.000
283.492;  -28.300; -264.000; -296.000
283.632;  -49.400; -254.000; -168.000
283.771; -185.400; -859.000; -730.000
283.911; -102.400; -369.000; -260.000
284.050; -207.900; -794.000; -748.000
284.190; -338.100;-1229.000;-1096.000
284.329; -286.300;-1055.000; -964.000
284.469; -154.400; -516.000; -591.000
284.608; -132.100; -559.000; -598.000
284.748; -150.700; -614.000; -570.000
284.887;    3.900;  -87.000;  -20.000
285.027; -239.400; -844.000; -892.000
285.166;  -45.800; -192.000; -249.000
285.306;   22.700; -116.000;  -33.000
285.445;  -54.300; -229.000; -343.000
285.584; -174.100; -630.000; -494.000
285.724;  -68.100; -282.000; -322.000
285.863; -228.700; -857.000; -507.000
286.002;  -98.000; -366.000; -276.000
286.142; -197.700; -715.000; -622.000
286.281; -122.900; -525.000; -493.000
286.420; -166.200; -554.000; -417.000
286.560;  234.400;  653.000;  623.000
286.699; -280.000; -958.000; -912.000
286.838; -140.200; -590.000; -591.000
286.978; -173.700; -533.000; -537.000
287.117; -300.800;-1085.000; -950.000
287.256;  -60.900; -228.000; -211.000
287.395;  -79.600; -197.000; -378.000
287.535;  -61.900; -370.000; -298.000
287.674; -136.700; -509.000; -484.000
287.813;  132.200;  661.000;  533.000
287.952; -251.400;-1010.000; -871.000
288.091; -273.500;-1049.000; -915.000
288.231;   32.800;   13.000;   15.000
288.370; -344.000;-1217.000;-1200.000
288.509; -163.600; -728.000; -645.000
288.648; -167.300; -770.000; -548.000
288.787;  -39.900; -243.000;  -87.000
288.926; -132.800; -454.000; -475.000
289.065;  252.600;  859.000;  672.000
289.204;  -90.200; -377.000; -217.000
289.344; -188.500; -791.000; -690.000
289.483;   61.200;  416.000;  304.000
289.622;  -43.400; -291.000; -149.000
289.761;  -20.500; -309.000; -166.000
289.900; -229.300; -785.000; -626.000
290.039;   11.500;  -12.000;  -95.000
290.178;  -50.100; -274.000; -180.000
290.317; -171.500; -618.000; -479.000
290.456; -105.400; -463.000; -451.000
290.595; -274.300; -961.000; -833.000
290.734; -261.700; -904.000; -891.000
290.873; -110.400; -456.000; -420.000
291.011; -200.600; -833.000; -843.000
291.150; -176.600; -770.000; -682.000
291.289;  -19.500; -343.000; -110.000
291.428; -178.600; -599.000; -480.000
291.567; -105.000; -370.000; -442.000
291.706;   48.100;  109.000;  154.000
291.845; -166.200; -597.000; -505.000
291.984; -349.400;-1234.000;-1061.000
292.122;  170.400;  602.000;  582.000
292.261;  128.700;  620.000;  463.000
292.400;   27.200; -144.000;  211.000
292.539; -236.000; -959.000; -813.000
292.678;  -35.100; -325.000; -300.000
292.816; -277.800;-1136.000; -965.000
292.955; -156.200; -844.000; -684.000
293.094;  -36.500; -173.000; -337.000
293.233;  -86.900; -556.000; -400.000
293.371;  -44.400; -225.000;  -84.000
293.510; -221.600; -866.000; -780.000
293.649; -231.000; -959.000; -924.000
293.787; -136.900;-1083.000;-1012.000
293.926;   17.200; -113.000;  -32.000
294.065;  -77.400; -379.000; -290.000
294.203;  113.700;  298.000;  406.000
294.342;   47.000;   74.000;  156.000
294.481;13897.600;51180.000; -836.000
294.619;  -36.100; -425.000; -582.000
294.758; -282.600;-1230.000;-1137.000
294.896;  125.700; -125.000;    5.000
295.035; -236.800;-1040.000;-1006.000
295.174; -258.000;-1082.000; -954.000
295.312;  -50.300; -323.000; -203.000
295.451;   -5.900; -307.000; -428.000
295.589;  -94.600; -389.000; -518.000
295.728;   58.900; -292.000; -165.000
295.866;   12.200;  -36.000;  -51.000
296.005; -133.500; -584.000; -341.000
296.143; -120.000; -558.000; -596.000
296.282; -229.600; -957.000; -881.000
296.420; -148.600; -657.000; -557.000
296.559; -177.600; -892.000; -633.000
296.697;   17.700; -847.000; -665.000
296.835;   89.600;-1141.000;-1002.000
296.974;  135.000;  -23.000;   39.000
297.112;   -3.900; -443.000; -504.000
297.251; -131.400; -815.000; -755.000
297.389;  127.500; -576.000; -438.000
297.527;   93.600; -145.000;  -83.000
297.666; -125.100; -486.000; -438.000
297.804; -101.000; -404.000; -264.000
297.942;   25.200; -136.000; -161.000
298.081;   28.900; -183.000;   63.000
298.219;  164.100;  -17.000;  -19.000
298.357;   80.200; -144.000;  -71.000
298.495;   18.600; -810.000; -812.000
298.634;  188.800;  245.000;  219.000
298.772;  136.700; -220.000; -338.000
298.910;  -46.500; -309.000; -182.000
299.048;  -20.800; -130.000; -153.000
299.187;  -61.900; -350.000; -250.000
299.325;   38.700;   52.000;  122.000
299.463;   98.900; -389.000; -299.000
299.601;  218.300; -327.000; -271.000
299.739; -188.100; -908.000; -883.000
299.877; -157.300; -791.000; -703.000
300.016;  -84.400;-1095.000; -935.000
300.154;  315.900;  -19.000; -161.000
300.292;   81.800; -428.000; -348.000
300.430;   58.800; -408.000; -291.000
300.568; -193.100; -940.000; -874.000
300.706;  -78.200; -366.000; -469.000
300.844; -158.100;-1108.000; -979.000
300.982;  252.300;  246.000;  282.000
301.120; -234.000; -965.000; -866.000
301.258; -123.400; -812.000; -705.000
301.396;   73.600;  104.000;  -41.000
301.534;  139.200; -218.000; -293.000
301.672;  -26.100; -664.000; -521.000
301.810;   51.200; -613.000; -545.000
301.948;  241.100;   53.000;  149.000
302.086; 1043.300; -250.000;  -32.000
302.224; 1639.400; -610.000; -585.000
302.362;   48.100; -558.000; -622.000
302.500;  -77.300; -923.000; -893.000
302.638;  205.900;  128.000;  245.000
302.776;   32.400; -352.000; -408.000
302.913;  120.700;  447.000;  236.000
303.051;   12.500;  -86.000;  -23.000
303.189;  150.900;   90.000;  118.000
303.327;  -41.100; -341.000; -256.000
303.465; -144.300; -832.000; -588.000
303.603; -149.600; -805.000; -604.000
303.740;  210.900;  417.000;  241.000
303.878;   -2.500; -800.000; -759.000
304.016; -194.300; -915.000; -790.000
304.154; -259.400;-1123.000;-1152.000
304.291;  -50.200; -505.000; -554.000
304.429;   17.900;  102.000;   74.000
304.567; -234.900; -908.000; -893.000
304.705;  -93.500; -408.000; -515.000
304.842;  150.500; -616.000; -540.000
304.980;  117.900;  215.000;   35.000
305.118;   73.900; -367.000; -365.000
305.255; -113.800; -945.000; -927.000
305.393;  155.100;  178.000;  239.000
305.531; -196.200;-1173.000; -956.000
305.668; -121.000; -663.000; -582.000
305.806;  167.900; -358.000; -439.000
305.943;  172.300; -629.000; -637.000
306.081;  104.000; -378.000; -267.000
306.219; -172.800; -863.000; -748.000
306.356;   38.200;  158.000;   27.000
306.494;  301.300;  981.000;  761.000
306.631;   45.100;  -11.000;  -55.000
306.769;   15.300; -613.000; -485.000
306.906;   -5.400; -284.000; -258.000
307.044;  -84.800; -473.000; -488.000
307.181;  -91.500; -410.000; -332.000
307.319;  118.800;  112.000;   87.000
307.456; -350.800;-1191.000;-1153.000
307.594; -197.800; -980.000; -727.000
307.731;   17.900; -371.000; -164.000
307.868;   32.300;  -15.000;   20.000
308.006; -237.400; -961.000; -847.000
308.143;  -94.900; -618.000; -330.000
308.281;  483.900;  -37.000; -254.000
308.418;   45.700; -748.000; -640.000
308.555; -105.500; -400.000; -250.000
308.693; -122.900; -577.000; -573.000
308.830; -179.800; -712.000; -657.000
308.967;   21.400; -215.000;  -95.000
309.105;  -55.000; -507.000; -396.000
309.242;  109.800; -468.000; -367.000
309.379;  828.900; -577.000; -655.000
309.517;  -63.200; -936.000; -948.000
309.654; -186.300; -910.000; -734.000
309.791; -110.400; -662.000; -580.000
309.928; -211.100; -977.000; -914.000
310.065;  380.400;  819.000;  697.000
310.203;   -6.200; -825.000; -850.000
310.340;    2.900; -465.000; -321.000
310.477; -126.000; -412.000; -516.000
310.614; -114.000; -383.000; -473.000
310.751; -119.100; -427.000; -518.000
310.889;   15.200;    1.000;   11.000
311.026; -289.000;-1161.000; -939.000
311.163;  -58.700; -386.000; -380.000
311.300;  -94.400; -512.000; -479.000
311.437; -130.600; -658.000; -619.000
311.574; -280.000;-1226.000; -985.000
311.711;  -93.700; -595.000; -433.000
311.848;  -31.100; -380.000; -388.000
311.985;   72.400;  270.000;   93.000
312.122; -199.300; -932.000; -762.000
312.259; -203.300; -941.000; -994.000
312.396; -113.100; -508.000; -551.000
312.533; -149.500; -812.000; -790.000
312.670; -226.500;-1070.000; -898.000
312.807;  -13.200; -352.000; -367.000
312.944; -103.500; -513.000; -611.000
313.081;  -57.200; -150.000; -415.000
313.218; -224.000;-1111.000; -867.000
313.355;   42.100; -531.000; -449.000
313.492;   16.400; -455.000; -292.000
313.629;  288.500;  815.000;  735.000
313.766; -274.200;-1176.000;-1008.000
313.902;   -2.500; -186.000;   21.000
314.039;  -86.200; -372.000; -289.000
314.176;   73.300;  286.000;  192.000
314.313; -128.400; -569.000; -473.000
314.450; -117.100; -788.000; -684.000
314.587;  -96.100; -468.000; -480.000
314.723;   26.600;  -78.000;  130.000
314.860;  114.300;  318.000;  332.000
314.997;   73.100;  223.000;  142.000
315.134;  -54.200; -385.000; -368.000
315.270;  -33.500; -480.000; -496.000
315.407; -225.300;-1094.000; -967.000
315.544;  -93.300; -657.000; -538.000
315.681;  -98.200; -681.000; -565.000
315.817;   88.600; -133.000; -176.000
315.954;   37.400; -613.000; -392.000
316.091; -229.400;-1045.000;-1023.000
316.227;  -11.400;  -71.000; -179.000
316.364;   28.500;   23.000;    6.000
316.500;  -41.000; -113.000; -300.000
316.637;  -75.000; -181.000; -302.000
316.774; -137.300; -625.000; -358.000
316.910; -140.400; -598.000; -629.000
317.047; -118.100; -487.000; -351.000
317.183; -103.400; -435.000; -566.000
317.320;   20.500; -367.000; -321.000
317.456; -136.200; -733.000; -805.000
317.593; -166.400; -598.000; -641.000
317.729;   35.700;  168.000;  -67.000
317.866; -391.000;-1434.000;-1285.000
318.002; -153.100; -708.000; -948.000
318.139; -178.600; -883.000; -867.000
318.275; -212.700;-1003.000; -738.000
318.412; -100.400; -517.000; -336.000
318.548;  -77.800; -751.000; -720.000
318.685; -173.300; -985.000; -888.000
318.821; -136.600; -762.000; -735.000
318.957;   18.900;   34.000;  -23.000
319.094;   94.100;  297.000;  154.000
319.230; -130.600; -756.000; -742.000
319.367;  216.000; -471.000; -520.000
319.503;  107.200; -538.000; -436.000
319.639; -163.900; -877.000; -793.000
319.775;  -99.800; -750.000; -685.000
319.912;  -65.300; -424.000; -519.000
320.048; -159.100;-1184.000;-1184.000
320.184;  171.200;   59.000;   70.000
320.321; -108.900; -497.000; -467.000
320.457;  172.200;  475.000;  662.000
320.593;  -74.200; -375.000; -382.000
320.729; -180.100; -732.000; -734.000
320.866; -160.200; -577.000; -635.000
321.002; -144.000; -759.000; -809.000
321.138;   13.700; -135.000; -211.000
321.274;  121.400; -148.000; -115.000
321.410;  -14.900; -585.000; -353.000
321.546;  -86.300;-1011.000; -911.000
321.683;  151.600;  400.000;  185.000
321.819;    3.700;  -48.000; -117.000
321.955; -204.700; -743.000; -722.000
322.091;  -81.700; -585.000; -540.000
322.227;   25.400; -382.000; -202.000
322.363;  -18.200; -320.000; -215.000
322.499;  -57.100; -343.000; -331.000
322.635;  340.600;  636.000;  443.000
322.771;   67.600; -139.000;   12.000
322.907;  198.600;  129.000;  327.000
323.043;   19.400; -115.000; -206.000
323.179;  -70.900; -394.000; -363.000
323.315;   32.200; -401.000; -371.000
323.451;  145.000; -328.000; -236.000
323.587;  126.000;  -60.000;  -77.000
323.723;    2.900; -682.000; -601.000
323.859;   -2.800; -258.000;  -76.000
323.995;  -58.100; -467.000; -409.000
324.131; -210.400; -967.000; -892.000
324.267;  -31.300; -254.000; -276.000
324.402; -219.300; -960.000; -983.000
324.538;  -18.300; -279.000; -104.000
324.674;   81.000;  164.000;   77.000
324.810;  309.500;  226.000;  308.000
324.946;   40.600; -810.000; -658.000
325.082;  -76.600; -568.000; -475.000
325.217;    4.700;  -62.000;   16.000
325.353; -169.800; -764.000; -659.000
325.489; -120.200; -540.000; -506.000
325.625;  -82.900; -579.000; -525.000
325.760;  155.200;  517.000;  376.000
325.896;  -57.600; -515.000; -702.000
326.032;  -92.800; -403.000; -352.000
326.168;  -90.200; -462.000; -369.000
326.303; -112.000; -352.000; -461.000
326.439;  -46.900; -336.000; -276.000
326.575;   67.500; -190.000;  -29.000
326.710;   21.400; -156.000;  -30.000
326.846;    8.200;  146.000;  103.000
326.982; -143.800; -530.000; -548.000
327.117; -145.300; -481.000; -442.000
327.253; -165.400; -745.000; -742.000
327.388; -325.800;-1137.000;-1153.000
327.524;  -82.000; -811.000; -578.000
327.659;  -28.300;  -58.000;  -22.000
327.795;   22.700;   69.000;   45.000
327.931; -148.300; -723.000; -499.000
328.066;   -0.700; -417.000; -276.000
328.202;   -8.200;   12.000; -129.000
328.337;  242.100;  957.000;  713.000
328.473;    3.800;  -12.000;  -74.000
328.608;  -18.100; -256.000; -267.000
328.743; -160.400; -799.000; -664.000
328.879;   72.900;  214.000;  114.000
329.014; -112.300; -102.000; -122.000
329.150; -138.700; -358.000; -483.000
329.285; -113.400; -465.000; -466.000
329.421;  -71.600; -548.000; -246.000
329.556;    7.700;  -36.000;   85.000
329.691; -169.900; -633.000; -615.000
329.827; -135.500; -626.000; -480.000
329.962;  -46.600;  131.000; -301.000
330.097; -148.700; -673.000; -585.000
330.233;  -29.900; -410.000; -223.000
330.368; -206.600; -839.000; -628.000
330.503;  -14.000;    3.000;   98.000
330.638;   57.500;  -93.000; -125.000
330.774; -114.200; -609.000; -530.000
330.909;  -34.700; -434.000; -244.000
331.044; -180.300; -714.000; -708.000
331.179; -323.300;-1217.000;-1109.000
331.315;   40.700;   77.000;   20.000
331.450;   63.900;  157.000;  285.000
331.585; -159.600; -805.000; -706.000
331.720; -156.900; -510.000; -460.000
331.855;   19.200;  -35.000; -102.000
331.990;  471.600;   62.000;  138.000
332.126;  264.200; -110.000;   71.000
332.261;  -27.700; -379.000; -265.000
332.396;   -1.600; -135.000; -242.000
332.531; -172.200;-1074.000;-1031.000
332.666;   82.800; -519.000; -363.000
332.801; -197.700; -726.000; -807.000
332.936;    6.400; -192.000; -122.000
333.071; -219.400; -870.000; -817.000
333.206;   59.300;  307.000;  379.000
333.341;  112.200;  344.000;  418.000
333.476; -182.400; -627.000; -623.000
333.611;  -33.600; -251.000; -173.000
333.746;  -54.300; -381.000; -464.000
333.881; -220.700; -973.000; -935.000
334.016; -207.500; -936.000; -917.000
334.151; -220.500; -746.000; -702.000
334.286;   69.700;  152.000;  186.000
334.421;    2.800; -125.000; -178.000
334.556; -108.000; -611.000; -567.000
334.690; -161.200; -631.000; -577.000
334.825;  170.600;  381.000;   83.000
334.960;  -83.200; -285.000; -413.000
335.095;   44.800;  135.000;  -91.000
335.230; -199.100; -722.000; -738.000
335.365; -247.900;-1084.000; -990.000
335.499; -266.200;-1108.000;-1037.000
335.634;   83.400;    9.000;  534.000
335.769; -184.500; -755.000; -720.000
335.904; -124.900; -603.000; -561.000
336.038;  -79.400; -735.000; -657.000
336.173; -252.300;-1206.000;-1194.000
336.308;   51.800; -116.000; -189.000
336.443;   -9.700; -544.000; -634.000
336.577; -138.700; -936.000; -787.000
336.712;  120.000;   -4.000;  -12.000
336.847;  -66.300; -724.000; -607.000
336.981;  147.400; -272.000; -208.000
337.116;  509.800;  615.000;  501.000
337.250;  269.900; -434.000; -421.000
337.385;  500.100; -297.000; -208.000
337.520;  135.200; -632.000; -603.000
337.654;  -57.300; -215.000; -126.000
337.789; -235.900; -989.000; -933.000
337.923;  -34.800; -104.000; -205.000
338.058; -165.900; -673.000; -738.000
338.192;  -74.100; -611.000; -488.000
338.327;   36.800;  -18.000; -155.000
338.461;  -82.800; -299.000; -469.000
338.596; -168.600; -780.000; -638.000
338.730; -202.200; -767.000; -803.000
338.865;  190.000;  -46.000; -140.000
338.999; -148.800; -846.000; -702.000
339.134;  -42.700; -634.000; -536.000
339.268;   14.300; -741.000; -603.000
339.403;  674.600; -740.000; -775.000
339.537;  160.800; -894.000; -820.000
339.671; -225.700; -829.000; -813.000
339.806;  -73.800; -556.000; -512.000
339.940;   23.000; -261.000; -235.000
340.074; -171.000; -685.000; -510.000
340.209;  -25.300; -351.000; -230.000
340.343; -144.100; -517.000; -573.000
340.477;  315.300;  998.000; 1036.000
340.612;  -96.200;-1033.000; -900.000
340.746;  292.700; -199.000; -243.000
340.880; -135.600; -924.000; -785.000
341.014;    4.300;  -45.000; -154.000
341.149; -169.400; -756.000; -718.000
341.283; -165.300; -839.000; -754.000
341.417; -188.300;-1124.000; -938.000
341.551;  228.000; -768.000; -708.000
341.685;  -73.200; -633.000; -611.000
341.820; -115.500; -562.000; -493.000
341.954;  -69.600; -218.000; -349.000
342.088; -286.800;-1102.000;-1019.000
342.222;  142.700;  565.000;  618.000
342.356; -104.900; -395.000; -335.000
342.490; -189.300; -880.000; -841.000
342.624;  -50.700; -339.000; -242.000
342.758;   14.600; -364.000; -312.000
342.892; -153.300; -710.000; -585.000
343.026;  -37.900;  -58.000; -116.000
343.160;  -69.600; -426.000; -376.000
343.294;  -96.300; -474.000; -337.000
343.428;  -48.800; -488.000; -448.000
343.562;   -5.300; -172.000;  -23.000
343.696;  -17.100; -385.000; -314.000
343.830;   -4.300; -362.000; -356.000
343.964;   37.600; -231.000; -168.000
344.098; 1593.700;  199.000;   70.000
344.232; 1323.200; -266.000; -127.000
344.366;  151.800; -567.000; -453.000
344.500;  109.300; -665.000; -744.000
344.634;   61.300; -324.000; -164.000
344.768;   -8.500; -531.000; -341.000
344.902;   55.000;  278.000;  256.000
345.035; -123.100; -556.000; -496.000
345.169; -245.800; -933.000; -656.000
345.303;  -19.800; -308.000; -482.000
345.437; -156.500; -826.000; -717.000
345.571; -145.700; -675.000; -594.000
345.704; -111.100; -309.000; -532.000
345.838;   22.900; -331.000; -284.000
345.972;  -58.000; -543.000; -495.000
346.106;  314.300; -179.000; -190.000
346.239;  764.200; -312.000; -243.000
346.373;    7.600; -343.000; -302.000
346.507; -270.100; -950.000; -962.000
346.640;  281.300;  -30.000;   13.000
346.774;  -58.900; -650.000; -797.000
346.908;  -19.400; -138.000;  -11.000
347.041; -183.400; -646.000; -593.000
347.175;   44.800;  259.000;   27.000
347.309; -125.600; -698.000; -628.000
347.442; -175.700; -883.000; -732.000
347.576;  556.500;  670.000;  668.000
347.709;  390.000; -123.000;  -52.000
347.843; -194.700; -933.000; -825.000
347.976;   81.700;  235.000;  294.000
348.110; -357.700;-1268.000;-1186.000
348.243; -175.500; -679.000; -772.000
348.377;   40.800;  -26.000;   60.000
348.510;  172.400;  403.000;  540.000
348.644;  -21.300;  -37.000; -159.000
348.777;   44.300;  180.000;  191.000
348.911;  -49.700; -142.000; -112.000
349.044;  329.500;  471.000;  448.000
349.178;  234.100;-1069.000;-1006.000
349.311;  234.100;  141.000;  255.000
349.444;  -11.200; -927.000; -813.000
349.578;  -16.000; -347.000; -200.000
349.711; -201.900; -959.000; -862.000
349.845;  -16.600; -661.000; -591.000
349.978; -286.300;-1224.000;-1137.000
350.111; -149.400; -546.000; -612.000
350.244; -128.400; -596.000; -700.000
350.378;   35.400; -392.000; -393.000
350.511;  -98.500; -393.000; -426.000
350.644; -204.700; -808.000; -806.000
350.778;   16.200;  168.000;  104.000
350.911;   43.100;  134.000;  140.000
351.044; -181.300; -685.000; -615.000
351.177;  -38.500; -321.000; -281.000
351.310;   12.700;    3.000; -131.000
351.444; -140.800; -888.000; -788.000
351.577;  232.800;  140.000;   90.000
351.710;  198.800;  593.000;  417.000
351.843;  -23.100; -165.000;  -77.000
351.976;   26.700;  149.000;  -79.000
352.109; -146.800; -621.000; -612.000
352.242;   11.500; -464.000; -419.000
352.376;  -75.900; -580.000; -636.000
352.509;  312.200; -437.000; -356.000
352.642;   -0.800; -654.000; -604.000
352.775;  138.700; -141.000;  -98.000
352.908; -211.900; -933.000; -904.000
353.041; -194.400; -814.000; -824.000
353.174;  -80.000; -551.000; -424.000
353.307; -161.200; -753.000; -764.000
353.440;  186.300;  541.000;  453.000
353.573; -225.600; -957.000;-1008.000
353.706;  -34.600; -384.000; -558.000
353.839;  -47.500; -264.000; -220.000
353.971; -141.200; -657.000; -512.000
354.104; -180.000; -896.000; -835.000
354.237;  -76.200; -627.000; -662.000
354.370; -126.000; -846.000; -879.000
354.503; -358.300;-1231.000;-1308.000
354.636;  -13.400; -529.000; -348.000
354.769; -237.100; -937.000; -860.000
354.902;   16.200; -230.000; -139.000
355.034;   -9.200; -164.000; -220.000
355.167;  -15.900; -262.000; -162.000
355.300; -151.600;-1061.000; -880.000
355.433; 1738.300;  -71.000;  -14.000
355.565; 2702.700; -402.000; -384.000
355.698;  699.700; -356.000; -296.000
355.831;    7.700; -882.000; -801.000
355.964;  188.100; -285.000; -170.000
356.096; -144.100; -856.000; -843.000
356.229;    8.200; -523.000; -530.000
356.362;  627.700; -373.000; -266.000
356.494; 1060.300; -229.000; -162.000
356.627;  896.000;  269.000;  377.000
356.760; 1160.300;  120.000;   53.000
356.892; 1669.400; -286.000; -601.000
357.025; 1166.500;  403.000;  389.000
357.157; 1079.100; -167.000; -179.000
357.290; 1218.100; -856.000; -713.000
357.423;  353.300; -667.000; -556.000
357.555;  212.500; -217.000; -228.000
357.688;  225.300; -483.000; -364.000
357.820;  735.800; -870.000; -877.000
357.953; 6286.400; -563.000; -589.000
358.085; 1316.300; -632.000; -612.000
358.218; 1845.200;-1131.000; -932.000
358.350;  400.000;  -58.000;  312.000
358.483; -259.600;-1300.000;-1187.000
358.615;  -49.000;-1182.000;-1078.000
358.747; -120.600;-1187.000;-1058.000
358.880;   10.700; -810.000; -744.000
359.012;   23.000; -376.000; -202.000
359.145;  -53.600; -480.000; -511.000
359.277;   60.600; -962.000; -913.000
359.409; 5177.700;  536.000;  231.000
359.542; 1344.000; -738.000; -688.000
359.674;  180.300;   46.000;   13.000
359.806;  -78.900; -565.000; -438.000
359.939;  -43.000; -617.000; -516.000
360.071;  -13.000; -583.000; -579.000
360.203;    1.200; -411.000; -364.000
360.335;  143.000;  164.000;  -16.000
360.468;  331.100; -249.000; -307.000
360.600; 4075.000; -547.000; -454.000
360.732; 4945.200; -546.000; -423.000
360.864;  632.700;-1216.000;-1044.000
360.996;  492.900; -516.000; -554.000
361.129;   79.600; -389.000; -598.000
361.261;   97.100;  110.000; -113.000
361.393;  -16.500; -252.000; -214.000
361.525;   93.700;   94.000;  244.000
361.657;  -88.400; -821.000; -703.000
361.789;   69.800; -139.000; -155.000
361.921;  436.800; -642.000; -593.000
362.053;  513.300;  524.000;  541.000
362.185;  149.700;  288.000;   72.000
362.318; -143.400; -709.000; -705.000
362.450;  281.400;  294.000;  444.000
362.582;  160.000; -913.000; -870.000
362.714;  -46.400; -353.000; -332.000
362.846; -131.900; -606.000; -490.000
362.978; -248.500; -941.000; -811.000
363.109;   72.400; -161.000; -260.000
363.241;  778.600; -739.000; -749.000
363.373;  756.200; -649.000; -564.000
363.505; 1220.000; -186.000;  -91.000
363.637;  296.700; -787.000; -601.000
363.769; -200.400;-1067.000;-1080.000
363.901; -103.400; -596.000; -654.000
364.033; -203.400;-1103.000;-1062.000
364.165;   19.500; -283.000; -283.000
364.296;  177.800; -316.000; -177.000
364.428;  121.800;-1344.000;-1220.000
364.560;  -86.700; -679.000; -661.000
364.692; -100.400; -738.000; -835.000
364.824;  447.500; -588.000; -456.000
364.955;  811.600; -402.000; -564.000
365.087; 1568.700;-1097.000; -852.000
365.219;   31.700; -686.000; -816.000
365.351;  -91.700; -526.000; -572.000
365.482;  132.000;  300.000;  240.000
365.614;  -72.400; -402.000; -314.000
365.746; -169.400; -729.000; -752.000
365.877; -148.700; -706.000; -672.000
366.009;  526.300;  -35.000;  -62.000
366.141; -171.500;-1249.000;-1134.000
366.272; -187.800; -803.000; -719.000
366.404; -209.000;-1005.000; -874.000
366.535;    6.400; -139.000;  -12.000
366.667; -144.400; -644.000; -649.000
366.799;  129.100;  353.000;  203.000
366.930; -246.700; -862.000; -996.000
367.062;  261.200; -639.000; -613.000
367.193;  276.400; -872.000; -842.000
367.325;  -91.500; -580.000; -684.000
367.456;  149.600; -246.000;   31.000
367.588;  317.700; -371.000; -318.000
367.719;   65.300;  -44.000;  -45.000
367.851;  -13.000; -222.000; -241.000
367.982;  -54.300; -875.000; -732.000
368.113;  180.500; -475.000; -358.000
368.245; -205.500; -960.000; -841.000
368.376;   -4.000; -254.000; -302.000
368.508;  -10.700; -188.000; -263.000
368.639; -265.000;-1166.000;-1034.000
368.770;  -20.300; -670.000; -589.000
368.902;  -88.000; -836.000; -926.000
369.033; -193.100; -906.000; -855.000
369.164;  -33.400; -720.000; -653.000
369.296; -148.100; -452.000; -601.000
369.427;    8.800; -209.000; -144.000
369.558;  -53.200; -593.000; -377.000
369.689; -156.400; -721.000; -569.000
369.821; -220.500; -951.000; -845.000
369.952;   -4.700;   42.000; -108.000
370.083;  -34.300; -229.000; -108.000
370.214; -151.500; -735.000; -650.000
370.345;   45.400;   65.000;   81.000
370.477; -170.200; -810.000; -790.000
370.608;  434.400; -328.000; -264.000
370.739; -114.100;-1233.000;-1292.000
370.870;  -63.000;-1102.000; -923.000
371.001;  187.300; -378.000; -467.000
371.132;  -98.300; -754.000; -735.000
371.263;    8.400;  -42.000; -148.000
371.394; -236.800; -841.000; -748.000
371.525;   95.400;  345.000;  225.000
371.657; -142.500; -808.000; -670.000
371.788;  171.400;  103.000;  199.000
371.919;  327.900; -384.000; -304.000
372.050; 6409.600;  -91.000; -156.000
372.181; 1812.500; -188.000; -294.000
372.311;  690.600;   42.000; -127.000
372.442;   85.600; -457.000; -451.000
372.573;  -29.600; -444.000; -340.000
372.704; -208.700;-1008.000; -980.000
372.835;  165.000; -228.000; -289.000
372.966;  -95.300; -646.000; -554.000
373.097; -130.100; -575.000; -711.000
373.228;  -44.900; -717.000; -542.000
373.359;  234.600; -824.000; -536.000
373.490; 1643.300; -881.000; -727.000
373.620; 1946.000;-1001.000; -803.000
373.751; 3096.200; -332.000; -396.000
373.882; 1270.400; -663.000; -733.000
374.013;  123.400; -449.000; -262.000
374.143;  -50.700; -581.000; -659.000
374.274; -181.700; -987.000; -908.000
374.405;  357.400; -388.000; -276.000
374.536;  823.300; -526.000; -387.000
374.666; 1893.100; -759.000; -807.000
374.797;  372.100; -817.000; -868.000
374.928; 1469.600; -710.000; -560.000
375.058; 1507.500; -535.000; -500.000
375.189;  170.200;  -59.000;  -93.000
375.320; -183.000; -928.000;-1034.000
375.450;  -96.200; -625.000; -616.000
375.581;  -77.900; -526.000; -436.000
375.712;   -6.700; -574.000; -250.000
375.842;  527.700; -438.000; -415.000
375.973;  370.100; -554.000; -513.000
376.103; -104.500; -665.000; -648.000
376.234;  -99.400; -531.000; -552.000
376.364;  -67.600; -944.000; -867.000
376.495;  659.400;  925.000;  529.000
376.625;    9.800; -472.000; -485.000
376.756;  129.600; -709.000; -678.000
376.886; -120.800;-1178.000;-1026.000
377.017;  107.800;-1048.000;-1061.000
377.147;  590.700; -786.000; -782.000
377.278;  153.500;  174.000;  228.000
377.408; -222.400; -801.000; -815.000
377.538; -166.700; -707.000; -693.000
377.669; -129.100; -537.000; -613.000
377.799; -131.200; -645.000; -635.000
377.929;  -75.800; -610.000; -428.000
378.060; -246.200; -781.000; -847.000
378.190;  -55.400; -726.000; -531.000
378.320;  -79.000; -401.000; -406.000
378.451;    2.100; -131.000;  -22.000
378.581;   39.000;  -67.000; -110.000
378.711;  362.500; 1035.000;  866.000
378.841;  -18.300; -533.000; -675.000
378.972; -130.400; -871.000; -751.000
379.102;   18.600; -652.000; -579.000
379.232;  -19.500; -126.000;  -73.000
379.362; -212.600;-1001.000; -885.000
379.492;   24.000; -373.000; -424.000
379.623;  217.900;    0.000;  111.000
379.753; -163.200;-1107.000; -974.000
379.883;  408.500;   59.000;  156.000
380.013;    2.900;-1081.000;-1017.000
380.143; -218.600;-1097.000;-1056.000
380.273; -183.600; -985.000; -861.000
380.403;   20.300; -344.000; -257.000
380.533;  -43.800; -651.000; -664.000
380.663;  193.300;  173.000;  128.000
380.793; -163.700;-1027.000;-1074.000
380.923;   11.400; -103.000;  -34.000
381.053; -155.800; -613.000; -623.000
381.183;  -36.900; -106.000; -248.000
381.313;  102.500; -656.000; -470.000
381.443;   42.100; -692.000; -473.000
381.573;  406.900; -402.000; -409.000
381.703;  424.700;-1249.000;-1095.000
381.833; -240.200;-1454.000;-1336.000
381.963;  239.000; -134.000;  -87.000
382.093; 2373.000; -925.000; -909.000
382.223;  623.900; -713.000; -602.000
382.353;  -37.800; -801.000; -608.000
382.482;  634.700;-1091.000; -964.000
382.612; 1359.400; -872.000; -644.000
382.742;  720.000; -695.000; -622.000
382.872;  491.200; -565.000; -551.000
383.002;  146.900;  347.000; -132.000
383.131;   10.900; -226.000; -160.000
383.261;  -78.700; -706.000; -768.000
383.391;  545.800; -552.000; -377.000
383.521; 5835.800;  451.000;  263.000
383.650; 1219.000; -947.000; -904.000
383.780;  -29.900; -783.000; -656.000
383.910;  290.700;  880.000;  802.000
384.039;   51.700; -794.000; -656.000
384.169;  341.100;-1205.000;-1017.000
384.299;  -53.400; -650.000; -662.000
384.428; -138.800; -764.000; -680.000
384.558;  -19.500; -308.000; -275.000
384.687;  -21.100; -414.000; -334.000
384.817;   56.000;   75.000;   -2.000
384.947;   94.100; -234.000; -141.000
385.076;  563.000;  982.000;  912.000
385.206;  259.800;  369.000;  480.000
385.335;  -81.800; -549.000; -417.000
385.465; -127.100; -655.000; -663.000
385.594;  280.900;  -53.000;  -44.000
385.724;  688.300; -868.000; -838.000
385.853;  264.200; -296.000; -270.000
385.982; 2516.900; -743.000; -787.000
386.112; 3567.000;-1052.000; -871.000
386.241;  223.300; -307.000; -312.000
386.371;   96.000; -174.000;  -87.000
386.500;   29.500; -825.000; -789.000
386.629;   43.000; -874.000; -817.000
386.759;  178.700;  -43.000;   68.000
386.888;    2.400; -170.000; -250.000
387.017; -120.000; -648.000; -620.000
387.147; -166.600; -771.000; -798.000
387.276;    5.500; -410.000; -397.000
387.405;   23.300; -398.000; -342.000
387.535;  -67.100; -452.000; -361.000
387.664;  -94.900; -692.000; -620.000
387.793;  185.800; -198.000; -113.000
387.922;  956.400;  255.000;  200.000
388.052;   49.800; -576.000; -423.000
388.181;   62.600; -342.000; -472.000
388.310;   13.500; -889.000; -710.000
388.439;  -59.200; -749.000; -742.000
388.568;  377.300;  365.000;  244.000
388.697; 1808.000; -756.000; -653.000
388.826;  360.400; -768.000; -666.000
388.956;  113.600; -285.000; -307.000
389.085;   35.500; -347.000; -287.000
389.214; -203.400; -842.000; -872.000
389.343;  -77.100; -645.000; -413.000
389.472;  798.400;  126.000;  149.000
389.601;  977.100;   91.000;    0.000
389.730;   26.400; -568.000; -687.000
389.859;  170.000;  226.000;   46.000
389.988;  383.000; -423.000; -408.000
390.117;  278.500; -168.000; -146.000
390.246;   41.400; -331.000; -320.000
390.375;  197.700; -673.000; -626.000
390.504;  -84.900; -703.000; -621.000
390.633; -162.700; -672.000; -726.000
390.761;  -93.200; -732.000; -645.000
390.890;   50.500;   -4.000; -130.000
391.019;  -40.900; -421.000; -441.000
391.148; -216.700; -826.000; -855.000
391.277; -115.500; -576.000; -493.000
391.406; -141.700; -821.000; -805.000
391.534;   68.800;  574.000; -301.000
391.663;  -82.400; -583.000; -645.000
391.792; -134.600; -673.000; -701.000
391.921;  215.900;   -3.000;   15.000
392.050;  342.700; -287.000; -228.000
392.178;  -92.100;-1206.000;-1061.000
392.307;  285.400; -758.000; -712.000
392.436;  139.300; -427.000; -641.000
392.564;   70.000;  166.000;   -6.000
392.693; -140.800; -860.000; -682.000
392.822;  398.800; -529.000; -534.000
392.950;  165.900; -880.000; -714.000
393.079;  625.500; -188.000; -328.000
393.208;   89.100; -488.000; -511.000
393.336;   29.100; -170.000; -145.000
393.465;  -64.900; -317.000; -199.000
393.593;   50.600;   62.000;   79.000
393.722; -278.800;-1121.000; -916.000
393.850;   -4.500; -188.000;  -61.000
393.979; -271.900; -926.000; -805.000
394.107;  -57.700; -517.000; -537.000
394.236;   -2.800; -570.000; -507.000
394.364;  600.600;  383.000;  206.000
394.493;  915.900; -911.000; -767.000
394.621;   23.600; -955.000; -916.000
394.750; 1385.300; -873.000; -923.000
394.878; 5450.400; -247.000; -149.000
395.007; 6964.100; -721.000; -807.000
395.135;  533.600; -790.000; -721.000
395.263; -184.600;-1038.000;-1040.000
395.392;   65.400;  -25.000; -107.000
395.520; -221.200; -818.000; -679.000
395.648; -144.600; -865.000; -915.000
395.777;    2.100; -366.000; -405.000
395.905;  -26.000; -449.000; -564.000
396.033;   91.700;  217.000;  172.000
396.162; 1568.300; -399.000; -453.000
396.290; 1256.200;  -17.000;   -2.000
396.418;  213.000; -555.000; -514.000
396.546; -133.900; -571.000; -466.000
396.674; -192.700; -850.000; -878.000
396.803;   65.100;  -72.000;  -23.000
396.931;  206.600; -179.000; -199.000
397.059;   33.300;-1026.000; -989.000
397.187; -211.400;-1026.000; -975.000
397.315; -232.000; -884.000; -649.000
397.443; -147.500; -592.000; -443.000
397.572; -137.300; -578.000; -424.000
397.700;  -24.400; -607.000; -614.000
397.828;   37.700;  120.000;  -90.000
397.956;  -48.600; -508.000; -478.000
398.084;  -94.200; -767.000; -626.000
398.212;  146.200;  137.000;  124.000
398.340;   71.600;  -56.000;  159.000
398.468;   93.300; -390.000; -169.000
398.596; -232.300; -993.000; -953.000
398.724; -203.300; -762.000; -767.000
398.852; -279.500;-1024.000; -976.000
398.980; -123.900; -560.000; -560.000
399.108;  -65.400; -982.000; -735.000
399.236;   97.400;   13.000;    8.000
399.363;   77.600;  222.000;  196.000
399.491;  -96.200; -404.000; -398.000
399.619; -196.100; -829.000; -800.000
399.747; -154.000; -859.000; -771.000
399.875;  209.800;  220.000;  234.000
400.003;  -76.800; -359.000; -284.000
400.130; -141.400; -421.000; -341.000
400.258;   -8.900;  -83.000;   38.000
400.386;  -56.900; -352.000; -168.000
400.514;  -44.900; -526.000; -587.000
400.641; -159.000; -928.000; -802.000
400.769; -236.000; -979.000; -888.000
400.897; -159.000; -838.000; -793.000
401.025;    7.000; -166.000; -152.000
401.152;   54.800;  220.000;   38.000
401.280; -121.200; -430.000; -429.000
401.408; -202.700; -712.000; -576.000
401.535; -188.800; -735.000; -758.000
401.663; -351.200;-1134.000;-1054.000
401.790; -114.100; -514.000; -525.000
401.918;  181.700;  436.000;  405.000
402.046;   46.600;  134.000;  122.000
402.173;   18.500;  -18.000;    7.000
402.301; -101.100; -519.000; -397.000
402.428;  139.500;  528.000;  383.000
402.556; -254.500;-1188.000; -913.000
402.683;  -24.600;  -20.000;   -1.000
402.811;   26.200;  -37.000; -206.000
402.938;   26.600;   20.000;   27.000
403.066;  365.200; -574.000; -558.000
403.193;  621.700;  299.000;  239.000
403.321;  452.000; -396.000; -574.000
403.448;  589.900;   83.000;   27.000
403.575;  267.200;  -90.000;  -46.000
403.703; -144.500; -732.000; -557.000
403.830;  -92.300; -531.000; -496.000
403.957; -252.000;-1117.000;-1023.000
404.085;   58.700;  -61.000; -172.000
404.212;  255.300;  -50.000;   63.000
404.339;  535.500; -566.000; -306.000
404.467;10716.400; -612.000; -524.000
404.594; 6428.700; -287.000; -227.000
404.721; 1429.900; -869.000; -764.000
404.848;  171.700; -113.000; -202.000
404.976; -171.000; -856.000; -783.000
405.103;   35.100;  -14.000;  -82.000
405.230;   23.300;  190.000;  226.000
405.357;  111.900;  117.000;   44.000
405.484;  524.300;  -49.000;    5.000
405.612;   98.600; -548.000; -563.000
405.739;  -53.100; -488.000; -243.000
405.866;  204.500;  669.000;  385.000
405.993;  -30.500; -398.000; -102.000
406.120; -241.300; -801.000; -887.000
406.247;  -56.100; -323.000; -342.000
406.374;  847.600;  540.000;  629.000
406.501;  158.300; -632.000; -702.000
406.628; -113.500; -621.000; -589.000
406.755; -189.400; -803.000; -620.000
406.882;  -44.100; -228.000; -277.000
407.009; -194.600; -719.000; -628.000
407.136;  143.800; -480.000; -401.000
407.263;  213.300; -939.000; -829.000
407.390; -126.100; -692.000; -614.000
407.517; -294.200;-1139.000;-1187.000
407.644;  -52.000; -332.000; -256.000
407.771; -204.700; -249.000; -287.000
407.898;   71.500;  168.000;  328.000
408.025;  -96.200; -421.000; -313.000
408.151;   35.800;   82.000;  153.000
408.278;  -85.400; -267.000; -216.000
408.405; -201.800; -931.000; -899.000
408.532;  -96.200; -549.000; -542.000
408.659; -199.700; -677.000; -648.000
408.785; -362.100;-1298.000;-1170.000
408.912;  -52.500; -412.000; -296.000
409.039; -161.600; -610.000; -686.000
409.166; -171.000; -591.000; -555.000
409.292; -200.200; -571.000; -534.000
409.419; -186.500; -665.000; -649.000
409.546;  -90.000; -431.000; -192.000
409.672; -162.500; -713.000; -545.000
409.799;    1.700;  -36.000;   34.000
409.926;   -5.500; -180.000; -179.000
410.052; -296.600;-1127.000;-1091.000
410.179;  -62.200; -368.000; -392.000
410.305; -133.000; -375.000; -493.000
410.432;  -48.800; -220.000; -333.000
410.558; -139.400; -305.000; -380.000
410.685; -168.800; -688.000; -431.000
410.812; -150.600; -409.000; -588.000
410.938; -222.200; -964.000; -808.000
411.065; -155.500; -671.000; -645.000
411.191;   15.900; -189.000; -174.000
411.317; -185.200; -823.000; -742.000
411.444;  -61.800; -317.000; -246.000
411.570;  -59.700; -339.000; -294.000
411.697; -232.400; -758.000; -752.000
411.823; -269.100; -989.000; -999.000
411.949;  -18.200;  -56.000;   17.000
412.076; -172.300; -539.000; -519.000
412.202; -181.800; -758.000; -757.000
412.329; -220.400; -798.000; -752.000
412.455; -203.000; -821.000; -657.000
412.581;   -1.800;  -15.000;  172.000
412.707;  -87.800; -540.000; -457.000
412.834;  106.300;  156.000;  219.000
412.960; -153.800; -785.000; -784.000
413.086; -172.900; -743.000; -701.000
413.212;  369.900;  604.000;  578.000
413.339; -124.200; -685.000; -701.000
413.465;   30.500; -364.000; -310.000
413.591; -159.800; -757.000; -474.000
413.717;  -41.300; -358.000; -366.000
413.843; -246.100; -839.000; -861.000
413.969;  -97.800;  -47.000; -292.000
414.096; -177.200; -679.000; -679.000
414.222;   21.600;  -33.000;   85.000
414.348;  -28.600; -652.000; -385.000
414.474;  170.300;   38.000;  -52.000
414.600;    5.500; -126.000; -144.000
414.726;   43.200;  -96.000;  -55.000
414.852;  -88.100; -365.000; -342.000
414.978;   83.600;  104.000;  -18.000
415.104;  136.200;   38.000;   80.000
415.230;   80.400; -329.000; -330.000
415.356;  106.200; -409.000; -514.000
415.482;  420.900;   13.000;  -35.000
415.608;  533.500; -247.000; -323.000
415.734; 1888.500;   67.000;   38.000
415.860;37880.100; -875.000; -767.000
415.986;24357.700; -685.000; -607.000
416.111; 1985.400; -798.000; -652.000
416.237;  434.100; -424.000; -571.000
416.363; 2200.900; -765.000; -733.000
416.489; 7475.800; -324.000; -251.000
416.615;  679.800; -707.000; -742.000
416.741;  -30.900; -677.000; -784.000
416.866; -133.300; -673.000; -736.000
416.992; -189.800; -801.000; -818.000
417.118;    4.800;  -41.000;  -80.000
417.244;  -92.400; -798.000; -531.000
417.369; -110.700; -801.000; -612.000
417.495;   51.100; -325.000; -254.000
417.621; -141.800;-1015.000; -803.000
417.746;   16.800; -579.000; -572.000
417.872;  142.800; -254.000; -144.000
417.998;  146.800; -515.000; -530.000
418.123; 2117.400;-1073.000; -845.000
418.249; 9770.400; -512.000; -601.000
418.374; 1236.700; -916.000; -824.000
418.500;  190.000; -383.000; -482.000
418.626;  245.800;   70.000;  -59.000
418.751;  271.300; -549.000; -448.000
418.877;  403.100; -637.000; -643.000
419.002; 3676.900; -688.000; -560.000
419.128;22900.400; -930.000; -721.000
419.253; 4992.900; -967.000; -837.000
419.379;  679.500; -391.000; -338.000
419.504;  813.700;  325.000;  415.000
419.629;  968.900; -393.000; -212.000
419.755; 7123.900; -317.000; -254.000
419.880;38100.500;  -98.000;   67.000
420.006;21287.000; -280.000; -221.000
420.131;51581.500; -662.000; -775.000
420.256; 6640.800; -315.000; -316.000
420.382;  911.000; -665.000; -687.000
420.507;  138.800; -649.000; -778.000
420.632;  277.300; -337.000; -339.000
420.758;  431.100; -251.000; -425.000
420.883; -147.200; -876.000; -672.000
421.008; -179.900; -775.000; -619.000
421.133; -104.100; -509.000; -467.000
421.259;  -19.100; -325.000; -259.000
421.384; -175.600; -834.000; -693.000
421.509;  -79.300;-1052.000; -862.000
421.634; 2003.900; -936.000; -820.000
421.759;  772.200; -359.000; -327.000
421.885;  -56.500; -717.000; -656.000
422.010; -118.500; -673.000; -542.000
422.135; -240.400; -695.000; -727.000
422.260;  113.400;  340.000;  280.000
422.385;  -51.600;   12.000;  -98.000
422.510;   75.500;  151.000;  -26.000
422.635;  123.800;  -87.000;  -43.000
422.760;  217.200; -766.000; -791.000
422.885;  116.000;  -57.000;  -80.000
423.010;  -20.000; -112.000; -169.000
423.135; -116.000; -481.000; -561.000
423.260;   32.200; -150.000; -245.000
423.385;  174.500;  476.000;  222.000
423.510;  108.000;   71.000;  -22.000
423.635;  176.600;  133.000;   45.000
423.760;  185.500;  383.000;  328.000
423.885;  171.200;  336.000;  391.000
424.010;   74.800;  -68.000;  -13.000
424.135;   10.100;    5.000;  -33.000
424.259; -113.900; -654.000; -457.000
424.384;  -84.200; -279.000; -272.000
424.509;    2.700; -260.000; -186.000
424.634; -160.000; -761.000; -623.000
424.759;  -17.900; -688.000; -544.000
424.883;   32.400; -506.000; -527.000
425.008;  344.800; -502.000; -410.000
425.133; 3835.900; -679.000; -653.000
425.258; 1559.400; -517.000; -381.000
425.382; 1929.800; -867.000; -774.000
425.507; 4287.100; -487.000; -543.000
425.632;  731.300; -802.000; -663.000
425.756;  855.500; -256.000; -146.000
425.881;13194.200; -831.000; -857.000
426.006;31412.700; -604.000; -355.000
426.130; 4404.300; -696.000; -508.000
426.255;  612.300; -611.000; -491.000
426.379;  330.400; -189.000; -577.000
426.504;  759.900;  660.000;  544.000
426.629; 7840.400; -519.000; -466.000
426.753; 4668.700;   64.000;  -46.000
426.878;  590.400; -252.000; -288.000
427.002;  353.600; -651.000; -668.000
427.127; 3256.400;  -35.000; -158.000
427.251;21015.300;  372.000;  401.000
427.375; 5212.100; -191.000; -173.000
427.500; 3958.400; -616.000; -610.000
427.624; 1179.500; -234.000; -400.000
427.749;  219.700; -216.000; -225.000
427.873;  -36.000; -499.000; -412.000
427.997;  -57.900; -222.000; -230.000
428.122;  218.400;  795.000;  703.000
428.246;  215.500;  433.000;  434.000
428.371; -209.500; -869.000; -773.000
428.495; -167.000; -624.000; -646.000
428.619;  -13.100; -186.000; -117.000
428.743;   82.500;   65.000;  132.000
428.868;   62.200; -732.000; -643.000
428.992; 2528.800; -219.000; -326.000
429.116;  901.100; -329.000; -357.000
429.240;  536.900;  419.000;  426.000
429.365;    2.300; -454.000; -574.000
429.489;  -49.600; -638.000; -647.000
429.613;   93.500; -236.000; -177.000
429.737;  125.100; -563.000; -432.000
429.861;  570.500; -247.000; -133.000
429.985;10885.800; -425.000; -305.000
430.109;10634.500; -770.000; -908.000
430.234; 1217.500;   76.000;  -50.000
430.358;  155.200; -250.000; -160.000
430.482; -113.700; -672.000; -564.000
430.606;  -67.400; -655.000; -375.000
430.730;   45.700; -437.000; -388.000
430.854;  243.500; -909.000; -835.000
430.978; -135.600; -795.000; -764.000
431.102; -117.400; -499.000; -422.000
431.226; -218.100; -874.000; -815.000
431.350;  131.000;  345.000;  422.000
431.474;  -99.300; -661.000; -373.000
431.597; -255.000;-1060.000; -848.000
431.721;  -67.200; -276.000; -267.000
431.845; -213.800; -704.000; -472.000
431.969; -108.600; -304.000; -349.000
432.093; -114.700; -395.000; -317.000
432.217;   34.200;   32.000;   82.000
432.341; -150.000; -523.000; -518.000
432.464;  114.100;   96.000;   40.000
432.588;  373.300; -401.000; -329.000
432.712;  184.000;  -52.000;  -52.000
432.836;  151.400;  213.000;  263.000
432.959;  -13.300; -372.000; -311.000
433.083;  211.800;   11.000;    2.000
433.207;  736.100;  285.000;  930.000
433.330; 9813.700; -391.000; -200.000
433.454;10810.800; -654.000; -638.000
433.578; 6479.200;  583.000;  278.000
433.701; 1068.300; -623.000; -675.000
433.825;  236.300; -292.000; -299.000
433.949;  297.300;   28.000;  -72.000
434.072;   74.800; -410.000; -323.000
434.196;   41.000; -309.000; -117.000
434.319; 8064.500;25482.000;25124.000
434.443; 1500.100; -656.000; -603.000
434.566; 4813.900;  281.000;   62.000
434.690;  740.100; -637.000; -383.000
434.813;  122.700; -251.000; -173.000
434.937; -110.700; -569.000; -696.000
435.060;  -70.400; -423.000; -332.000
435.184;  542.700; -492.000; -217.000
435.307;  277.300;  159.000;  102.000
435.431;   57.500;  -40.000;   24.000
435.554;  -91.900; -399.000; -240.000
435.677; -120.700; -350.000; -258.000
435.801;  -15.200;  -25.000;   49.000
435.924;   59.400;    1.000;  -67.000
436.048; -198.800;-1019.000; -732.000
436.171;  -74.300; -240.000;  -66.000
436.294;   18.500; -248.000; -229.000
436.417;  207.300; -963.000; -849.000
436.541; -127.700; -814.000; -840.000
436.664;  -32.800; -242.000; -316.000
436.787;   35.100;   13.000;  113.000
436.910; -186.400; -792.000; -422.000
437.034;   99.000;  142.000;  143.000
437.157;  141.200;  -11.000;    0.000
437.280;  -42.100; -392.000; -292.000
437.403; -193.300; -982.000; -869.000
437.526; 1118.600; -903.000; -865.000
437.649; 3723.300; -505.000; -332.000
437.772;  453.100; -692.000; -540.000
437.896;  288.100;  700.000;  544.000
438.019; -180.200; -758.000; -503.000
438.142; -136.800; -596.000; -506.000
438.265;    1.800; -639.000; -670.000
438.388;  969.100; -520.000; -410.000
438.511;  146.100; -597.000; -394.000
438.634;  -31.600; -247.000; -125.000
438.757; -230.300; -693.000; -619.000
438.880;   27.600;  -34.000;  -57.000
439.003; -112.500; -417.000; -437.000
439.126;  -89.200; -287.000; -167.000
439.248;  -88.200;  -98.000; -139.000
439.371;    5.200;    9.000;  -53.000
439.494;  155.600;  510.000;  439.000
439.617;  -35.800;   65.000;  -88.000
439.740; -328.200; -968.000; -816.000
439.863; -231.800; -755.000; -595.000
439.986; -165.900; -476.000; -431.000
440.108;  -60.400; -161.000; -112.000
440.231; -272.200; -950.000; -836.000
440.354;  -17.100;  -64.000; -150.000
440.477;   79.200; -566.000; -542.000
440.599;  -20.000; -200.000; -225.000
440.722; -206.700; -709.000; -586.000
440.845;  223.000;  751.000;  928.000
440.968; -145.900; -415.000; -311.000
441.090;  -83.400; -199.000;  -33.000
441.213; -287.100;-1021.000; -825.000
441.336;  -39.700; -159.000;   -5.000
441.458; -114.600; -549.000; -396.000
441.581; -122.000; -628.000; -629.000
441.703;  -85.900; -152.000;   13.000
441.826; -151.600; -557.000; -400.000
441.948;  -40.200;   56.000;   51.000
442.071;  134.800;  555.000;  424.000
442.193; -158.200; -531.000; -485.000
442.316;   91.500;  152.000;   97.000
442.438;  108.200; -233.000;  -10.000
442.561;  219.100;  272.000;  262.000
442.683; 1007.100; -809.000; -522.000
442.806; 1956.100;   -8.000;   74.000
442.928;   41.000; -859.000; -604.000
443.051; -105.700; -577.000; -373.000
443.173; -128.600; -341.000; -339.000
443.295; -111.100; -263.000; -371.000
443.418;  -88.600; -321.000;  -29.000
443.540;   51.500; -106.000;   -4.000
443.662; -182.700; -563.000; -465.000
443.785;   39.800;  335.000;  199.000
443.907; -176.700; -362.000; -208.000
444.029; -231.100; -767.000; -494.000
444.152; -249.000; -644.000; -554.000
444.274;   23.200;  -18.000;  -24.000
444.396; -154.800; -461.000; -221.000
444.518; -223.300; -691.000; -454.000
444.640; -129.400; -268.000; -111.000
444.763;   45.800;  388.000;  249.000
444.885; -176.600; -432.000; -392.000
445.007;  -14.600;   35.000;   86.000
445.129; -175.000; -610.000; -515.000
445.251; -174.400; -372.000; -439.000
445.373; -214.200; -537.000; -386.000
445.495;   76.200;  242.000;  350.000
445.617;  184.900;  853.000;  753.000
445.739;  -54.300; -215.000;  -97.000
445.861;   -0.100; -245.000; -112.000
445.984;  -47.800; -267.000; -101.000
446.105;  421.300; -418.000; -251.000
446.227; 1028.800; -176.000;  -19.000
446.349;  -38.800; -358.000; -249.000
446.471; -174.700; -615.000; -448.000
446.593;  -84.600; -316.000;   19.000
446.715;   41.100;  -67.000;   41.000
446.837;  184.600;  697.000;  832.000
446.959; -139.200; -457.000; -478.000
447.081; -202.700; -628.000; -518.000
447.203;  218.200;  862.000;  834.000
447.325;  -97.400; -270.000;   42.000
447.446;   70.700;  286.000;  530.000
447.568; -282.500; -921.000; -803.000
447.690;  -57.900; -236.000; -245.000
447.812; -275.600; -798.000; -519.000
447.933;   25.100;  155.000;  127.000
448.055;  -85.600; -306.000; -261.000
448.177;  308.300;   31.000;   79.000
448.299;  129.100; -935.000; -727.000
448.420;   72.400;  -25.000;  159.000
448.542;  -23.700;   -3.000;   33.000
448.664;   47.000;  109.000;  322.000
448.785;  -15.600;  265.000;   83.000
448.907; -120.200; -614.000; -353.000
449.028;  -52.400; -771.000; -471.000
449.150;  202.700;  492.000;  589.000
449.272; -306.600;-1044.000; -913.000
449.393;  135.200;  612.000;  694.000
449.515; -232.500; -634.000; -581.000
449.636;  -68.100; -264.000; -155.000
449.758;  215.200;  763.000;  622.000
449.879; -141.500; -498.000; -396.000
450.001; -106.200; -149.000;  -49.000
450.122;  -25.100;  -95.000;  162.000
450.244;   41.700;   37.000;  364.000
450.365; -131.200; -495.000; -301.000
450.486;   -7.100;   80.000;  268.000
450.608;   87.500;  393.000;  326.000
450.729;  220.500;  578.000;  645.000
450.850;   46.800; -574.000; -466.000
450.972; 1567.400; -552.000; -389.000
451.093; 9338.700;  190.000;  588.000
451.214; 3419.800; -516.000; -337.000
451.336;  750.600;  773.000;  579.000
451.457;  175.600;  264.000;  393.000
451.578;  -49.600; -118.000;  -74.000
451.699; -175.800; -546.000; -540.000
451.821;  -95.800; -284.000;  -50.000
451.942;   71.800;  278.000;  285.000
452.063;  133.100;  228.000;  419.000
452.184; 1181.000;  -54.000;  -49.000
452.305; 2035.800;  103.000;  170.000
452.427;  201.000; -549.000; -301.000
452.548;   -2.100;   23.000;   79.000
452.669;  -30.700; -257.000;  -89.000
452.790;  -55.200;    3.000;  -18.000
452.911;   60.600;  195.000;  259.000
453.032;  -73.300; -289.000;  -60.000
453.153;  -15.600;  -29.000;   81.000
453.274;  181.100;  737.000;  868.000
453.395;  -29.700;  -51.000;  175.000
453.516;  339.800; 1317.000; 1388.000
453.637;  -61.700; -205.000; -150.000
453.758;  -54.100;   15.000;   69.000
453.879; -194.000; -462.000; -250.000
454.000;  224.700; 1086.000;  948.000
454.121; -178.500; -554.000; -326.000
454.242; -166.700; -599.000; -383.000
454.362;  -24.000;  -99.000;  114.000
454.483;    4.500; -309.000; -229.000
454.604;  167.000;  512.000;  580.000
454.725; -237.400; -627.000; -555.000
454.846; -165.000; -474.000; -406.000
454.967;   21.300;  230.000;  539.000
455.087;  -20.900;  179.000;  153.000
455.208;  129.600;  554.000;  856.000
455.329;  -65.300;  -22.000;   82.000
455.450;  169.500;  473.000;  633.000
455.570;  -84.900; -234.000; -211.000
455.691;  -36.500;  201.000;  407.000
455.812; -128.800; -270.000;  -92.000
455.932;  -32.000;  107.000;  -97.000
456.053;  -92.000;   36.000;   24.000
456.173; -167.700; -433.000; -355.000
456.294; -208.000; -476.000; -303.000
456.415; -105.900;  -73.000;   70.000
456.535;   -2.600;  297.000;  273.000
456.656;  -30.500;  132.000;  240.000
456.776;  -46.000;    3.000;  298.000
456.897;   63.400;  308.000;  513.000
457.017; -135.100; -153.000;   -3.000
457.138; -159.300; -402.000; -249.000
457.258;   28.500;  263.000;  224.000
457.379;   18.900;  509.000;  521.000
457.499;   37.300;  443.000;  432.000
457.620; -200.800; -407.000; -231.000
457.740; -126.300; -132.000;  -11.000
457.860;  -29.900;   87.000;   44.000
457.981;  -19.600;  132.000;  124.000
458.101;  -64.700;  -89.000;   40.000
458.221;   40.500;  336.000;  402.000
458.342;  -90.100;   -4.000;  -37.000
458.462;  106.700;  617.000;  352.000
458.582;  -34.600; -302.000; -294.000
458.703;   75.700;  303.000;  154.000
458.823;   11.600;   22.000;  163.000
458.943;  116.400;  341.000;  467.000
459.063;   27.200; 1124.000;  192.000
459.183;   10.500;  328.000;  313.000
459.304;  110.200;  315.000;  517.000
459.424;  -57.100; -246.000;  -89.000
459.544;  706.700;  388.000;  764.000
459.664; 1600.800;  499.000;  506.000
459.784;  602.000; 1004.000; 1175.000
459.904;  189.300;  867.000;  744.000
460.024;  225.900;  867.000;  684.000
460.144;   78.200;  449.000;  554.000
460.264;   37.200;  515.000;  327.000
460.385;  -99.600; -145.000; -119.000
460.505;  139.500;  905.000;  858.000
460.625; -137.800;  -17.000;  -68.000
460.745;    2.100;  396.000;  541.000
460.864;   -7.800;  153.000;  469.000
460.984;   67.200;  499.000;  573.000
461.104;  378.600; 1656.000; 1775.000
461.224;   72.200;  657.000;  650.000
461.344;  -30.600;  431.000;  360.000
461.464;    1.600;  258.000;  513.000
461.584;   17.400;  283.000;  466.000
461.704;  -27.800;   58.000;  108.000
461.824;  -40.900;  238.000;  259.000
461.943;  -10.500;  191.000;  130.000
462.063; -124.500;    2.000;  324.000
462.183;  138.500;  639.000;  717.000
462.303;  281.400; 1678.000; 1230.000
462.422;  158.000;  781.000;  840.000
462.542;  -19.200;  271.000;  391.000
462.662;  122.000;  353.000;  380.000
462.782;  528.400;  833.000;  572.000
462.901;  921.400;  545.000;  717.000
463.021;  608.300; 1702.000; 1638.000
463.141;   71.200;  337.000;  770.000
463.260;   23.000;  614.000;  474.000
463.380;   73.200;  902.000;  884.000
463.499;   22.700;  342.000;  332.000
463.619;   12.700;  581.000;  559.000
463.738;  311.300; 1644.000;  903.000
463.858;   85.700;  657.000;  811.000
463.978;   -7.000;  542.000;  396.000
464.097;  139.900;  921.000; 1114.000
464.217;  317.000; 1196.000; 1143.000
464.336;  298.500; 1068.000; 1130.000
464.455;   -4.700;  328.000;  659.000
464.575;  116.600;  597.000;  602.000
464.694;  420.900; 1204.000; 1179.000
464.814;  311.100; 1190.000; 1138.000
464.933;  217.700; 1095.000; 1027.000
465.052;  309.600; 1412.000; 1054.000
465.172;  189.300;  922.000;  799.000
465.291;  343.700; 1376.000; 1320.000
465.410;  101.000;  462.000;  735.000
465.530;  259.300; 1355.000; 1310.000
465.649;  220.500; 1209.000; 1273.000
465.768;  332.100; 1673.000; 1508.000
465.888;  184.000;  941.000; 1174.000
466.007;  279.000; 1335.000; 1440.000
466.126;   85.700;  721.000;  641.000
466.245;  183.600; 1176.000; 1187.000
466.364;  153.100;  950.000; 1060.000
466.484;  192.300; 1024.000; 1213.000
466.603;  108.900; 1101.000; 1222.000
466.722;  308.700; 1490.000; 1769.000
466.841;  217.500; 1151.000; 1401.000
466.960;  147.000; 1069.000;  972.000
467.079;  376.400; 1971.000; 1786.000
467.198;  169.100; 1238.000; 1181.000
467.317;  249.200; 1768.000; 1162.000
467.436;  240.900; 1709.000; 1261.000
467.555;  326.500; 1796.000; 1746.000
467.674;  183.400; 1227.000; 1329.000
467.793;  185.200; 1376.000; 1374.000
467.912;  238.500; 1658.000; 1539.000
468.031;  333.800; 2038.000; 1930.000
468.150;  357.500; 1842.000; 1837.000
468.269;  493.400; 2313.000; 2090.000
468.388;  442.400; 2168.000; 2339.000
468.507;  583.300; 2884.000; 2903.000
468.626;  662.400; 2555.000; 2541.000
468.744;  366.200; 2018.000; 2174.000
468.863;  502.100; 2312.000; 2523.000
468.982;  245.500; 1503.000; 1555.000
469.101;  529.100; 2788.000; 2692.000
469.220;  377.500; 2333.000; 2176.000
469.338;  583.300; 2935.000; 3051.000
469.457;  459.000; 2719.000; 2545.000
469.576;  763.600; 3953.000; 3784.000
469.695;  588.500; 2877.000; 3066.000
469.813;  951.100; 4148.000; 4192.000
469.932;  877.600; 4255.000; 4485.000
470.051;  908.200; 4075.000; 4161.000
470.169; 1799.400; 4470.000; 4338.000
470.288; 2881.100; 4700.000; 4809.000
470.406; 1705.500; 5059.000; 5194.000
470.525; 1306.300; 6101.000; 5787.000
470.644; 1377.600; 6847.000; 6794.000
470.762; 1716.800; 8397.000; 7873.000
470.881; 1910.500; 8651.000; 8464.000
470.999; 2218.300; 9685.000; 9151.000
471.118; 2335.600;11174.000;10711.000

