
Integration time [ms]: 100.000
Averaging Nr. [scans]: 40
Smoothing Nr. [pixels]: 0
Data measured with spectrometer [name]: 2101012U2
Wave   ;Sample   ;Dark     ;Reference
[nm]   ;[counts] ;[counts] ;[counts] 

197.733;   61.675;  516.000;  404.000
197.879;  -82.075; -610.000; -634.000
198.025;  -51.375; -475.000; -420.000
198.171;  -79.150; -602.000; -612.000
198.317;  -29.000; -401.000; -316.000
198.463;  -54.450; -655.000; -404.000
198.609;   34.400;  181.000; -137.000
198.755;  -71.975; -644.000; -410.000
198.901;  -79.450; -505.000; -424.000
199.047;  -67.225; -615.000; -488.000
199.193;  -41.175; -230.000; -468.000
199.339;  -24.825; -222.000; -369.000
199.485;   38.150;  330.000;  271.000
199.631;    9.250;  227.000;  310.000
199.777;  -41.275; -466.000; -398.000
199.923;  -71.125; -610.000; -424.000
200.069;    6.200; -141.000;  -58.000
200.215;   43.625;  128.000;  453.000
200.361;   42.700;  243.000;  477.000
200.507;  -56.050; -600.000; -373.000
200.653;  -10.775; -371.000; -194.000
200.798;  -27.300; -215.000; -125.000
200.944;    4.600; -146.000;  -41.000
201.090;   36.825;   61.000;  222.000
201.236;    1.600; -116.000; -158.000
201.382;  130.850;  874.000;  903.000
201.528;    8.525;  -58.000;  -48.000
201.674;  -70.350; -386.000; -293.000
201.819;  -71.550; -540.000; -439.000
201.965;  -86.400; -699.000; -447.000
202.111;   -6.950; -273.000; -226.000
202.257;  -57.800; -250.000; -238.000
202.402;    3.700;   13.000;  -36.000
202.548;  -20.550; -169.000; -116.000
202.694;   76.375;  410.000; -183.000
202.840;  -77.900; -603.000; -531.000
202.985;  -70.650; -681.000; -639.000
203.131; -104.400; -832.000; -666.000
203.277;  -15.400; -199.000; -262.000
203.423;  -60.025; -434.000; -520.000
203.568;  -31.525; -462.000; -237.000
203.714;  -63.925; -535.000; -542.000
203.860;  -86.850; -682.000; -641.000
204.005;   18.575;  112.000;  167.000
204.151;   72.550;  561.000;  556.000
204.296;  -49.875; -354.000; -221.000
204.442;  -67.150; -600.000; -547.000
204.588;  -81.175; -592.000; -579.000
204.733;   12.700;  178.000;  168.000
204.879; -119.925;-1018.000; -822.000
205.025;   -1.000;  -99.000;  126.000
205.170;   11.650;  -17.000;   94.000
205.316;   88.000;  438.000;  661.000
205.461;  -88.625; -698.000; -554.000
205.607;   78.350;  609.000;  665.000
205.752;  -79.075; -626.000; -551.000
205.898;  -53.825; -501.000; -391.000
206.043;  -69.625; -578.000; -506.000
206.189;  -43.350; -243.000; -285.000
206.334;   71.950;  554.000;  606.000
206.480;   73.150;  409.000;  239.000
206.625;  -81.900; -529.000; -552.000
206.771;  -43.675; -451.000; -373.000
206.916;  -39.050; -210.000; -537.000
207.062;  -72.175; -545.000; -591.000
207.207;  -56.775; -546.000; -443.000
207.353;   47.125;  185.000;  460.000
207.498;   14.350;  196.000;   85.000
207.643;  -50.925; -501.000; -370.000
207.789; -136.850;-1069.000; -910.000
207.934; -108.375; -665.000; -713.000
208.080;  -10.500; -154.000;   66.000
208.225;  -16.375;  -22.000;  -57.000
208.370;  -81.475; -727.000; -619.000
208.516;  -84.575; -741.000; -487.000
208.661;  -23.600; -127.000;  -69.000
208.806;   -9.700; -165.000; -171.000
208.952; -126.100;-1044.000; -731.000
209.097;   79.900;  378.000;  349.000
209.242;  -47.900; -307.000; -382.000
209.387;   53.325;  392.000;  350.000
209.533;  -54.600; -321.000; -350.000
209.678;   78.275;  472.000;  543.000
209.823;  -52.575; -408.000; -310.000
209.969;  -99.325; -860.000; -757.000
210.114; -102.725; -907.000; -719.000
210.259; -119.925; -939.000; -889.000
210.404;   -4.525; -171.000;  103.000
210.549;    2.175;  108.000;    3.000
210.695;  -13.100;   -3.000;  -95.000
210.840;   28.150;   94.000;   67.000
210.985;  -51.700; -484.000; -303.000
211.130;   68.225;  268.000;  406.000
211.275;   13.050;  207.000;  199.000
211.420;  -46.225; -300.000; -289.000
211.566;  -83.575; -536.000; -489.000
211.711;   13.525;  218.000;  157.000
211.856;  -60.850; -545.000; -519.000
212.001;   23.975;  151.000;   44.000
212.146;   17.100;  153.000;   49.000
212.291;  -20.600; -210.000; -186.000
212.436;  -34.425; -280.000;   -6.000
212.581;  -82.725; -685.000; -653.000
212.726;  -77.275; -487.000; -538.000
212.871;  -46.375; -552.000; -217.000
213.016; -142.675;-1172.000;-1029.000
213.161;   64.075;  406.000;  291.000
213.306;  -72.175; -435.000; -577.000
213.451; -102.300; -778.000; -689.000
213.596;  -56.525; -455.000; -347.000
213.741;  -59.500; -448.000; -538.000
213.886;  -81.850; -498.000; -517.000
214.031;  -17.675; -294.000; -124.000
214.176;  -55.600; -408.000; -341.000
214.321;  -16.225; -296.000; -157.000
214.466;  -29.525; -163.000;  -43.000
214.611;  -11.375;  -61.000;  -10.000
214.756; -114.175; -948.000; -858.000
214.901;  -41.725; -388.000; -226.000
215.046; -126.700; -797.000; -825.000
215.191;   12.100;  128.000;   35.000
215.336;  -19.200; -157.000;  -19.000
215.480;  -70.500; -684.000; -505.000
215.625;  -12.775; -175.000;  -19.000
215.770;  -79.925; -757.000; -662.000
215.915;    0.700;   -5.000;  -97.000
216.060;    5.800; -113.000;  -21.000
216.205;  -95.125; -731.000; -779.000
216.349;  -73.600; -470.000; -533.000
216.494; -129.375; -939.000; -867.000
216.639; -112.375; -823.000; -888.000
216.784;  -81.325; -577.000; -525.000
216.929;   63.375;  392.000;  281.000
217.073;  -27.625; -244.000;  -31.000
217.218;    3.650;   78.000;  -47.000
217.363;  -79.575; -656.000; -618.000
217.507;  -79.025; -623.000; -588.000
217.652; -131.525; -845.000; -874.000
217.797;  -81.975; -708.000; -659.000
217.942; -112.125; -856.000; -720.000
218.086;   75.250;  608.000;  539.000
218.231;  -25.700; -174.000;  -26.000
218.376;  -39.275; -337.000; -229.000
218.520;    8.250;  -41.000;   96.000
218.665;  -23.000; -338.000; -204.000
218.810;  -44.750; -275.000; -233.000
218.954;   12.325;  201.000;   35.000
219.099; -121.225; -713.000; -963.000
219.243;  -65.275; -589.000; -554.000
219.388;  -26.575; -264.000; -136.000
219.532;    2.000; -116.000; -116.000
219.677;  -83.050; -564.000; -521.000
219.822;    5.950;   33.000;   89.000
219.966;   20.850;   17.000;  -99.000
220.111;  -29.650; -328.000;  -40.000
220.255; -109.425; -797.000; -750.000
220.400;  -11.875; -180.000; -146.000
220.544;  -81.025; -516.000; -450.000
220.689;  -52.550; -422.000; -451.000
220.833;  -27.100; -123.000;  -58.000
220.978;  -60.400; -393.000; -563.000
221.122;   12.925;  319.000;  307.000
221.267; -117.925; -906.000; -837.000
221.411;  -56.950; -478.000; -394.000
221.555;    2.100; -104.000;  -23.000
221.700;  -40.125; -329.000; -222.000
221.844;   35.100;  255.000;  272.000
221.989;  -61.750; -328.000; -311.000
222.133;  -33.775; -289.000; -307.000
222.277;  -17.900;    5.000;   78.000
222.422;    7.425;  227.000;  113.000
222.566;  -44.125; -381.000; -214.000
222.711;  -52.075; -414.000; -479.000
222.855;  -76.300; -643.000; -586.000
222.999;  -90.475; -642.000; -717.000
223.144;  -23.475; -195.000; -194.000
223.288;   39.700;  423.000;  251.000
223.432;   30.500;  184.000;  230.000
223.576;   13.125;  152.000;  -21.000
223.721;   13.650;  364.000;  273.000
223.865;  -59.375; -472.000; -475.000
224.009;  239.650; 1673.000; 1631.000
224.153;  -85.375; -660.000; -671.000
224.298;  -71.950; -531.000; -489.000
224.442;    1.675;  -74.000;  -33.000
224.586;  -17.325; -169.000; -106.000
224.730; -104.625; -858.000; -670.000
224.875; -122.775; -739.000; -688.000
225.019;    3.850;  102.000;  188.000
225.163;   60.675;  208.000;  341.000
225.307;   11.950;   97.000;  -91.000
225.451;   44.525;  360.000;  481.000
225.595;   34.225;  264.000;  176.000
225.739;  -14.975; -170.000;  -94.000
225.884;    8.075;   86.000;    5.000
226.028;  -95.700; -760.000; -626.000
226.172;  -39.250; -260.000; -273.000
226.316; -121.425; -941.000; -902.000
226.460;  -54.400; -645.000; -493.000
226.604;  -61.350; -406.000; -400.000
226.748;  -98.450; -836.000; -733.000
226.892;  -44.775; -227.000; -181.000
227.036;  -44.975; -537.000; -447.000
227.180;  -60.050; -551.000; -375.000
227.324;  -66.125; -561.000; -580.000
227.468; -113.800; -819.000; -717.000
227.612;   14.175;  242.000;  -28.000
227.756;  -99.275; -845.000; -698.000
227.900;   43.175;  342.000;  441.000
228.044;  -65.375; -509.000; -290.000
228.188;   54.425;  448.000;  568.000
228.332;  -89.425; -546.000; -472.000
228.476;  -25.325; -223.000; -149.000
228.620;  -37.250; -210.000; -150.000
228.764;   62.650;  431.000;  349.000
228.908;  -22.700; -155.000;   30.000
229.052;  -56.150; -615.000; -528.000
229.195;  -24.900; -172.000;   13.000
229.339;  -36.525; -235.000; -305.000
229.483;  -44.175;    5.000; -162.000
229.627;  -15.950; -156.000;  139.000
229.771;  -55.475; -218.000; -294.000
229.915;    7.225;  230.000;   79.000
230.059;  -96.200; -648.000; -663.000
230.202;  -52.725; -370.000; -317.000
230.346;  -15.875; -107.000;  107.000
230.490;  -68.800; -489.000; -521.000
230.634;  -97.700; -736.000; -553.000
230.777;   62.825;  478.000;  509.000
230.921;  -45.475; -450.000; -359.000
231.065;  -45.375; -246.000; -286.000
231.209;   30.575;  261.000;  265.000
231.352;    9.450;   54.000;   40.000
231.496;   26.175;  568.000;  188.000
231.640;  -74.850; -693.000; -621.000
231.783;   63.850;  546.000;  525.000
231.927;  -41.675; -294.000; -365.000
232.071; -111.000; -962.000; -736.000
232.214; -115.200; -980.000; -764.000
232.358;  -99.675; -683.000; -599.000
232.502;    3.025;  -19.000;    7.000
232.645; -142.800;-1090.000; -927.000
232.789;  -41.600; -257.000; -218.000
232.933;  -45.025; -407.000; -224.000
233.076; -125.050;-1038.000; -897.000
233.220; -111.175; -752.000; -777.000
233.363;  -73.350; -669.000; -477.000
233.507;   65.625;  371.000;  129.000
233.650; -111.950; -764.000; -834.000
233.794;   49.000;  438.000;  461.000
233.938;  -62.400; -530.000; -362.000
234.081;  -19.600;  -93.000;   31.000
234.225;  -59.375; -631.000; -539.000
234.368; -111.725; -773.000; -723.000
234.512;  -41.375; -385.000; -299.000
234.655;  -87.525; -582.000; -555.000
234.798;  -71.675; -493.000; -466.000
234.942; -133.325; -884.000;-1002.000
235.085;  -84.650; -651.000; -443.000
235.229;  -79.025; -405.000; -410.000
235.372;  -54.750; -247.000; -191.000
235.516;  -56.975; -397.000; -321.000
235.659;   24.725;   92.000;  121.000
235.802;  -15.325;  -38.000;  -22.000
235.946;   27.475;  335.000;  215.000
236.089;   25.775;  126.000;  250.000
236.233;   45.900;  275.000;  298.000
236.376;  -38.350; -235.000; -378.000
236.519;  -49.225; -297.000; -319.000
236.663;  -18.800; -215.000; -117.000
236.806; -130.775;-1029.000; -999.000
236.949;   71.725;  543.000;  431.000
237.092;   69.075;  412.000;  391.000
237.236;  -86.725; -589.000; -502.000
237.379;   53.475;  352.000;  428.000
237.522; -122.900; -879.000; -768.000
237.666;  -19.575; -271.000;   18.000
237.809; -116.175; -851.000; -823.000
237.952;   33.800;  469.000;  271.000
238.095;  -76.975; -447.000; -442.000
238.238;   79.875;  688.000;  700.000
238.382;   -9.775;  166.000;  103.000
238.525;  -76.225; -598.000; -511.000
238.668; -140.000;-1060.000; -985.000
238.811;  -89.400; -638.000; -643.000
238.954;  -59.200; -483.000; -334.000
239.097;   90.650;  617.000;  664.000
239.241;   34.725;  394.000;  326.000
239.384;  -24.625; -254.000; -214.000
239.527;  -64.950; -424.000; -224.000
239.670; -140.300; -994.000;-1091.000
239.813; -113.475; -696.000; -658.000
239.956;   75.825;  579.000;  473.000
240.099; -109.275; -778.000; -725.000
240.242;   56.475;  428.000;  432.000
240.385;   39.925;  466.000;  450.000
240.528;  -79.050; -706.000; -473.000
240.671;    4.300;  189.000;  134.000
240.814;  -48.950; -441.000; -158.000
240.957; -100.175; -767.000; -578.000
241.100;  -91.850; -779.000; -755.000
241.243; -137.375;-1234.000; -893.000
241.386;  -60.450; -508.000; -379.000
241.529;  -88.350; -735.000; -547.000
241.672;  -59.250; -566.000; -495.000
241.815; -107.000; -832.000; -808.000
241.958;  -26.825; -125.000; -182.000
242.101;  -74.300; -545.000; -390.000
242.244;  -44.250; -270.000; -325.000
242.387;  -39.750; -304.000; -246.000
242.530;   54.925;  470.000;  134.000
242.673;  -53.525; -381.000; -309.000
242.815; -133.175; -925.000; -899.000
242.958;  -74.825; -482.000; -381.000
243.101;   17.825;  132.000;  187.000
243.244;  -78.050; -564.000; -521.000
243.387;  -48.200; -313.000; -316.000
243.530;  -89.925; -657.000; -674.000
243.672;   -0.275;   43.000;  -92.000
243.815;  -61.450; -355.000; -283.000
243.958;    3.675;   98.000;  -26.000
244.101;    5.350;   59.000;  -16.000
244.243;  -23.500;  -47.000;  101.000
244.386; -109.950; -761.000; -630.000
244.529;  -29.475; -132.000; -139.000
244.672; -153.475;-1154.000; -951.000
244.814;  -91.375; -621.000; -794.000
244.957;  -59.175; -380.000; -304.000
245.100;  -63.925; -489.000; -489.000
245.242;  -62.625; -387.000; -374.000
245.385;   -2.200;  -59.000;  -39.000
245.528; -120.300; -871.000; -705.000
245.670;   90.125;  612.000;  634.000
245.813;  -93.800; -599.000; -547.000
245.956;  -37.675; -324.000; -275.000
246.098;  -74.325; -508.000; -650.000
246.241;   17.200;  194.000;   48.000
246.383;  -22.400; -119.000;  -73.000
246.526;  -68.925; -454.000; -525.000
246.669; -126.425; -889.000; -780.000
246.811;   12.575;  172.000;   -1.000
246.954;  -65.875; -512.000; -426.000
247.096;  -23.250;  -84.000;   -6.000
247.239;  -78.900; -482.000; -445.000
247.381;  -60.150; -647.000; -488.000
247.524;   70.450;  645.000;  679.000
247.666;  -15.725;   58.000;   11.000
247.809; -126.350; -887.000; -691.000
247.951;  -16.325;  -75.000;  138.000
248.094;   17.375;  432.000;  308.000
248.236; -157.950;-1262.000;-1238.000
248.378;    5.025; -356.000;  -81.000
248.521;  -20.775; -334.000; -337.000
248.663;  -37.600; -236.000; -267.000
248.806;  -24.400; -300.000; -266.000
248.948;  -91.625; -886.000; -763.000
249.090;  -37.025; -428.000; -398.000
249.233;  -37.325; -344.000; -381.000
249.375;  -75.450; -474.000; -451.000
249.518;  -25.350;  -83.000; -133.000
249.660;   -6.850; -103.000;    3.000
249.802; -166.000;-1303.000;-1189.000
249.945;  -71.975; -612.000; -540.000
250.087; -108.675; -834.000; -768.000
250.229;  -45.875; -362.000; -480.000
250.371;  -73.850; -494.000; -439.000
250.514;  -46.675; -310.000; -244.000
250.656;  -22.075;   69.000;  102.000
250.798; -116.225; -849.000; -800.000
250.940;  -64.775; -322.000; -322.000
251.083;  -19.775; -335.000; -111.000
251.225;   58.275;  338.000;  310.000
251.367;  -42.000; -274.000; -373.000
251.509;  -40.575; -265.000; -210.000
251.651;  -93.600; -731.000; -671.000
251.794;   59.975;  538.000;  632.000
251.936; -104.225; -821.000; -747.000
252.078;  -85.925; -540.000; -461.000
252.220;  -79.325; -645.000; -477.000
252.362;  103.500;  344.000;  462.000
252.504;  -66.725; -677.000; -584.000
252.646; -116.800; -875.000; -722.000
252.788;    1.175;   14.000; -128.000
252.931;  -38.475; -257.000; -253.000
253.073;  -51.175; -376.000; -317.000
253.215;  -22.400;  141.000;  122.000
253.357;   -3.225;   82.000; -153.000
253.499;  -53.100; -374.000; -234.000
253.641;  -91.000; -749.000; -594.000
253.783;  -94.075; -609.000; -527.000
253.925; -103.175; -586.000; -591.000
254.067; -106.875; -744.000; -667.000
254.209;  -22.150; -391.000; -259.000
254.351; -131.775; -865.000; -883.000
254.493;  -49.475; -441.000; -417.000
254.635; -132.275; -936.000; -818.000
254.777;  -90.475; -752.000; -687.000
254.918;  -66.400; -512.000; -430.000
255.060;  -65.400; -551.000; -395.000
255.202;  -55.250; -473.000; -261.000
255.344;  -84.300; -658.000; -455.000
255.486;  -68.750; -471.000; -406.000
255.628; -109.500; -780.000; -781.000
255.770;  -85.050; -676.000; -536.000
255.912;  -64.075; -559.000; -468.000
256.053;  -95.425; -730.000; -508.000
256.195;  159.275; 1008.000;  903.000
256.337; -109.650; -861.000; -595.000
256.479;   61.800;  532.000;  416.000
256.621;  -39.550; -394.000; -212.000
256.762;  -89.100; -789.000; -742.000
256.904;   61.875;  485.000;  487.000
257.046;  -44.125; -381.000; -271.000
257.188;  -38.800; -351.000; -264.000
257.329;  -70.825; -525.000; -464.000
257.471; -110.975; -939.000; -807.000
257.613;  -52.400; -584.000; -498.000
257.755; -138.250;-1073.000; -982.000
257.896;   35.950;  286.000;  392.000
258.038;  -58.050; -403.000; -352.000
258.180;  -46.525; -354.000; -279.000
258.321;  -80.200; -581.000; -457.000
258.463;  -14.100;  -71.000;  133.000
258.605;  -87.525; -562.000; -570.000
258.746; -103.500; -886.000; -772.000
258.888; -155.425;-1026.000;-1020.000
259.029;   21.725;  121.000;   -8.000
259.171;  -78.450; -614.000; -550.000
259.313;  -12.675;  -49.000;  -47.000
259.454;  -74.750; -536.000; -414.000
259.596;  -50.425; -483.000; -390.000
259.737;  -79.950; -590.000; -474.000
259.879;   29.200;  217.000;  311.000
260.020;   92.050;  901.000;  636.000
260.162;  -24.775; -146.000; -253.000
260.303; -114.875; -768.000; -687.000
260.445;  -88.450; -609.000; -613.000
260.586;   29.325;  392.000;  157.000
260.728;  -36.150; -360.000; -248.000
260.869; -114.600; -350.000; -343.000
261.011;   73.575;  706.000;  537.000
261.152;  -71.825; -479.000; -319.000
261.293;  -77.225; -576.000; -595.000
261.435;  -41.925; -219.000; -184.000
261.576;  -46.250; -455.000; -325.000
261.718;   48.625;  420.000;  470.000
261.859; -126.800; -940.000; -949.000
262.000; -133.500; -951.000;-1016.000
262.142;  -26.350;  -52.000;  -60.000
262.283; -124.725; -808.000; -691.000
262.424;  -89.150; -666.000; -625.000
262.566; -145.300;-1161.000; -983.000
262.707; -116.125; -840.000; -830.000
262.848; -114.450; -769.000; -726.000
262.990;  -49.500; -362.000; -345.000
263.131;   90.100;  650.000;  681.000
263.272;   -9.425;  -61.000;  -41.000
263.413;  -88.100; -589.000; -561.000
263.555;  -70.250; -669.000; -143.000
263.696;  -80.125; -550.000; -641.000
263.837;  -49.175; -449.000; -551.000
263.978;    1.275;   -5.000;  -77.000
264.119;  -36.450; -283.000; -264.000
264.261; -134.750; -847.000; -630.000
264.402;   -4.025;   33.000;   40.000
264.543;  -77.925; -509.000; -524.000
264.684;   -5.175;   61.000;  -50.000
264.825;  -77.675; -816.000; -538.000
264.966;  -10.975;  -84.000;  -67.000
265.107; -125.925; -646.000; -670.000
265.248; -113.075; -825.000; -812.000
265.390;  -17.050;  152.000;   -9.000
265.531;  -20.350; -238.000; -107.000
265.672;  -88.975; -557.000; -630.000
265.813;   55.250;  563.000;  439.000
265.954; -140.425; -959.000; -940.000
266.095;  -11.600; -372.000; -322.000
266.236;  -98.450; -686.000; -548.000
266.377;  -36.425; -243.000; -297.000
266.518;  -78.975; -619.000; -547.000
266.659;   19.250;  170.000;  268.000
266.800;    4.975;   83.000;   85.000
266.941;  -69.825; -487.000; -478.000
267.082;   15.650;  354.000;   99.000
267.223;  -51.725; -344.000; -273.000
267.364; -117.000; -892.000; -686.000
267.504;   -8.100;    3.000;  135.000
267.645;  -20.100;  160.000;   67.000
267.786;  -31.825; -147.000;  -86.000
267.927;  -70.875; -473.000; -379.000
268.068;  -15.500; -186.000;  -61.000
268.209;  -45.525; -175.000; -413.000
268.350;  -60.800; -388.000; -532.000
268.490;  -85.000; -648.000; -521.000
268.631;   27.525;  127.000;  225.000
268.772; -103.625; -874.000; -647.000
268.913;  -51.900; -328.000; -476.000
269.054;  -11.700; -117.000;   12.000
269.194;  -43.975; -418.000; -402.000
269.335; -162.325;-1137.000;-1074.000
269.476;  -24.300;   33.000;  -35.000
269.617;  -51.150; -347.000; -392.000
269.757;  -87.850; -713.000; -646.000
269.898; -118.775; -856.000; -613.000
270.039;  -67.300; -415.000; -405.000
270.180; -134.675; -952.000; -816.000
270.320;  -24.450; -190.000; -250.000
270.461;  -42.300; -277.000; -249.000
270.602;   -1.350; -186.000; -156.000
270.742; -128.050; -868.000; -943.000
270.883;  -54.775; -442.000; -390.000
271.023;  -54.500; -358.000; -357.000
271.164;  -60.850; -607.000; -528.000
271.305;  -88.325; -666.000; -654.000
271.445;  -84.225; -722.000; -683.000
271.586;  -72.575; -462.000; -283.000
271.726;  -42.300; -397.000; -322.000
271.867;  -50.250; -594.000; -534.000
272.008;  203.550; -473.000; -285.000
272.148;  162.100;  462.000;  468.000
272.289;   12.750; -113.000; -181.000
272.429;   26.250;   19.000;  185.000
272.570;  -84.600; -633.000; -737.000
272.710;  -91.250; -825.000; -775.000
272.851;  -20.975;  113.000; -130.000
272.991; -152.500;-1173.000;-1077.000
273.131;  -71.150; -419.000; -459.000
273.272; -107.000; -683.000; -723.000
273.412;   19.725; -143.000;  -31.000
273.553;  -33.175; -488.000; -507.000
273.693;  135.975;  913.000;  858.000
273.834;  -87.675; -894.000; -692.000
273.974;  -82.275; -664.000; -615.000
274.114;  -98.975; -772.000; -560.000
274.255;   84.000;  414.000;  373.000
274.395;   14.275; -180.000; -125.000
274.535;   47.975;  199.000;  350.000
274.676;   22.000;  225.000;   94.000
274.816;   12.425;  110.000;   34.000
274.956;  -79.950; -624.000; -690.000
275.097;  -44.825;-1014.000; -922.000
275.237; -105.175; -913.000; -803.000
275.377;  -90.250; -778.000; -689.000
275.517; -141.725; -878.000; -937.000
275.658;  -56.250; -590.000; -555.000
275.798;  -64.925; -606.000; -413.000
275.938;   24.375;  215.000;  323.000
276.078; -101.725; -626.000; -395.000
276.218;    5.150;   99.000;  104.000
276.359; -125.100;-1026.000;-1024.000
276.499;  -70.825; -605.000; -446.000
276.639;  -41.550; -305.000; -151.000
276.779;  -43.925; -475.000; -357.000
276.919; -110.825; -783.000; -624.000
277.059;  -27.150; -261.000; -212.000
277.199;  -52.575; -357.000; -259.000
277.340;   46.075;  287.000;  175.000
277.480; -106.775; -840.000; -693.000
277.620;   32.600;  192.000;   16.000
277.760; -185.725;-1533.000;-1294.000
277.900;   32.900;  113.000;   33.000
278.040;   16.500;  137.000;  159.000
278.180;   36.475;  270.000;  170.000
278.320;   -7.775;   21.000;   56.000
278.460;  -59.100; -443.000; -469.000
278.600;  -86.575; -708.000; -598.000
278.740;   54.475;  448.000;  224.000
278.880;  -18.200; -768.000; -791.000
279.020;    5.800; -194.000; -144.000
279.160;  -89.600; -672.000; -595.000
279.300; -111.975; -926.000; -873.000
279.440;  -82.500; -709.000; -622.000
279.579;   -4.250;-1014.000; -929.000
279.719;  -59.775; -410.000; -394.000
279.859;   68.775;   -4.000;   41.000
279.999;   36.325; -208.000;  101.000
280.139;    4.100; -435.000; -387.000
280.279;  -75.025; -708.000; -745.000
280.419;   -6.500; -229.000; -147.000
280.559;  -21.100; -259.000; -180.000
280.698;  -71.175; -790.000; -639.000
280.838;  -79.175; -778.000; -800.000
280.978;  -95.625; -846.000; -790.000
281.118; -120.775; -811.000; -704.000
281.257;    4.900;   24.000;    6.000
281.397;  -87.400;-1094.000; -960.000
281.537;  -82.550; -599.000; -712.000
281.677;  -20.925; -150.000; -101.000
281.816;  -80.250; -700.000; -630.000
281.956;  -46.075; -193.000; -257.000
282.096;  -61.425; -539.000; -396.000
282.235; -101.950; -672.000; -638.000
282.375;  -15.975; -243.000;  -98.000
282.515;  -93.425; -715.000; -707.000
282.654;   40.950;   29.000;  106.000
282.794;   27.425;  388.000;  244.000
282.934;  -38.975; -530.000; -491.000
283.073; -138.150;-1030.000; -857.000
283.213;  -51.575; -460.000; -467.000
283.353;  -33.175; -408.000; -349.000
283.492;  -24.775; -264.000; -296.000
283.632;  -46.275; -254.000; -168.000
283.771;  -96.600; -859.000; -730.000
283.911;  -39.450; -369.000; -260.000
284.050; -114.175; -794.000; -748.000
284.190; -155.275;-1229.000;-1096.000
284.329; -144.625;-1055.000; -964.000
284.469;  -32.350; -516.000; -591.000
284.608;  -51.775; -559.000; -598.000
284.748;  -85.650; -614.000; -570.000
284.887;  -13.400;  -87.000;  -20.000
285.027; -128.000; -844.000; -892.000
285.166;  -34.600; -192.000; -249.000
285.306;    4.075; -116.000;  -33.000
285.445;  -41.400; -229.000; -343.000
285.584; -101.625; -630.000; -494.000
285.724;  -38.000; -282.000; -322.000
285.863; -112.175; -857.000; -507.000
286.002;  -52.300; -366.000; -276.000
286.142; -104.675; -715.000; -622.000
286.281;  -79.550; -525.000; -493.000
286.420;  -76.575; -554.000; -417.000
286.560;   92.675;  653.000;  623.000
286.699; -127.625; -958.000; -912.000
286.838;  -78.525; -590.000; -591.000
286.978;  -94.650; -533.000; -537.000
287.117; -130.550;-1085.000; -950.000
287.256;  -30.800; -228.000; -211.000
287.395;  -52.125; -197.000; -378.000
287.535;  -49.950; -370.000; -298.000
287.674;  -65.600; -509.000; -484.000
287.813;   46.650;  661.000;  533.000
287.952; -133.750;-1010.000; -871.000
288.091; -149.750;-1049.000; -915.000
288.231;   31.750;   13.000;   15.000
288.370; -175.550;-1217.000;-1200.000
288.509;  -97.100; -728.000; -645.000
288.648;  -92.600; -770.000; -548.000
288.787;  -30.325; -243.000;  -87.000
288.926;  -55.900; -454.000; -475.000
289.065;  127.575;  859.000;  672.000
289.204;  -42.850; -377.000; -217.000
289.344;  -94.275; -791.000; -690.000
289.483;   31.350;  416.000;  304.000
289.622;  -18.600; -291.000; -149.000
289.761;   -3.250; -309.000; -166.000
289.900;  -98.600; -785.000; -626.000
290.039;   -3.100;  -12.000;  -95.000
290.178;  -40.775; -274.000; -180.000
290.317;  -69.700; -618.000; -479.000
290.456;  -58.975; -463.000; -451.000
290.595; -132.075; -961.000; -833.000
290.734; -136.400; -904.000; -891.000
290.873;  -67.200; -456.000; -420.000
291.011;  -98.700; -833.000; -843.000
291.150;  -97.625; -770.000; -682.000
291.289;  -24.500; -343.000; -110.000
291.428;  -87.025; -599.000; -480.000
291.567;  -55.750; -370.000; -442.000
291.706;  -13.075;  109.000;  154.000
291.845;  -81.075; -597.000; -505.000
291.984; -161.525;-1234.000;-1061.000
292.122;   75.775;  602.000;  582.000
292.261;   51.850;  620.000;  463.000
292.400;    8.625; -144.000;  211.000
292.539; -112.550; -959.000; -813.000
292.678;  -37.550; -325.000; -300.000
292.816; -143.850;-1136.000; -965.000
292.955;  -87.100; -844.000; -684.000
293.094;  -23.775; -173.000; -337.000
293.233;  -49.175; -556.000; -400.000
293.371;  -26.125; -225.000;  -84.000
293.510; -104.125; -866.000; -780.000
293.649; -122.075; -959.000; -924.000
293.787;  -33.200;-1083.000;-1012.000
293.926;    6.900; -113.000;  -32.000
294.065;  -43.275; -379.000; -290.000
294.203;   47.350;  298.000;  406.000
294.342;   26.650;   74.000;  156.000
294.481; 5747.350;51180.000; -836.000
294.619;  -18.125; -425.000; -582.000
294.758; -141.950;-1230.000;-1137.000
294.896;   97.200; -125.000;    5.000
295.035; -109.600;-1040.000;-1006.000
295.174; -111.400;-1082.000; -954.000
295.312;  -39.850; -323.000; -203.000
295.451;   12.150; -307.000; -428.000
295.589;  -36.750; -389.000; -518.000
295.728;   25.300; -292.000; -165.000
295.866;    9.300;  -36.000;  -51.000
296.005;  -55.550; -584.000; -341.000
296.143;  -56.200; -558.000; -596.000
296.282;  -89.625; -957.000; -881.000
296.420;  -87.650; -657.000; -557.000
296.559;  -74.300; -892.000; -633.000
296.697;   54.625; -847.000; -665.000
296.835;  122.775;-1141.000;-1002.000
296.974;   58.900;  -23.000;   39.000
297.112;   36.500; -443.000; -504.000
297.251;  -51.675; -815.000; -755.000
297.389;  144.850; -576.000; -438.000
297.527;   51.600; -145.000;  -83.000
297.666;  -41.625; -486.000; -438.000
297.804;  -45.925; -404.000; -264.000
297.942;    1.250; -136.000; -161.000
298.081;    6.750; -183.000;   63.000
298.219;   86.800;  -17.000;  -19.000
298.357;   80.525; -144.000;  -71.000
298.495;   74.050; -810.000; -812.000
298.634;   92.125;  245.000;  219.000
298.772;   95.300; -220.000; -338.000
298.910;  -17.375; -309.000; -182.000
299.048;  -12.250; -130.000; -153.000
299.187;  -36.475; -350.000; -250.000
299.325;   28.925;   52.000;  122.000
299.463;   85.575; -389.000; -299.000
299.601;  158.250; -327.000; -271.000
299.739;  -93.625; -908.000; -883.000
299.877;  -68.225; -791.000; -703.000
300.016;  -21.025;-1095.000; -935.000
300.154;  215.125;  -19.000; -161.000
300.292;   86.725; -428.000; -348.000
300.430;   65.950; -408.000; -291.000
300.568;  -89.025; -940.000; -874.000
300.706;  -48.300; -366.000; -469.000
300.844;  -50.500;-1108.000; -979.000
300.982;  154.350;  246.000;  282.000
301.120;  -95.100; -965.000; -866.000
301.258;  -45.975; -812.000; -705.000
301.396;   57.600;  104.000;  -41.000
301.534;  134.250; -218.000; -293.000
301.672;   27.850; -664.000; -521.000
301.810;   81.875; -613.000; -545.000
301.948;  158.300;   53.000;  149.000
302.086;  778.075; -250.000;  -32.000
302.224; 1222.350; -610.000; -585.000
302.362;   76.100; -558.000; -622.000
302.500;    8.650; -923.000; -893.000
302.638;  148.925;  128.000;  245.000
302.776;    2.725; -352.000; -408.000
302.913;   51.900;  447.000;  236.000
303.051;    9.850;  -86.000;  -23.000
303.189;   63.100;   90.000;  118.000
303.327;  -28.725; -341.000; -256.000
303.465;  -71.975; -832.000; -588.000
303.603;  -97.325; -805.000; -604.000
303.740;  119.375;  417.000;  241.000
303.878;   51.925; -800.000; -759.000
304.016;  -85.325; -915.000; -790.000
304.154; -100.225;-1123.000;-1152.000
304.291;  -32.575; -505.000; -554.000
304.429;   14.325;  102.000;   74.000
304.567; -117.650; -908.000; -893.000
304.705;  -52.250; -408.000; -515.000
304.842;  140.775; -616.000; -540.000
304.980;   77.375;  215.000;   35.000
305.118;   79.175; -367.000; -365.000
305.255;  -53.300; -945.000; -927.000
305.393;   77.450;  178.000;  239.000
305.531;  -77.450;-1173.000; -956.000
305.668;  -47.125; -663.000; -582.000
305.806;  149.300; -358.000; -439.000
305.943;  149.750; -629.000; -637.000
306.081;   81.800; -378.000; -267.000
306.219;  -97.275; -863.000; -748.000
306.356;   14.600;  158.000;   27.000
306.494;  112.375;  981.000;  761.000
306.631;    2.800;  -11.000;  -55.000
306.769;   23.550; -613.000; -485.000
306.906;  -10.125; -284.000; -258.000
307.044;  -64.700; -473.000; -488.000
307.181;  -61.575; -410.000; -332.000
307.319;   11.750;  112.000;   87.000
307.456; -166.025;-1191.000;-1153.000
307.594;  -88.025; -980.000; -727.000
307.731;   -1.200; -371.000; -164.000
307.868;    1.600;  -15.000;   20.000
308.006; -133.550; -961.000; -847.000
308.143;  -52.775; -618.000; -330.000
308.281;  200.450;  -37.000; -254.000
308.418;   -2.225; -748.000; -640.000
308.555;  -66.900; -400.000; -250.000
308.693;  -74.975; -577.000; -573.000
308.830; -105.425; -712.000; -657.000
308.967;  -23.400; -215.000;  -95.000
309.105;  -35.900; -507.000; -396.000
309.242;   53.075; -468.000; -367.000
309.379;  380.225; -577.000; -655.000
309.517;  -56.025; -936.000; -948.000
309.654;  -96.600; -910.000; -734.000
309.791;  -77.950; -662.000; -580.000
309.928; -108.525; -977.000; -914.000
310.065;  191.300;  819.000;  697.000
310.203;   28.300; -825.000; -850.000
310.340;    2.825; -465.000; -321.000
310.477;  -80.550; -412.000; -516.000
310.614;  -60.050; -383.000; -473.000
310.751;  -77.875; -427.000; -518.000
310.889;  -12.225;    1.000;   11.000
311.026; -142.850;-1161.000; -939.000
311.163;  -53.275; -386.000; -380.000
311.300;  -71.725; -512.000; -479.000
311.437;  -62.175; -658.000; -619.000
311.574; -154.700;-1226.000; -985.000
311.711;  -49.825; -595.000; -433.000
311.848;  -20.775; -380.000; -388.000
311.985;   23.200;  270.000;   93.000
312.122; -114.000; -932.000; -762.000
312.259; -118.650; -941.000; -994.000
312.396;  -78.750; -508.000; -551.000
312.533;  -85.325; -812.000; -790.000
312.670; -114.700;-1070.000; -898.000
312.807;  -41.425; -352.000; -367.000
312.944;  -77.775; -513.000; -611.000
313.081;  -36.700; -150.000; -415.000
313.218; -108.575;-1111.000; -867.000
313.355;   44.900; -531.000; -449.000
313.492;   21.125; -455.000; -292.000
313.629;  142.450;  815.000;  735.000
313.766; -150.175;-1176.000;-1008.000
313.902;   -4.375; -186.000;   21.000
314.039;  -53.075; -372.000; -289.000
314.176;   36.450;  286.000;  192.000
314.313;  -74.775; -569.000; -473.000
314.450;  -82.625; -788.000; -684.000
314.587;  -46.800; -468.000; -480.000
314.723;   11.450;  -78.000;  130.000
314.860;   38.875;  318.000;  332.000
314.997;   44.850;  223.000;  142.000
315.134;  -37.950; -385.000; -368.000
315.270;  -22.175; -480.000; -496.000
315.407; -129.275;-1094.000; -967.000
315.544;  -25.325; -657.000; -538.000
315.681;  -54.275; -681.000; -565.000
315.817;   45.675; -133.000; -176.000
315.954;   29.325; -613.000; -392.000
316.091; -122.650;-1045.000;-1023.000
316.227;  -23.175;  -71.000; -179.000
316.364;   11.925;   23.000;    6.000
316.500;  -51.550; -113.000; -300.000
316.637;  -37.325; -181.000; -302.000
316.774;  -81.750; -625.000; -358.000
316.910;  -89.950; -598.000; -629.000
317.047;  -63.500; -487.000; -351.000
317.183;  -47.625; -435.000; -566.000
317.320;  -16.875; -367.000; -321.000
317.456;  -80.550; -733.000; -805.000
317.593;  -80.275; -598.000; -641.000
317.729;    1.025;  168.000;  -67.000
317.866; -200.325;-1434.000;-1285.000
318.002;  -78.650; -708.000; -948.000
318.139;  -86.875; -883.000; -867.000
318.275;  -93.850;-1003.000; -738.000
318.412;  -53.250; -517.000; -336.000
318.548;  -22.575; -751.000; -720.000
318.685;  -87.475; -985.000; -888.000
318.821;  -93.200; -762.000; -735.000
318.957;  -11.025;   34.000;  -23.000
319.094;   50.525;  297.000;  154.000
319.230;  -51.875; -756.000; -742.000
319.367;  192.250; -471.000; -520.000
319.503;   91.225; -538.000; -436.000
319.639;  -97.250; -877.000; -793.000
319.775;  -42.600; -750.000; -685.000
319.912;  -47.350; -424.000; -519.000
320.048;  -67.650;-1184.000;-1184.000
320.184;   80.375;   59.000;   70.000
320.321;  -54.200; -497.000; -467.000
320.457;   54.250;  475.000;  662.000
320.593;  -70.075; -375.000; -382.000
320.729; -107.250; -732.000; -734.000
320.866;  -69.450; -577.000; -635.000
321.002;  -65.475; -759.000; -809.000
321.138;   -3.575; -135.000; -211.000
321.274;  102.075; -148.000; -115.000
321.410;   -3.425; -585.000; -353.000
321.546;    4.400;-1011.000; -911.000
321.683;   63.150;  400.000;  185.000
321.819;   14.600;  -48.000; -117.000
321.955; -101.425; -743.000; -722.000
322.091;  -35.800; -585.000; -540.000
322.227;   -0.800; -382.000; -202.000
322.363;   10.825; -320.000; -215.000
322.499;  -32.925; -343.000; -331.000
322.635;  184.925;  636.000;  443.000
322.771;   41.275; -139.000;   12.000
322.907;  107.025;  129.000;  327.000
323.043;  -12.425; -115.000; -206.000
323.179;  -23.875; -394.000; -363.000
323.315;   82.825; -401.000; -371.000
323.451;  145.950; -328.000; -236.000
323.587;   87.425;  -60.000;  -77.000
323.723;   37.450; -682.000; -601.000
323.859;   -0.825; -258.000;  -76.000
323.995;  -25.150; -467.000; -409.000
324.131; -119.050; -967.000; -892.000
324.267;  -22.525; -254.000; -276.000
324.402; -121.975; -960.000; -983.000
324.538;    5.125; -279.000; -104.000
324.674;   35.600;  164.000;   77.000
324.810;  168.625;  226.000;  308.000
324.946;   38.150; -810.000; -658.000
325.082;  -68.200; -568.000; -475.000
325.217;   -3.925;  -62.000;   16.000
325.353;  -99.600; -764.000; -659.000
325.489;  -89.050; -540.000; -506.000
325.625;  -70.925; -579.000; -525.000
325.760;   47.275;  517.000;  376.000
325.896;  -52.500; -515.000; -702.000
326.032;  -43.325; -403.000; -352.000
326.168;  -52.050; -462.000; -369.000
326.303;  -59.075; -352.000; -461.000
326.439;  -34.925; -336.000; -276.000
326.575;    0.475; -190.000;  -29.000
326.710;    0.825; -156.000;  -30.000
326.846;  -17.900;  146.000;  103.000
326.982;  -94.425; -530.000; -548.000
327.117;  -81.625; -481.000; -442.000
327.253;  -92.300; -745.000; -742.000
327.388; -152.100;-1137.000;-1153.000
327.524;  -31.375; -811.000; -578.000
327.659;  -28.100;  -58.000;  -22.000
327.795;   -2.800;   69.000;   45.000
327.931;  -78.500; -723.000; -499.000
328.066;  -14.500; -417.000; -276.000
328.202;   -3.375;   12.000; -129.000
328.337;  118.400;  957.000;  713.000
328.473;   45.925;  -12.000;  -74.000
328.608;   -5.850; -256.000; -267.000
328.743;  -72.850; -799.000; -664.000
328.879;    2.400;  214.000;  114.000
329.014;  -39.975; -102.000; -122.000
329.150;  -82.425; -358.000; -483.000
329.285;  -77.500; -465.000; -466.000
329.421;  -46.050; -548.000; -246.000
329.556;  -21.700;  -36.000;   85.000
329.691;  -97.550; -633.000; -615.000
329.827;  -93.250; -626.000; -480.000
329.962;  -43.050;  131.000; -301.000
330.097;  -82.375; -673.000; -585.000
330.233;  -34.950; -410.000; -223.000
330.368; -131.600; -839.000; -628.000
330.503;  -13.650;    3.000;   98.000
330.638;   13.075;  -93.000; -125.000
330.774;  -49.500; -609.000; -530.000
330.909;  -47.450; -434.000; -244.000
331.044;  -96.150; -714.000; -708.000
331.179; -178.200;-1217.000;-1109.000
331.315;   22.500;   77.000;   20.000
331.450;   18.450;  157.000;  285.000
331.585;  -76.225; -805.000; -706.000
331.720;  -85.075; -510.000; -460.000
331.855;   -1.025;  -35.000; -102.000
331.990;  182.650;   62.000;  138.000
332.126;  106.475; -110.000;   71.000
332.261;  -24.575; -379.000; -265.000
332.396;   -8.875; -135.000; -242.000
332.531; -116.250;-1074.000;-1031.000
332.666;   25.300; -519.000; -363.000
332.801; -100.425; -726.000; -807.000
332.936;  -14.050; -192.000; -122.000
333.071; -132.150; -870.000; -817.000
333.206;   18.600;  307.000;  379.000
333.341;   32.575;  344.000;  418.000
333.476;  -90.725; -627.000; -623.000
333.611;  -23.500; -251.000; -173.000
333.746;  -38.900; -381.000; -464.000
333.881; -108.125; -973.000; -935.000
334.016; -125.925; -936.000; -917.000
334.151; -114.725; -746.000; -702.000
334.286;   42.200;  152.000;  186.000
334.421;   -9.175; -125.000; -178.000
334.556;  -65.825; -611.000; -567.000
334.690;  -73.000; -631.000; -577.000
334.825;   63.825;  381.000;   83.000
334.960;  -52.550; -285.000; -413.000
335.095;   31.650;  135.000;  -91.000
335.230;  -91.925; -722.000; -738.000
335.365; -118.525;-1084.000; -990.000
335.499; -117.850;-1108.000;-1037.000
335.634;   30.775;    9.000;  534.000
335.769;  -89.525; -755.000; -720.000
335.904;  -50.450; -603.000; -561.000
336.038;  -32.125; -735.000; -657.000
336.173;  -95.825;-1206.000;-1194.000
336.308;   18.100; -116.000; -189.000
336.443;   34.575; -544.000; -634.000
336.577;  -56.075; -936.000; -787.000
336.712;  102.375;   -4.000;  -12.000
336.847;   -3.575; -724.000; -607.000
336.981;  106.725; -272.000; -208.000
337.116;  351.300;  615.000;  501.000
337.250;  222.975; -434.000; -421.000
337.385;  215.825; -297.000; -208.000
337.520;   42.850; -632.000; -603.000
337.654;  -36.825; -215.000; -126.000
337.789; -121.650; -989.000; -933.000
337.923;  -33.400; -104.000; -205.000
338.058;  -78.850; -673.000; -738.000
338.192;  -25.775; -611.000; -488.000
338.327;  -12.075;  -18.000; -155.000
338.461;  -50.875; -299.000; -469.000
338.596;  -87.400; -780.000; -638.000
338.730; -107.125; -767.000; -803.000
338.865;   65.100;  -46.000; -140.000
338.999;  -64.925; -846.000; -702.000
339.134;  -46.350; -634.000; -536.000
339.268;    9.275; -741.000; -603.000
339.403;  326.100; -740.000; -775.000
339.537;   81.225; -894.000; -820.000
339.671; -114.025; -829.000; -813.000
339.806;  -58.975; -556.000; -512.000
339.940;    7.700; -261.000; -235.000
340.074;  -94.750; -685.000; -510.000
340.209;  -47.400; -351.000; -230.000
340.343;  -80.925; -517.000; -573.000
340.477;  151.050;  998.000; 1036.000
340.612;  -67.275;-1033.000; -900.000
340.746;  106.075; -199.000; -243.000
340.880;  -47.325; -924.000; -785.000
341.014;  -18.425;  -45.000; -154.000
341.149; -114.450; -756.000; -718.000
341.283; -114.475; -839.000; -754.000
341.417;  -81.400;-1124.000; -938.000
341.551;  214.325; -768.000; -708.000
341.685;  -22.275; -633.000; -611.000
341.820;  -46.625; -562.000; -493.000
341.954;  -54.550; -218.000; -349.000
342.088; -140.025;-1102.000;-1019.000
342.222;   64.400;  565.000;  618.000
342.356;  -52.325; -395.000; -335.000
342.490;  -86.050; -880.000; -841.000
342.624;  -34.250; -339.000; -242.000
342.758;   14.050; -364.000; -312.000
342.892;  -37.925; -710.000; -585.000
343.026;  -32.100;  -58.000; -116.000
343.160;  -54.075; -426.000; -376.000
343.294;  -62.750; -474.000; -337.000
343.428;    2.200; -488.000; -448.000
343.562;   -3.550; -172.000;  -23.000
343.696;  -14.400; -385.000; -314.000
343.830;    3.800; -362.000; -356.000
343.964;   28.550; -231.000; -168.000
344.098; 1211.950;  199.000;   70.000
344.232; 1011.400; -266.000; -127.000
344.366;  100.400; -567.000; -453.000
344.500;  113.375; -665.000; -744.000
344.634;   58.075; -324.000; -164.000
344.768;   16.775; -531.000; -341.000
344.902;   38.050;  278.000;  256.000
345.035;  -62.250; -556.000; -496.000
345.169; -126.900; -933.000; -656.000
345.303;   -8.275; -308.000; -482.000
345.437;  -52.800; -826.000; -717.000
345.571;  -74.700; -675.000; -594.000
345.704;  -64.900; -309.000; -532.000
345.838;    8.225; -331.000; -284.000
345.972;  -35.775; -543.000; -495.000
346.106;  146.925; -179.000; -190.000
346.239;  448.450; -312.000; -243.000
346.373;   28.400; -343.000; -302.000
346.507; -133.250; -950.000; -962.000
346.640;  196.950;  -30.000;   13.000
346.774;  -20.275; -650.000; -797.000
346.908;   -7.500; -138.000;  -11.000
347.041;  -98.425; -646.000; -593.000
347.175;    8.250;  259.000;   27.000
347.309;  -53.825; -698.000; -628.000
347.442;  -82.475; -883.000; -732.000
347.576;  353.400;  670.000;  668.000
347.709;  286.675; -123.000;  -52.000
347.843;  -62.650; -933.000; -825.000
347.976;   48.975;  235.000;  294.000
348.110; -175.450;-1268.000;-1186.000
348.243; -100.275; -679.000; -772.000
348.377;   -4.825;  -26.000;   60.000
348.510;   57.750;  403.000;  540.000
348.644;  -34.500;  -37.000; -159.000
348.777;    2.625;  180.000;  191.000
348.911;  -42.900; -142.000; -112.000
349.044;  192.425;  471.000;  448.000
349.178;  249.050;-1069.000;-1006.000
349.311;  126.875;  141.000;  255.000
349.444;  -21.850; -927.000; -813.000
349.578;  -11.750; -347.000; -200.000
349.711;  -77.200; -959.000; -862.000
349.845;   37.550; -661.000; -591.000
349.978; -125.000;-1224.000;-1137.000
350.111;  -79.775; -546.000; -612.000
350.244;  -53.700; -596.000; -700.000
350.378;   27.200; -392.000; -393.000
350.511;  -60.425; -393.000; -426.000
350.644;  -81.800; -808.000; -806.000
350.778;    9.500;  168.000;  104.000
350.911;    6.925;  134.000;  140.000
351.044;  -89.200; -685.000; -615.000
351.177;  -30.775; -321.000; -281.000
351.310;   -0.325;    3.000; -131.000
351.444;  -45.400; -888.000; -788.000
351.577;  160.800;  140.000;   90.000
351.710;  117.300;  593.000;  417.000
351.843;  -34.275; -165.000;  -77.000
351.976;    8.425;  149.000;  -79.000
352.109;  -79.700; -621.000; -612.000
352.242;   -4.325; -464.000; -419.000
352.376;  -40.950; -580.000; -636.000
352.509;  272.500; -437.000; -356.000
352.642;   59.200; -654.000; -604.000
352.775;  100.200; -141.000;  -98.000
352.908; -114.475; -933.000; -904.000
353.041;  -91.725; -814.000; -824.000
353.174;  -40.075; -551.000; -424.000
353.307;  -66.700; -753.000; -764.000
353.440;   76.525;  541.000;  453.000
353.573; -100.250; -957.000;-1008.000
353.706;  -40.525; -384.000; -558.000
353.839;   -5.500; -264.000; -220.000
353.971;  -86.225; -657.000; -512.000
354.104;  -76.025; -896.000; -835.000
354.237;   -2.625; -627.000; -662.000
354.370;  -80.350; -846.000; -879.000
354.503; -174.550;-1231.000;-1308.000
354.636;  -32.075; -529.000; -348.000
354.769; -109.250; -937.000; -860.000
354.902;    2.225; -230.000; -139.000
355.034;  -29.575; -164.000; -220.000
355.167;   -9.950; -262.000; -162.000
355.300;  -86.000;-1061.000; -880.000
355.433;  869.650;  -71.000;  -14.000
355.565; 1327.150; -402.000; -384.000
355.698;  340.850; -356.000; -296.000
355.831;   13.100; -882.000; -801.000
355.964;  134.425; -285.000; -170.000
356.096;  -68.900; -856.000; -843.000
356.229;   35.075; -523.000; -530.000
356.362;  276.175; -373.000; -266.000
356.494;  517.775; -229.000; -162.000
356.627;  600.950;  269.000;  377.000
356.760;  611.675;  120.000;   53.000
356.892;  813.150; -286.000; -601.000
357.025;  831.150;  403.000;  389.000
357.157;  797.600; -167.000; -179.000
357.290;  550.275; -856.000; -713.000
357.423;  192.900; -667.000; -556.000
357.555;  162.000; -217.000; -228.000
357.688;  178.225; -483.000; -364.000
357.820;  582.475; -870.000; -877.000
357.953; 4494.575; -563.000; -589.000
358.085; 1066.100; -632.000; -612.000
358.218; 1706.250;-1131.000; -932.000
358.350;  301.175;  -58.000;  312.000
358.483; -112.825;-1300.000;-1187.000
358.615;   37.100;-1182.000;-1078.000
358.747;  -21.775;-1187.000;-1058.000
358.880;   76.125; -810.000; -744.000
359.012;   27.575; -376.000; -202.000
359.145;  -19.975; -480.000; -511.000
359.277;  108.375; -962.000; -913.000
359.409; 3736.725;  536.000;  231.000
359.542; 1014.100; -738.000; -688.000
359.674;   81.650;   46.000;   13.000
359.806;  -44.700; -565.000; -438.000
359.939;  -35.800; -617.000; -516.000
360.071;  -15.600; -583.000; -579.000
360.203;   -1.875; -411.000; -364.000
360.335;   60.225;  164.000;  -16.000
360.468;  236.450; -249.000; -307.000
360.600; 2930.425; -547.000; -454.000
360.732; 2468.475; -546.000; -423.000
360.864;  352.100;-1216.000;-1044.000
360.996;  415.175; -516.000; -554.000
361.129;   69.200; -389.000; -598.000
361.261;   32.100;  110.000; -113.000
361.393;  -18.750; -252.000; -214.000
361.525;   30.700;   94.000;  244.000
361.657;  -11.975; -821.000; -703.000
361.789;   26.000; -139.000; -155.000
361.921;  342.500; -642.000; -593.000
362.053;  346.900;  524.000;  541.000
362.185;   66.425;  288.000;   72.000
362.318;  -60.450; -709.000; -705.000
362.450;  162.000;  294.000;  444.000
362.582;  237.875; -913.000; -870.000
362.714;  -22.400; -353.000; -332.000
362.846;  -75.700; -606.000; -490.000
362.978; -133.975; -941.000; -811.000
363.109;   91.025; -161.000; -260.000
363.241;  599.700; -739.000; -749.000
363.373;  400.250; -649.000; -564.000
363.505;  548.425; -186.000;  -91.000
363.637;  150.250; -787.000; -601.000
363.769; -104.125;-1067.000;-1080.000
363.901;  -46.800; -596.000; -654.000
364.033; -111.650;-1103.000;-1062.000
364.165;   21.200; -283.000; -283.000
364.296;   76.800; -316.000; -177.000
364.428;   45.400;-1344.000;-1220.000
364.560;  -67.000; -679.000; -661.000
364.692;  -56.350; -738.000; -835.000
364.824;  407.375; -588.000; -456.000
364.955;  457.475; -402.000; -564.000
365.087;  720.950;-1097.000; -852.000
365.219;   16.800; -686.000; -816.000
365.351;  -66.975; -526.000; -572.000
365.482;   64.200;  300.000;  240.000
365.614;  -32.175; -402.000; -314.000
365.746;  -92.950; -729.000; -752.000
365.877;  -94.175; -706.000; -672.000
366.009;  226.275;  -35.000;  -62.000
366.141;  -98.225;-1249.000;-1134.000
366.272; -106.825; -803.000; -719.000
366.404; -112.425;-1005.000; -874.000
366.535;  -16.600; -139.000;  -12.000
366.667;  -99.250; -644.000; -649.000
366.799;   51.225;  353.000;  203.000
366.930;  -93.525; -862.000; -996.000
367.062;  110.925; -639.000; -613.000
367.193;  116.125; -872.000; -842.000
367.325;  -70.000; -580.000; -684.000
367.456;  119.625; -246.000;   31.000
367.588;  145.850; -371.000; -318.000
367.719;   36.300;  -44.000;  -45.000
367.851;   -7.875; -222.000; -241.000
367.982;  -12.625; -875.000; -732.000
368.113;  152.925; -475.000; -358.000
368.245;  -87.375; -960.000; -841.000
368.376;  -12.000; -254.000; -302.000
368.508;  -28.950; -188.000; -263.000
368.639; -124.175;-1166.000;-1034.000
368.770;    7.950; -670.000; -589.000
368.902;  -32.500; -836.000; -926.000
369.033;  -88.650; -906.000; -855.000
369.164;  -70.100; -720.000; -653.000
369.296; -104.125; -452.000; -601.000
369.427;   16.375; -209.000; -144.000
369.558;  -43.550; -593.000; -377.000
369.689;  -76.300; -721.000; -569.000
369.821; -127.300; -951.000; -845.000
369.952;  -17.725;   42.000; -108.000
370.083;  -46.925; -229.000; -108.000
370.214;  -70.725; -735.000; -650.000
370.345;   10.775;   65.000;   81.000
370.477;  -72.975; -810.000; -790.000
370.608;  333.675; -328.000; -264.000
370.739;   -3.650;-1233.000;-1292.000
370.870;   -1.100;-1102.000; -923.000
371.001;  134.725; -378.000; -467.000
371.132;  -72.375; -754.000; -735.000
371.263;   -4.675;  -42.000; -148.000
371.394; -146.950; -841.000; -748.000
371.525;   21.800;  345.000;  225.000
371.657;  -71.275; -808.000; -670.000
371.788;   98.550;  103.000;  199.000
371.919;  244.400; -384.000; -304.000
372.050; 4627.000;  -91.000; -156.000
372.181; 1417.800; -188.000; -294.000
372.311;  517.825;   42.000; -127.000
372.442;   71.725; -457.000; -451.000
372.573;   -7.625; -444.000; -340.000
372.704; -115.150;-1008.000; -980.000
372.835;  132.125; -228.000; -289.000
372.966;  -31.150; -646.000; -554.000
373.097;  -51.425; -575.000; -711.000
373.228;    0.775; -717.000; -542.000
373.359;  229.400; -824.000; -536.000
373.490; 1290.825; -881.000; -727.000
373.620; 1615.175;-1001.000; -803.000
373.751; 2426.650; -332.000; -396.000
373.882; 1084.750; -663.000; -733.000
374.013;  126.350; -449.000; -262.000
374.143;   -1.625; -581.000; -659.000
374.274;  -82.500; -987.000; -908.000
374.405;  247.975; -388.000; -276.000
374.536;  609.275; -526.000; -387.000
374.666; 1583.900; -759.000; -807.000
374.797;  345.075; -817.000; -868.000
374.928; 1210.375; -710.000; -560.000
375.058; 1234.675; -535.000; -500.000
375.189;  129.525;  -59.000;  -93.000
375.320;  -84.350; -928.000;-1034.000
375.450;  -21.775; -625.000; -616.000
375.581;  -49.050; -526.000; -436.000
375.712;  -25.800; -574.000; -250.000
375.842;  446.250; -438.000; -415.000
375.973;  317.825; -554.000; -513.000
376.103;   -0.225; -665.000; -648.000
376.234;  -65.100; -531.000; -552.000
376.364;   10.025; -944.000; -867.000
376.495;  395.350;  925.000;  529.000
376.625;   44.225; -472.000; -485.000
376.756;  128.425; -709.000; -678.000
376.886;  -38.500;-1178.000;-1026.000
377.017;   26.325;-1048.000;-1061.000
377.147;  268.425; -786.000; -782.000
377.278;   55.125;  174.000;  228.000
377.408; -110.775; -801.000; -815.000
377.538; -102.650; -707.000; -693.000
377.669;  -66.975; -537.000; -613.000
377.799;  -64.300; -645.000; -635.000
377.929;  -33.750; -610.000; -428.000
378.060; -115.000; -781.000; -847.000
378.190;  -52.200; -726.000; -531.000
378.320;  -53.250; -401.000; -406.000
378.451;  -12.400; -131.000;  -22.000
378.581;   11.150;  -67.000; -110.000
378.711;  178.050; 1035.000;  866.000
378.841;   10.175; -533.000; -675.000
378.972;  -41.450; -871.000; -751.000
379.102;   34.800; -652.000; -579.000
379.232;   -5.075; -126.000;  -73.000
379.362;  -75.875;-1001.000; -885.000
379.492;   49.000; -373.000; -424.000
379.623;  136.550;    0.000;  111.000
379.753;  -66.075;-1107.000; -974.000
379.883;  262.300;   59.000;  156.000
380.013;   57.975;-1081.000;-1017.000
380.143;  -75.725;-1097.000;-1056.000
380.273;  -85.725; -985.000; -861.000
380.403;   13.825; -344.000; -257.000
380.533;   -8.225; -651.000; -664.000
380.663;  102.575;  173.000;  128.000
380.793;  -79.875;-1027.000;-1074.000
380.923;   -5.975; -103.000;  -34.000
381.053;  -89.925; -613.000; -623.000
381.183;  -18.500; -106.000; -248.000
381.313;   86.625; -656.000; -470.000
381.443;   77.450; -692.000; -473.000
381.573;  323.875; -402.000; -409.000
381.703;  461.075;-1249.000;-1095.000
381.833; -105.075;-1454.000;-1336.000
381.963;  143.350; -134.000;  -87.000
382.093; 1786.175; -925.000; -909.000
382.223;  578.575; -713.000; -602.000
382.353;   31.175; -801.000; -608.000
382.482;  547.275;-1091.000; -964.000
382.612; 1029.375; -872.000; -644.000
382.742;  577.850; -695.000; -622.000
382.872;  396.050; -565.000; -551.000
383.002;   90.900;  347.000; -132.000
383.131;  -20.000; -226.000; -160.000
383.261;  -27.050; -706.000; -768.000
383.391;  303.575; -552.000; -377.000
383.521; 2701.250;  451.000;  263.000
383.650;  606.225; -947.000; -904.000
383.780;  -10.000; -783.000; -656.000
383.910;  120.575;  880.000;  802.000
384.039;   84.575; -794.000; -656.000
384.169;  345.575;-1205.000;-1017.000
384.299;    2.875; -650.000; -662.000
384.428;  -78.600; -764.000; -680.000
384.558;  -38.800; -308.000; -275.000
384.687;  -17.600; -414.000; -334.000
384.817;   32.025;   75.000;   -2.000
384.947;   40.375; -234.000; -141.000
385.076;  365.450;  982.000;  912.000
385.206;  130.850;  369.000;  480.000
385.335;  -19.100; -549.000; -417.000
385.465;  -63.125; -655.000; -663.000
385.594;  189.175;  -53.000;  -44.000
385.724;  644.050; -868.000; -838.000
385.853;  171.925; -296.000; -270.000
385.982; 1855.925; -743.000; -787.000
386.112; 2909.550;-1052.000; -871.000
386.241;  215.800; -307.000; -312.000
386.371;   28.450; -174.000;  -87.000
386.500;   30.800; -825.000; -789.000
386.629;   45.425; -874.000; -817.000
386.759;   65.800;  -43.000;   68.000
386.888;   13.650; -170.000; -250.000
387.017;  -56.500; -648.000; -620.000
387.147;  -80.850; -771.000; -798.000
387.276;   34.650; -410.000; -397.000
387.405;   45.925; -398.000; -342.000
387.535;  -18.200; -452.000; -361.000
387.664;  -53.225; -692.000; -620.000
387.793;   83.150; -198.000; -113.000
387.922;  698.450;  255.000;  200.000
388.052;   75.350; -576.000; -423.000
388.181;   61.825; -342.000; -472.000
388.310;   83.700; -889.000; -710.000
388.439;   -2.625; -749.000; -742.000
388.568;  257.325;  365.000;  244.000
388.697; 1454.750; -756.000; -653.000
388.826;  328.425; -768.000; -666.000
388.956;  106.950; -285.000; -307.000
389.085;   -8.350; -347.000; -287.000
389.214;  -91.675; -842.000; -872.000
389.343;  -40.625; -645.000; -413.000
389.472;  363.675;  126.000;  149.000
389.601;  533.675;   91.000;    0.000
389.730;   49.950; -568.000; -687.000
389.859;   78.300;  226.000;   46.000
389.988;  278.250; -423.000; -408.000
390.117;  199.125; -168.000; -146.000
390.246;   29.575; -331.000; -320.000
390.375;  186.275; -673.000; -626.000
390.504;  -36.875; -703.000; -621.000
390.633;  -76.600; -672.000; -726.000
390.761;  -45.950; -732.000; -645.000
390.890;   58.050;   -4.000; -130.000
391.019;   10.475; -421.000; -441.000
391.148; -117.525; -826.000; -855.000
391.277;  -62.975; -576.000; -493.000
391.406;  -55.675; -821.000; -805.000
391.534;   38.300;  574.000; -301.000
391.663;  -41.925; -583.000; -645.000
391.792;  -69.825; -673.000; -701.000
391.921;  177.425;   -3.000;   15.000
392.050;  315.000; -287.000; -228.000
392.178;   18.850;-1206.000;-1061.000
392.307;  227.725; -758.000; -712.000
392.436;  127.225; -427.000; -641.000
392.564;   29.725;  166.000;   -6.000
392.693;  -75.300; -860.000; -682.000
392.822;  306.525; -529.000; -534.000
392.950;  179.750; -880.000; -714.000
393.079;  467.675; -188.000; -328.000
393.208;   69.450; -488.000; -511.000
393.336;  -10.250; -170.000; -145.000
393.465;  -37.100; -317.000; -199.000
393.593;    0.925;   62.000;   79.000
393.722; -155.800;-1121.000; -916.000
393.850;  -33.725; -188.000;  -61.000
393.979; -148.900; -926.000; -805.000
394.107;  -66.475; -517.000; -537.000
394.236;   -5.925; -570.000; -507.000
394.364;  239.625;  383.000;  206.000
394.493;  407.275; -911.000; -767.000
394.621;   -5.650; -955.000; -916.000
394.750;  596.850; -873.000; -923.000
394.878; 2598.675; -247.000; -149.000
395.007; 3511.150; -721.000; -807.000
395.135;  261.750; -790.000; -721.000
395.263;  -68.450;-1038.000;-1040.000
395.392;    7.175;  -25.000; -107.000
395.520; -151.700; -818.000; -679.000
395.648;  -61.650; -865.000; -915.000
395.777;   13.100; -366.000; -405.000
395.905;  -42.525; -449.000; -564.000
396.033;   31.400;  217.000;  172.000
396.162;  708.450; -399.000; -453.000
396.290;  602.100;  -17.000;   -2.000
396.418;  181.075; -555.000; -514.000
396.546;  -59.875; -571.000; -466.000
396.674;  -87.325; -850.000; -878.000
396.803;   22.800;  -72.000;  -23.000
396.931;  145.375; -179.000; -199.000
397.059;  140.175;-1026.000; -989.000
397.187;  -89.425;-1026.000; -975.000
397.315; -132.975; -884.000; -649.000
397.443;  -94.925; -592.000; -443.000
397.572;  -95.500; -578.000; -424.000
397.700;   28.000; -607.000; -614.000
397.828;   35.325;  120.000;  -90.000
397.956;  -54.400; -508.000; -478.000
398.084;  -66.350; -767.000; -626.000
398.212;   49.525;  137.000;  124.000
398.340;   22.575;  -56.000;  159.000
398.468;   68.850; -390.000; -169.000
398.596; -121.400; -993.000; -953.000
398.724; -113.575; -762.000; -767.000
398.852; -165.825;-1024.000; -976.000
398.980;  -55.950; -560.000; -560.000
399.108;  -24.650; -982.000; -735.000
399.236;   53.975;   13.000;    8.000
399.363;   27.450;  222.000;  196.000
399.491;  -53.325; -404.000; -398.000
399.619; -120.300; -829.000; -800.000
399.747;  -87.100; -859.000; -771.000
399.875;   96.175;  220.000;  234.000
400.003;  -37.325; -359.000; -284.000
400.130;  -96.775; -421.000; -341.000
400.258;  -28.350;  -83.000;   38.000
400.386;  -75.650; -352.000; -168.000
400.514;  -18.175; -526.000; -587.000
400.641;  -62.475; -928.000; -802.000
400.769; -139.100; -979.000; -888.000
400.897;  -96.425; -838.000; -793.000
401.025;  -12.700; -166.000; -152.000
401.152;   -3.350;  220.000;   38.000
401.280;  -78.000; -430.000; -429.000
401.408; -104.350; -712.000; -576.000
401.535;  -98.250; -735.000; -758.000
401.663; -186.450;-1134.000;-1054.000
401.790;  -83.200; -514.000; -525.000
401.918;   29.300;  436.000;  405.000
402.046;  -21.650;  134.000;  122.000
402.173;  -27.125;  -18.000;    7.000
402.301;  -62.775; -519.000; -397.000
402.428;   34.700;  528.000;  383.000
402.556; -137.450;-1188.000; -913.000
402.683;  -29.775;  -20.000;   -1.000
402.811;  -28.375;  -37.000; -206.000
402.938;    3.000;   20.000;   27.000
403.066;  298.575; -574.000; -558.000
403.193;  448.950;  299.000;  239.000
403.321;  361.750; -396.000; -574.000
403.448;  444.100;   83.000;   27.000
403.575;  206.750;  -90.000;  -46.000
403.703;  -93.175; -732.000; -557.000
403.830;  -59.025; -531.000; -496.000
403.957; -132.625;-1117.000;-1023.000
404.085;   22.275;  -61.000; -172.000
404.212;  112.375;  -50.000;   63.000
404.339;  239.450; -566.000; -306.000
404.467; 4990.025; -612.000; -524.000
404.594; 3788.350; -287.000; -227.000
404.721; 1034.625; -869.000; -764.000
404.848;   95.300; -113.000; -202.000
404.976;  -87.750; -856.000; -783.000
405.103;    1.375;  -14.000;  -82.000
405.230;   -3.625;  190.000;  226.000
405.357;   27.575;  117.000;   44.000
405.484;  231.575;  -49.000;    5.000
405.612;   36.175; -548.000; -563.000
405.739;  -64.225; -488.000; -243.000
405.866;   94.550;  669.000;  385.000
405.993;  -42.850; -398.000; -102.000
406.120; -123.600; -801.000; -887.000
406.247;  -42.650; -323.000; -342.000
406.374;  594.400;  540.000;  629.000
406.501;  215.400; -632.000; -702.000
406.628;  -58.225; -621.000; -589.000
406.755;  -89.400; -803.000; -620.000
406.882;  -42.950; -228.000; -277.000
407.009; -121.575; -719.000; -628.000
407.136;   79.325; -480.000; -401.000
407.263;  251.825; -939.000; -829.000
407.390;  -59.775; -692.000; -614.000
407.517; -169.550;-1139.000;-1187.000
407.644;  -34.975; -332.000; -256.000
407.771; -140.975; -249.000; -287.000
407.898;   12.950;  168.000;  328.000
408.025;  -52.600; -421.000; -313.000
408.151;   -7.025;   82.000;  153.000
408.278;  -70.325; -267.000; -216.000
408.405; -111.750; -931.000; -899.000
408.532;  -59.875; -549.000; -542.000
408.659; -115.925; -677.000; -648.000
408.785; -208.350;-1298.000;-1170.000
408.912;  -73.075; -412.000; -296.000
409.039; -112.075; -610.000; -686.000
409.166; -105.600; -591.000; -555.000
409.292; -116.225; -571.000; -534.000
409.419; -127.325; -665.000; -649.000
409.546;  -79.225; -431.000; -192.000
409.672; -121.600; -713.000; -545.000
409.799;  -11.475;  -36.000;   34.000
409.926;  -35.775; -180.000; -179.000
410.052; -173.850;-1127.000;-1091.000
410.179;  -55.500; -368.000; -392.000
410.305;  -97.950; -375.000; -493.000
410.432;  -34.700; -220.000; -333.000
410.558; -100.125; -305.000; -380.000
410.685; -108.350; -688.000; -431.000
410.812;  -98.400; -409.000; -588.000
410.938; -141.600; -964.000; -808.000
411.065;  -90.750; -671.000; -645.000
411.191;  -13.650; -189.000; -174.000
411.317; -108.275; -823.000; -742.000
411.444;  -64.750; -317.000; -246.000
411.570;  -76.625; -339.000; -294.000
411.697; -122.100; -758.000; -752.000
411.823; -179.925; -989.000; -999.000
411.949;  -32.000;  -56.000;   17.000
412.076; -111.525; -539.000; -519.000
412.202; -107.500; -758.000; -757.000
412.329; -119.250; -798.000; -752.000
412.455; -105.575; -821.000; -657.000
412.581;  -26.475;  -15.000;  172.000
412.707;  -49.250; -540.000; -457.000
412.834;   15.375;  156.000;  219.000
412.960;  -81.075; -785.000; -784.000
413.086;  -99.150; -743.000; -701.000
413.212;  192.100;  604.000;  578.000
413.339;  -43.750; -685.000; -701.000
413.465;   43.250; -364.000; -310.000
413.591;  -75.625; -757.000; -474.000
413.717;  -53.375; -358.000; -366.000
413.843; -145.825; -839.000; -861.000
413.969;  -55.600;  -47.000; -292.000
414.096;  -89.450; -679.000; -679.000
414.222;  -14.850;  -33.000;   85.000
414.348;    4.750; -652.000; -385.000
414.474;  144.825;   38.000;  -52.000
414.600;  -13.100; -126.000; -144.000
414.726;  -11.825;  -96.000;  -55.000
414.852;  -70.200; -365.000; -342.000
414.978;   32.875;  104.000;  -18.000
415.104;   53.775;   38.000;   80.000
415.230;   22.450; -329.000; -330.000
415.356;   35.050; -409.000; -514.000
415.482;  195.850;   13.000;  -35.000
415.608;  254.725; -247.000; -323.000
415.734;  893.100;   67.000;   38.000
415.860;18234.025; -875.000; -767.000
415.986;13528.175; -685.000; -607.000
416.111; 1145.600; -798.000; -652.000
416.237;  238.150; -424.000; -571.000
416.363;  947.750; -765.000; -733.000
416.489; 3672.725; -324.000; -251.000
416.615;  377.050; -707.000; -742.000
416.741;  -33.875; -677.000; -784.000
416.866;  -87.150; -673.000; -736.000
416.992; -124.175; -801.000; -818.000
417.118;  -25.375;  -41.000;  -80.000
417.244;  -47.775; -798.000; -531.000
417.369;  -77.675; -801.000; -612.000
417.495;    0.375; -325.000; -254.000
417.621;  -71.450;-1015.000; -803.000
417.746;    7.925; -579.000; -572.000
417.872;   43.975; -254.000; -144.000
417.998;   47.450; -515.000; -530.000
418.123;  900.700;-1073.000; -845.000
418.249; 4786.325; -512.000; -601.000
418.374;  638.650; -916.000; -824.000
418.500;   92.150; -383.000; -482.000
418.626;  114.450;   70.000;  -59.000
418.751;  107.350; -549.000; -448.000
418.877;  178.475; -637.000; -643.000
419.002; 1564.525; -688.000; -560.000
419.128;11063.350; -930.000; -721.000
419.253; 2717.725; -967.000; -837.000
419.379;  346.275; -391.000; -338.000
419.504;  369.375;  325.000;  415.000
419.629;  451.550; -393.000; -212.000
419.755; 2989.225; -317.000; -254.000
419.880;17963.075;  -98.000;   67.000
420.006;10044.275; -280.000; -221.000
420.131;26480.425; -662.000; -775.000
420.256; 3908.450; -315.000; -316.000
420.382;  514.150; -665.000; -687.000
420.507;   69.300; -649.000; -778.000
420.632;  214.775; -337.000; -339.000
420.758;  381.600; -251.000; -425.000
420.883;  -64.900; -876.000; -672.000
421.008;  -87.000; -775.000; -619.000
421.133;  -75.475; -509.000; -467.000
421.259;  -40.100; -325.000; -259.000
421.384; -103.200; -834.000; -693.000
421.509;  -11.000;-1052.000; -862.000
421.634; 1740.850; -936.000; -820.000
421.759;  767.425; -359.000; -327.000
421.885;  -31.075; -717.000; -656.000
422.010;  -80.650; -673.000; -542.000
422.135; -146.925; -695.000; -727.000
422.260;   50.375;  340.000;  280.000
422.385;  -45.100;   12.000;  -98.000
422.510;   -2.050;  151.000;  -26.000
422.635;   28.075;  -87.000;  -43.000
422.760;  122.125; -766.000; -791.000
422.885;   72.075;  -57.000;  -80.000
423.010;  -38.625; -112.000; -169.000
423.135;  -93.850; -481.000; -561.000
423.260;    6.775; -150.000; -245.000
423.385;   90.300;  476.000;  222.000
423.510;   44.250;   71.000;  -22.000
423.635;   96.175;  133.000;   45.000
423.760;   54.875;  383.000;  328.000
423.885;   49.750;  336.000;  391.000
424.010;   12.750;  -68.000;  -13.000
424.135;  -14.525;    5.000;  -33.000
424.259; -100.075; -654.000; -457.000
424.384;  -67.975; -279.000; -272.000
424.509;  -25.775; -260.000; -186.000
424.634; -108.100; -761.000; -623.000
424.759;  -17.900; -688.000; -544.000
424.883;  -18.825; -506.000; -527.000
425.008;  163.450; -502.000; -410.000
425.133; 1825.125; -679.000; -653.000
425.258;  859.875; -517.000; -381.000
425.382; 1285.725; -867.000; -774.000
425.507; 3379.675; -487.000; -543.000
425.632;  523.600; -802.000; -663.000
425.756;  405.750; -256.000; -146.000
425.881; 5313.550; -831.000; -857.000
426.006;14481.900; -604.000; -355.000
426.130; 2428.000; -696.000; -508.000
426.255;  295.250; -611.000; -491.000
426.379;  142.375; -189.000; -577.000
426.504;  358.875;  660.000;  544.000
426.629; 3689.675; -519.000; -466.000
426.753; 2608.575;   64.000;  -46.000
426.878;  290.125; -252.000; -288.000
427.002;  128.325; -651.000; -668.000
427.127; 1463.550;  -35.000; -158.000
427.251;10081.800;  372.000;  401.000
427.375; 2979.750; -191.000; -173.000
427.500; 2868.625; -616.000; -610.000
427.624; 1022.975; -234.000; -400.000
427.749;  124.550; -216.000; -225.000
427.873;  -24.650; -499.000; -412.000
427.997;  -29.650; -222.000; -230.000
428.122;   88.850;  795.000;  703.000
428.246;   91.650;  433.000;  434.000
428.371; -115.750; -869.000; -773.000
428.495;  -98.425; -624.000; -646.000
428.619;  -19.650; -186.000; -117.000
428.743;   40.800;   65.000;  132.000
428.868;   59.375; -732.000; -643.000
428.992; 1873.950; -219.000; -326.000
429.116;  789.450; -329.000; -357.000
429.240;  374.925;  419.000;  426.000
429.365;    1.050; -454.000; -574.000
429.489;  -23.350; -638.000; -647.000
429.613;   29.925; -236.000; -177.000
429.737;   44.700; -563.000; -432.000
429.861;  249.000; -247.000; -133.000
429.985; 4997.375; -425.000; -305.000
430.109; 5509.200; -770.000; -908.000
430.234;  651.375;   76.000;  -50.000
430.358;   60.100; -250.000; -160.000
430.482;  -67.600; -672.000; -564.000
430.606;  -76.200; -655.000; -375.000
430.730;   30.875; -437.000; -388.000
430.854;  236.725; -909.000; -835.000
430.978;  -50.300; -795.000; -764.000
431.102;  -81.225; -499.000; -422.000
431.226; -113.925; -874.000; -815.000
431.350;   32.075;  345.000;  422.000
431.474;  -67.200; -661.000; -373.000
431.597; -140.875;-1060.000; -848.000
431.721;  -82.050; -276.000; -267.000
431.845; -139.025; -704.000; -472.000
431.969;  -88.400; -304.000; -349.000
432.093;  -97.775; -395.000; -317.000
432.217;  -26.950;   32.000;   82.000
432.341;  -81.125; -523.000; -518.000
432.464;    7.550;   96.000;   40.000
432.588;  321.025; -401.000; -329.000
432.712;  152.150;  -52.000;  -52.000
432.836;   41.275;  213.000;  263.000
432.959;  -37.875; -372.000; -311.000
433.083;   58.650;   11.000;    2.000
433.207;  323.100;  285.000;  930.000
433.330; 4372.800; -391.000; -200.000
433.454; 5510.775; -654.000; -638.000
433.578; 3146.250;  583.000;  278.000
433.701;  615.750; -623.000; -675.000
433.825;  211.075; -292.000; -299.000
433.949;  294.150;   28.000;  -72.000
434.072;  139.250; -410.000; -323.000
434.196;   -1.625; -309.000; -117.000
434.319; 3650.025;25482.000;25124.000
434.443;  731.775; -656.000; -603.000
434.566; 2410.550;  281.000;   62.000
434.690;  388.325; -637.000; -383.000
434.813;   47.700; -251.000; -173.000
434.937;  -88.175; -569.000; -696.000
435.060;  -19.100; -423.000; -332.000
435.184;  526.375; -492.000; -217.000
435.307;  283.650;  159.000;  102.000
435.431;    0.425;  -40.000;   24.000
435.554;  -73.600; -399.000; -240.000
435.677;  -84.700; -350.000; -258.000
435.801;  -55.625;  -25.000;   49.000
435.924;   11.375;    1.000;  -67.000
436.048;  -79.850;-1019.000; -732.000
436.171;  -63.225; -240.000;  -66.000
436.294;  -33.125; -248.000; -229.000
436.417;   64.400; -963.000; -849.000
436.541;  -96.875; -814.000; -840.000
436.664;  -50.350; -242.000; -316.000
436.787;  -26.525;   13.000;  113.000
436.910; -108.000; -792.000; -422.000
437.034;   28.850;  142.000;  143.000
437.157;   98.325;  -11.000;    0.000
437.280;  -18.100; -392.000; -292.000
437.403;  -36.300; -982.000; -869.000
437.526; 1011.700; -903.000; -865.000
437.649; 3482.575; -505.000; -332.000
437.772;  577.250; -692.000; -540.000
437.896;  161.775;  700.000;  544.000
438.019;  -82.250; -758.000; -503.000
438.142;  -83.625; -596.000; -506.000
438.265;   30.000; -639.000; -670.000
438.388;  845.200; -520.000; -410.000
438.511;  192.775; -597.000; -394.000
438.634;  -28.125; -247.000; -125.000
438.757; -123.325; -693.000; -619.000
438.880;  -13.500;  -34.000;  -57.000
439.003;  -72.525; -417.000; -437.000
439.126;  -54.700; -287.000; -167.000
439.248;  -68.725;  -98.000; -139.000
439.371;  -43.575;    9.000;  -53.000
439.494;   24.250;  510.000;  439.000
439.617;  -51.125;   65.000;  -88.000
439.740; -176.075; -968.000; -816.000
439.863; -152.300; -755.000; -595.000
439.986; -125.225; -476.000; -431.000
440.108;  -44.400; -161.000; -112.000
440.231; -154.100; -950.000; -836.000
440.354;  -37.475;  -64.000; -150.000
440.477;  103.825; -566.000; -542.000
440.599;   27.725; -200.000; -225.000
440.722; -127.000; -709.000; -586.000
440.845;   66.725;  751.000;  928.000
440.968; -118.050; -415.000; -311.000
441.090;  -64.650; -199.000;  -33.000
441.213; -167.375;-1021.000; -825.000
441.336;  -46.425; -159.000;   -5.000
441.458;  -63.050; -549.000; -396.000
441.581;  -59.025; -628.000; -629.000
441.703;  -78.625; -152.000;   13.000
441.826; -112.225; -557.000; -400.000
441.948;  -51.750;   56.000;   51.000
442.071;   15.650;  555.000;  424.000
442.193; -117.475; -531.000; -485.000
442.316;   24.500;  152.000;   97.000
442.438;   48.825; -233.000;  -10.000
442.561;   90.350;  272.000;  262.000
442.683;  837.075; -809.000; -522.000
442.806; 1759.825;   -8.000;   74.000
442.928;  103.675; -859.000; -604.000
443.051;  -46.800; -577.000; -373.000
443.173;  -97.450; -341.000; -339.000
443.295;  -84.425; -263.000; -371.000
443.418;  -67.200; -321.000;  -29.000
443.540;   11.500; -106.000;   -4.000
443.662; -115.100; -563.000; -465.000
443.785;  -14.900;  335.000;  199.000
443.907;  -88.425; -362.000; -208.000
444.029; -135.825; -767.000; -494.000
444.152; -152.875; -644.000; -554.000
444.274;  -27.250;  -18.000;  -24.000
444.396; -102.575; -461.000; -221.000
444.518; -133.575; -691.000; -454.000
444.640; -101.750; -268.000; -111.000
444.763;  -18.975;  388.000;  249.000
444.885; -105.025; -432.000; -392.000
445.007;  -40.300;   35.000;   86.000
445.129; -126.350; -610.000; -515.000
445.251;  -83.325; -372.000; -439.000
445.373; -151.000; -537.000; -386.000
445.495;    0.400;  242.000;  350.000
445.617;   62.800;  853.000;  753.000
445.739;  -63.775; -215.000;  -97.000
445.861;  -26.100; -245.000; -112.000
445.984;  -35.800; -267.000; -101.000
446.105;  310.825; -418.000; -251.000
446.227;  868.950; -176.000;  -19.000
446.349;   52.600; -358.000; -249.000
446.471;  -90.000; -615.000; -448.000
446.593;  -52.250; -316.000;   19.000
446.715;    6.475;  -67.000;   41.000
446.837;   62.500;  697.000;  832.000
446.959; -103.125; -457.000; -478.000
447.081; -149.925; -628.000; -518.000
447.203;   39.600;  862.000;  834.000
447.325;  -94.025; -270.000;   42.000
447.446;  -14.550;  286.000;  530.000
447.568; -147.725; -921.000; -803.000
447.690;  -77.350; -236.000; -245.000
447.812; -144.450; -798.000; -519.000
447.933;  -46.750;  155.000;  127.000
448.055;  -69.275; -306.000; -261.000
448.177;  197.700;   31.000;   79.000
448.299;  176.000; -935.000; -727.000
448.420;   43.525;  -25.000;  159.000
448.542;  -45.075;   -3.000;   33.000
448.664;  -17.700;  109.000;  322.000
448.785;  -43.325;  265.000;   83.000
448.907;  -85.050; -614.000; -353.000
449.028;   -5.425; -771.000; -471.000
449.150;   71.975;  492.000;  589.000
449.272; -192.825;-1044.000; -913.000
449.393;   31.325;  612.000;  694.000
449.515; -154.375; -634.000; -581.000
449.636;  -62.375; -264.000; -155.000
449.758;   83.675;  763.000;  622.000
449.879; -103.150; -498.000; -396.000
450.001;  -82.975; -149.000;  -49.000
450.122;  -32.875;  -95.000;  162.000
450.244;  -26.550;   37.000;  364.000
450.365; -101.375; -495.000; -301.000
450.486;  -56.925;   80.000;  268.000
450.608;   21.525;  393.000;  326.000
450.729;   45.000;  578.000;  645.000
450.850;  -25.300; -574.000; -466.000
450.972;  600.825; -552.000; -389.000
451.093; 4106.450;  190.000;  588.000
451.214; 1813.050; -516.000; -337.000
451.336;  339.250;  773.000;  579.000
451.457;   41.375;  264.000;  393.000
451.578;  -52.725; -118.000;  -74.000
451.699; -122.450; -546.000; -540.000
451.821;  -83.700; -284.000;  -50.000
451.942;  -18.250;  278.000;  285.000
452.063;   22.650;  228.000;  419.000
452.184;  469.575;  -54.000;  -49.000
452.305;  969.350;  103.000;  170.000
452.427;   92.125; -549.000; -301.000
452.548;  -10.275;   23.000;   79.000
452.669;  -46.175; -257.000;  -89.000
452.790;  -27.750;    3.000;  -18.000
452.911;  -11.375;  195.000;  259.000
453.032;  -53.150; -289.000;  -60.000
453.153;  -38.275;  -29.000;   81.000
453.274;   52.225;  737.000;  868.000
453.395;  -39.500;  -51.000;  175.000
453.516;  120.925; 1317.000; 1388.000
453.637;  -49.925; -205.000; -150.000
453.758;  -58.250;   15.000;   69.000
453.879; -132.175; -462.000; -250.000
454.000;   71.825; 1086.000;  948.000
454.121; -110.750; -554.000; -326.000
454.242; -125.375; -599.000; -383.000
454.362;  -57.775;  -99.000;  114.000
454.483;  -46.275; -309.000; -229.000
454.604;   53.150;  512.000;  580.000
454.725; -119.350; -627.000; -555.000
454.846; -128.950; -474.000; -406.000
454.967;  -14.350;  230.000;  539.000
455.087;  -50.150;  179.000;  153.000
455.208;    3.550;  554.000;  856.000
455.329;  -65.350;  -22.000;   82.000
455.450;   26.225;  473.000;  633.000
455.570;  -84.625; -234.000; -211.000
455.691;  -53.625;  201.000;  407.000
455.812; -109.600; -270.000;  -92.000
455.932;  -74.500;  107.000;  -97.000
456.053;  -84.225;   36.000;   24.000
456.173; -118.400; -433.000; -355.000
456.294; -129.225; -476.000; -303.000
456.415;  -67.850;  -73.000;   70.000
456.535;  -59.775;  297.000;  273.000
456.656;  -41.550;  132.000;  240.000
456.776;  -66.025;    3.000;  298.000
456.897;   -8.950;  308.000;  513.000
457.017;  -96.625; -153.000;   -3.000
457.138; -107.625; -402.000; -249.000
457.258;  -27.150;  263.000;  224.000
457.379;  -12.725;  509.000;  521.000
457.499;  -25.800;  443.000;  432.000
457.620; -126.550; -407.000; -231.000
457.740;  -97.625; -132.000;  -11.000
457.860;  -62.900;   87.000;   44.000
457.981;  -48.025;  132.000;  124.000
458.101;  -78.025;  -89.000;   40.000
458.221;  -21.450;  336.000;  402.000
458.342;  -65.025;   -4.000;  -37.000
458.462;    7.100;  617.000;  352.000
458.582;  -56.025; -302.000; -294.000
458.703;   -0.375;  303.000;  154.000
458.823;  -48.750;   22.000;  163.000
458.943;   12.700;  341.000;  467.000
459.063;  -20.975; 1124.000;  192.000
459.183;  -32.200;  328.000;  313.000
459.304;    1.075;  315.000;  517.000
459.424;  -72.750; -246.000;  -89.000
459.544;  293.325;  388.000;  764.000
459.664;  716.200;  499.000;  506.000
459.784;  281.750; 1004.000; 1175.000
459.904;   44.325;  867.000;  744.000
460.024;   74.350;  867.000;  684.000
460.144;   22.600;  449.000;  554.000
460.264;   -4.200;  515.000;  327.000
460.385;  -89.675; -145.000; -119.000
460.505;   15.650;  905.000;  858.000
460.625; -112.150;  -17.000;  -68.000
460.745;  -32.450;  396.000;  541.000
460.864;  -50.075;  153.000;  469.000
460.984;    8.750;  499.000;  573.000
461.104;  138.200; 1656.000; 1775.000
461.224;   12.075;  657.000;  650.000
461.344;  -27.975;  431.000;  360.000
461.464;  -36.800;  258.000;  513.000
461.584;   -8.700;  283.000;  466.000
461.704;  -28.900;   58.000;  108.000
461.824;  -60.075;  238.000;  259.000
461.943;  -43.075;  191.000;  130.000
462.063;  -78.200;    2.000;  324.000
462.183;   42.225;  639.000;  717.000
462.303;  103.100; 1678.000; 1230.000
462.422;   25.600;  781.000;  840.000
462.542;  -51.625;  271.000;  391.000
462.662;   43.600;  353.000;  380.000
462.782;  227.425;  833.000;  572.000
462.901;  428.675;  545.000;  717.000
463.021;  267.600; 1702.000; 1638.000
463.141;  -29.150;  337.000;  770.000
463.260;  -11.325;  614.000;  474.000
463.380;    9.875;  902.000;  884.000
463.499;  -53.800;  342.000;  332.000
463.619;  -34.800;  581.000;  559.000
463.738;  106.125; 1644.000;  903.000
463.858;   11.500;  657.000;  811.000
463.978;  -40.600;  542.000;  396.000
464.097;   43.750;  921.000; 1114.000
464.217;   98.600; 1196.000; 1143.000
464.336;   96.975; 1068.000; 1130.000
464.455;  -35.100;  328.000;  659.000
464.575;   45.275;  597.000;  602.000
464.694;  187.525; 1204.000; 1179.000
464.814;  123.750; 1190.000; 1138.000
464.933;   63.300; 1095.000; 1027.000
465.052;  112.500; 1412.000; 1054.000
465.172;   93.125;  922.000;  799.000
465.291;  139.700; 1376.000; 1320.000
465.410;   19.800;  462.000;  735.000
465.530;   83.750; 1355.000; 1310.000
465.649;   75.075; 1209.000; 1273.000
465.768;  142.925; 1673.000; 1508.000
465.888;   61.525;  941.000; 1174.000
466.007;   91.375; 1335.000; 1440.000
466.126;    4.575;  721.000;  641.000
466.245;   38.575; 1176.000; 1187.000
466.364;   19.175;  950.000; 1060.000
466.484;   62.850; 1024.000; 1213.000
466.603;   38.675; 1101.000; 1222.000
466.722;  114.725; 1490.000; 1769.000
466.841;   77.375; 1151.000; 1401.000
466.960;   35.475; 1069.000;  972.000
467.079;  120.425; 1971.000; 1786.000
467.198;   41.575; 1238.000; 1181.000
467.317;   90.575; 1768.000; 1162.000
467.436;   83.700; 1709.000; 1261.000
467.555;  119.200; 1796.000; 1746.000
467.674;   74.375; 1227.000; 1329.000
467.793;   49.850; 1376.000; 1374.000
467.912;   79.300; 1658.000; 1539.000
468.031;  147.625; 2038.000; 1930.000
468.150;  154.025; 1842.000; 1837.000
468.269;  203.350; 2313.000; 2090.000
468.388;  178.825; 2168.000; 2339.000
468.507;  244.300; 2884.000; 2903.000
468.626;  224.600; 2555.000; 2541.000
468.744;  127.625; 2018.000; 2174.000
468.863;  204.400; 2312.000; 2523.000
468.982;   83.875; 1503.000; 1555.000
469.101;  202.225; 2788.000; 2692.000
469.220;  144.075; 2333.000; 2176.000
469.338;  264.150; 2935.000; 3051.000
469.457;  196.750; 2719.000; 2545.000
469.576;  340.950; 3953.000; 3784.000
469.695;  230.425; 2877.000; 3066.000
469.813;  422.550; 4148.000; 4192.000
469.932;  424.175; 4255.000; 4485.000
470.051;  428.425; 4075.000; 4161.000
470.169;  795.450; 4470.000; 4338.000
470.288; 1356.100; 4700.000; 4809.000
470.406;  838.825; 5059.000; 5194.000
470.525;  603.500; 6101.000; 5787.000
470.644;  625.925; 6847.000; 6794.000
470.762;  829.325; 8397.000; 7873.000
470.881;  912.875; 8651.000; 8464.000
470.999; 1021.150; 9685.000; 9151.000
471.118; 1106.250;11174.000;10711.000

