
Integration time [ms]: 100.000
Averaging Nr. [scans]: 40
Smoothing Nr. [pixels]: 0
Data measured with spectrometer [name]: 2101012U2
Wave   ;Sample   ;Dark     ;Reference
[nm]   ;[counts] ;[counts] ;[counts] 

197.733;   68.625;  516.000;  404.000
197.879;  -86.425; -610.000; -634.000
198.025;  -39.125; -475.000; -420.000
198.171;  -75.825; -602.000; -612.000
198.317;  -21.550; -401.000; -316.000
198.463;  -56.125; -655.000; -404.000
198.609;   29.825;  181.000; -137.000
198.755;  -84.650; -644.000; -410.000
198.901;  -52.475; -505.000; -424.000
199.047;  -61.800; -615.000; -488.000
199.193;  -29.025; -230.000; -468.000
199.339;  -55.600; -222.000; -369.000
199.485;   39.500;  330.000;  271.000
199.631;    9.725;  227.000;  310.000
199.777;  -34.950; -466.000; -398.000
199.923;  -71.300; -610.000; -424.000
200.069;    3.075; -141.000;  -58.000
200.215;   63.750;  128.000;  453.000
200.361;   44.700;  243.000;  477.000
200.507;  -57.550; -600.000; -373.000
200.653;  -20.125; -371.000; -194.000
200.798;  -31.300; -215.000; -125.000
200.944;    8.775; -146.000;  -41.000
201.090;   32.325;   61.000;  222.000
201.236;    3.825; -116.000; -158.000
201.382;  119.750;  874.000;  903.000
201.528;    2.325;  -58.000;  -48.000
201.674;  -43.000; -386.000; -293.000
201.819;  -66.750; -540.000; -439.000
201.965;  -79.100; -699.000; -447.000
202.111;  -19.350; -273.000; -226.000
202.257;  -40.225; -250.000; -238.000
202.402;    9.425;   13.000;  -36.000
202.548;  -26.375; -169.000; -116.000
202.694;   78.900;  410.000; -183.000
202.840;  -75.600; -603.000; -531.000
202.985;  -58.000; -681.000; -639.000
203.131;  -96.750; -832.000; -666.000
203.277;  -20.750; -199.000; -262.000
203.423;  -51.900; -434.000; -520.000
203.568;  -31.850; -462.000; -237.000
203.714;  -67.775; -535.000; -542.000
203.860;  -65.325; -682.000; -641.000
204.005;   -0.950;  112.000;  167.000
204.151;   80.725;  561.000;  556.000
204.296;  -47.400; -354.000; -221.000
204.442;  -65.475; -600.000; -547.000
204.588;  -71.575; -592.000; -579.000
204.733;   32.650;  178.000;  168.000
204.879; -128.725;-1018.000; -822.000
205.025;    4.350;  -99.000;  126.000
205.170;  -12.025;  -17.000;   94.000
205.316;   85.250;  438.000;  661.000
205.461;  -91.725; -698.000; -554.000
205.607;   93.425;  609.000;  665.000
205.752;  -77.075; -626.000; -551.000
205.898;  -47.375; -501.000; -391.000
206.043;  -69.175; -578.000; -506.000
206.189;  -40.875; -243.000; -285.000
206.334;   61.750;  554.000;  606.000
206.480;  103.150;  409.000;  239.000
206.625;  -72.700; -529.000; -552.000
206.771;  -37.050; -451.000; -373.000
206.916;  -36.125; -210.000; -537.000
207.062;  -59.125; -545.000; -591.000
207.207;  -74.550; -546.000; -443.000
207.353;   69.750;  185.000;  460.000
207.498;    1.325;  196.000;   85.000
207.643;  -47.775; -501.000; -370.000
207.789; -133.650;-1069.000; -910.000
207.934;  -84.550; -665.000; -713.000
208.080;  -33.750; -154.000;   66.000
208.225;   -8.625;  -22.000;  -57.000
208.370;  -95.325; -727.000; -619.000
208.516;  -76.875; -741.000; -487.000
208.661;  -34.275; -127.000;  -69.000
208.806;  -20.000; -165.000; -171.000
208.952; -122.925;-1044.000; -731.000
209.097;   83.500;  378.000;  349.000
209.242;  -36.350; -307.000; -382.000
209.387;   64.950;  392.000;  350.000
209.533;  -50.825; -321.000; -350.000
209.678;   82.575;  472.000;  543.000
209.823;  -58.425; -408.000; -310.000
209.969;  -98.000; -860.000; -757.000
210.114; -106.725; -907.000; -719.000
210.259; -101.975; -939.000; -889.000
210.404;   -7.300; -171.000;  103.000
210.549;    5.975;  108.000;    3.000
210.695;   -7.800;   -3.000;  -95.000
210.840;   31.975;   94.000;   67.000
210.985;  -58.500; -484.000; -303.000
211.130;   64.125;  268.000;  406.000
211.275;   23.675;  207.000;  199.000
211.420;  -50.375; -300.000; -289.000
211.566;  -74.425; -536.000; -489.000
211.711;   18.425;  218.000;  157.000
211.856;  -54.000; -545.000; -519.000
212.001;   15.525;  151.000;   44.000
212.146;   24.400;  153.000;   49.000
212.291;  -25.875; -210.000; -186.000
212.436;  -16.150; -280.000;   -6.000
212.581;  -82.575; -685.000; -653.000
212.726;  -63.525; -487.000; -538.000
212.871;  -41.175; -552.000; -217.000
213.016; -139.025;-1172.000;-1029.000
213.161;   62.625;  406.000;  291.000
213.306;  -69.350; -435.000; -577.000
213.451;  -88.750; -778.000; -689.000
213.596;  -62.000; -455.000; -347.000
213.741;  -49.500; -448.000; -538.000
213.886;  -75.525; -498.000; -517.000
214.031;  -26.325; -294.000; -124.000
214.176;  -56.475; -408.000; -341.000
214.321;  -13.475; -296.000; -157.000
214.466;  -32.350; -163.000;  -43.000
214.611;    3.025;  -61.000;  -10.000
214.756; -117.550; -948.000; -858.000
214.901;  -18.850; -388.000; -226.000
215.046; -117.525; -797.000; -825.000
215.191;   13.650;  128.000;   35.000
215.336;  -23.575; -157.000;  -19.000
215.480;  -49.925; -684.000; -505.000
215.625;  -17.775; -175.000;  -19.000
215.770;  -88.125; -757.000; -662.000
215.915;    2.100;   -5.000;  -97.000
216.060;    1.675; -113.000;  -21.000
216.205; -121.500; -731.000; -779.000
216.349;  -64.350; -470.000; -533.000
216.494; -132.375; -939.000; -867.000
216.639; -113.425; -823.000; -888.000
216.784;  -96.575; -577.000; -525.000
216.929;   59.900;  392.000;  281.000
217.073;  -26.525; -244.000;  -31.000
217.218;    6.125;   78.000;  -47.000
217.363;  -93.325; -656.000; -618.000
217.507;  -70.650; -623.000; -588.000
217.652; -138.375; -845.000; -874.000
217.797;  -93.950; -708.000; -659.000
217.942; -105.225; -856.000; -720.000
218.086;   71.450;  608.000;  539.000
218.231;  -35.300; -174.000;  -26.000
218.376;  -29.300; -337.000; -229.000
218.520;   -0.025;  -41.000;   96.000
218.665;  -23.250; -338.000; -204.000
218.810;  -44.625; -275.000; -233.000
218.954;   34.100;  201.000;   35.000
219.099; -108.925; -713.000; -963.000
219.243;  -48.550; -589.000; -554.000
219.388;  -32.475; -264.000; -136.000
219.532;   -1.200; -116.000; -116.000
219.677;  -75.500; -564.000; -521.000
219.822;    0.025;   33.000;   89.000
219.966;  -14.025;   17.000;  -99.000
220.111;  -31.625; -328.000;  -40.000
220.255; -102.600; -797.000; -750.000
220.400;  -14.700; -180.000; -146.000
220.544;  -67.725; -516.000; -450.000
220.689;  -59.025; -422.000; -451.000
220.833;  -29.900; -123.000;  -58.000
220.978;  -45.025; -393.000; -563.000
221.122;   12.625;  319.000;  307.000
221.267; -125.325; -906.000; -837.000
221.411;  -73.550; -478.000; -394.000
221.555;    3.375; -104.000;  -23.000
221.700;  -45.475; -329.000; -222.000
221.844;   36.000;  255.000;  272.000
221.989;  -45.425; -328.000; -311.000
222.133;  -29.625; -289.000; -307.000
222.277;  -18.325;    5.000;   78.000
222.422;   10.725;  227.000;  113.000
222.566;  -40.075; -381.000; -214.000
222.711;  -43.725; -414.000; -479.000
222.855;  -81.350; -643.000; -586.000
222.999;  -74.100; -642.000; -717.000
223.144;  -38.375; -195.000; -194.000
223.288;   58.075;  423.000;  251.000
223.432;   17.375;  184.000;  230.000
223.576;   27.775;  152.000;  -21.000
223.721;   25.400;  364.000;  273.000
223.865;  -55.425; -472.000; -475.000
224.009;  223.050; 1673.000; 1631.000
224.153;  -65.050; -660.000; -671.000
224.298;  -78.950; -531.000; -489.000
224.442;  -14.775;  -74.000;  -33.000
224.586;  -20.125; -169.000; -106.000
224.730;  -90.600; -858.000; -670.000
224.875; -113.400; -739.000; -688.000
225.019;    7.050;  102.000;  188.000
225.163;   49.200;  208.000;  341.000
225.307;   11.000;   97.000;  -91.000
225.451;   33.475;  360.000;  481.000
225.595;   37.200;  264.000;  176.000
225.739;  -18.950; -170.000;  -94.000
225.884;    5.650;   86.000;    5.000
226.028;  -99.025; -760.000; -626.000
226.172;  -30.925; -260.000; -273.000
226.316; -111.450; -941.000; -902.000
226.460;  -68.425; -645.000; -493.000
226.604;  -56.675; -406.000; -400.000
226.748; -102.400; -836.000; -733.000
226.892;  -37.025; -227.000; -181.000
227.036;  -53.850; -537.000; -447.000
227.180;  -56.675; -551.000; -375.000
227.324;  -52.100; -561.000; -580.000
227.468; -115.525; -819.000; -717.000
227.612;    7.475;  242.000;  -28.000
227.756; -113.025; -845.000; -698.000
227.900;   49.150;  342.000;  441.000
228.044;  -53.375; -509.000; -290.000
228.188;   45.875;  448.000;  568.000
228.332;  -87.050; -546.000; -472.000
228.476;  -29.000; -223.000; -149.000
228.620;  -33.825; -210.000; -150.000
228.764;   86.350;  431.000;  349.000
228.908;  -15.350; -155.000;   30.000
229.052;  -54.675; -615.000; -528.000
229.195;  -29.975; -172.000;   13.000
229.339;  -23.125; -235.000; -305.000
229.483;  -18.000;    5.000; -162.000
229.627;    2.550; -156.000;  139.000
229.771;  -50.150; -218.000; -294.000
229.915;   -1.000;  230.000;   79.000
230.059;  -98.150; -648.000; -663.000
230.202;  -33.025; -370.000; -317.000
230.346;  -24.375; -107.000;  107.000
230.490;  -52.725; -489.000; -521.000
230.634;  -99.325; -736.000; -553.000
230.777;   79.850;  478.000;  509.000
230.921;  -45.325; -450.000; -359.000
231.065;  -40.925; -246.000; -286.000
231.209;   15.550;  261.000;  265.000
231.352;   13.900;   54.000;   40.000
231.496;   16.400;  568.000;  188.000
231.640;  -75.275; -693.000; -621.000
231.783;   62.600;  546.000;  525.000
231.927;  -50.050; -294.000; -365.000
232.071; -130.200; -962.000; -736.000
232.214; -104.100; -980.000; -764.000
232.358;  -93.775; -683.000; -599.000
232.502;    3.325;  -19.000;    7.000
232.645; -135.625;-1090.000; -927.000
232.789;  -29.025; -257.000; -218.000
232.933;  -50.975; -407.000; -224.000
233.076; -116.700;-1038.000; -897.000
233.220; -109.050; -752.000; -777.000
233.363;  -65.675; -669.000; -477.000
233.507;   51.025;  371.000;  129.000
233.650;  -86.375; -764.000; -834.000
233.794;   33.800;  438.000;  461.000
233.938;  -51.925; -530.000; -362.000
234.081;  -26.000;  -93.000;   31.000
234.225;  -66.850; -631.000; -539.000
234.368; -117.950; -773.000; -723.000
234.512;  -39.475; -385.000; -299.000
234.655;  -94.075; -582.000; -555.000
234.798;  -71.825; -493.000; -466.000
234.942; -132.000; -884.000;-1002.000
235.085;  -80.600; -651.000; -443.000
235.229;  -87.775; -405.000; -410.000
235.372;  -42.000; -247.000; -191.000
235.516;  -63.525; -397.000; -321.000
235.659;   16.825;   92.000;  121.000
235.802;  -23.325;  -38.000;  -22.000
235.946;   30.100;  335.000;  215.000
236.089;   23.650;  126.000;  250.000
236.233;   51.425;  275.000;  298.000
236.376;  -50.475; -235.000; -378.000
236.519;  -51.200; -297.000; -319.000
236.663;  -23.375; -215.000; -117.000
236.806; -133.225;-1029.000; -999.000
236.949;   47.575;  543.000;  431.000
237.092;   66.200;  412.000;  391.000
237.236;  -84.425; -589.000; -502.000
237.379;   64.450;  352.000;  428.000
237.522; -112.425; -879.000; -768.000
237.666;  -18.975; -271.000;   18.000
237.809; -135.775; -851.000; -823.000
237.952;   44.425;  469.000;  271.000
238.095;  -59.825; -447.000; -442.000
238.238;   74.325;  688.000;  700.000
238.382;   -4.650;  166.000;  103.000
238.525;  -62.750; -598.000; -511.000
238.668; -150.725;-1060.000; -985.000
238.811;  -80.900; -638.000; -643.000
238.954;  -44.875; -483.000; -334.000
239.097;   76.425;  617.000;  664.000
239.241;   31.525;  394.000;  326.000
239.384;  -29.500; -254.000; -214.000
239.527;  -60.775; -424.000; -224.000
239.670; -141.100; -994.000;-1091.000
239.813; -104.200; -696.000; -658.000
239.956;   75.400;  579.000;  473.000
240.099;  -99.825; -778.000; -725.000
240.242;   55.725;  428.000;  432.000
240.385;   31.250;  466.000;  450.000
240.528;  -74.575; -706.000; -473.000
240.671;    9.425;  189.000;  134.000
240.814;  -35.450; -441.000; -158.000
240.957;  -94.625; -767.000; -578.000
241.100; -102.050; -779.000; -755.000
241.243; -146.600;-1234.000; -893.000
241.386;  -56.300; -508.000; -379.000
241.529;  -86.675; -735.000; -547.000
241.672;  -66.875; -566.000; -495.000
241.815; -132.500; -832.000; -808.000
241.958;  -29.650; -125.000; -182.000
242.101;  -71.725; -545.000; -390.000
242.244;  -40.400; -270.000; -325.000
242.387;  -54.075; -304.000; -246.000
242.530;   70.675;  470.000;  134.000
242.673;  -56.050; -381.000; -309.000
242.815; -111.575; -925.000; -899.000
242.958;  -62.200; -482.000; -381.000
243.101;   24.325;  132.000;  187.000
243.244;  -77.075; -564.000; -521.000
243.387;  -50.625; -313.000; -316.000
243.530; -100.050; -657.000; -674.000
243.672;    1.450;   43.000;  -92.000
243.815;  -61.500; -355.000; -283.000
243.958;    6.750;   98.000;  -26.000
244.101;   -9.900;   59.000;  -16.000
244.243;   -8.825;  -47.000;  101.000
244.386; -113.550; -761.000; -630.000
244.529;  -31.525; -132.000; -139.000
244.672; -157.375;-1154.000; -951.000
244.814;  -90.275; -621.000; -794.000
244.957;  -42.900; -380.000; -304.000
245.100;  -75.325; -489.000; -489.000
245.242;  -58.400; -387.000; -374.000
245.385;   -1.000;  -59.000;  -39.000
245.528; -121.575; -871.000; -705.000
245.670;   89.400;  612.000;  634.000
245.813;  -85.950; -599.000; -547.000
245.956;  -43.450; -324.000; -275.000
246.098;  -72.125; -508.000; -650.000
246.241;   19.925;  194.000;   48.000
246.383;  -11.700; -119.000;  -73.000
246.526;  -56.075; -454.000; -525.000
246.669; -122.625; -889.000; -780.000
246.811;   15.225;  172.000;   -1.000
246.954;  -60.875; -512.000; -426.000
247.096;   -3.300;  -84.000;   -6.000
247.239;  -68.700; -482.000; -445.000
247.381;  -72.375; -647.000; -488.000
247.524;   81.650;  645.000;  679.000
247.666;  -15.575;   58.000;   11.000
247.809; -125.650; -887.000; -691.000
247.951;  -14.725;  -75.000;  138.000
248.094;   29.925;  432.000;  308.000
248.236; -149.250;-1262.000;-1238.000
248.378;   -2.775; -356.000;  -81.000
248.521;  -30.600; -334.000; -337.000
248.663;  -42.750; -236.000; -267.000
248.806;  -18.850; -300.000; -266.000
248.948;  -88.550; -886.000; -763.000
249.090;  -37.725; -428.000; -398.000
249.233;  -46.975; -344.000; -381.000
249.375;  -76.125; -474.000; -451.000
249.518;  -18.100;  -83.000; -133.000
249.660;   -8.700; -103.000;    3.000
249.802; -162.650;-1303.000;-1189.000
249.945;  -67.525; -612.000; -540.000
250.087; -118.900; -834.000; -768.000
250.229;  -67.225; -362.000; -480.000
250.371;  -75.725; -494.000; -439.000
250.514;  -39.550; -310.000; -244.000
250.656;  -57.200;   69.000;  102.000
250.798; -113.925; -849.000; -800.000
250.940;  -60.075; -322.000; -322.000
251.083;  -24.575; -335.000; -111.000
251.225;   42.400;  338.000;  310.000
251.367;  -40.650; -274.000; -373.000
251.509;  -38.800; -265.000; -210.000
251.651;  -98.025; -731.000; -671.000
251.794;   48.400;  538.000;  632.000
251.936; -105.175; -821.000; -747.000
252.078;  -85.600; -540.000; -461.000
252.220;  -65.725; -645.000; -477.000
252.362;   77.025;  344.000;  462.000
252.504;  -71.625; -677.000; -584.000
252.646; -114.525; -875.000; -722.000
252.788;   -6.275;   14.000; -128.000
252.931;  -30.675; -257.000; -253.000
253.073;  -40.275; -376.000; -317.000
253.215;   -8.450;  141.000;  122.000
253.357;   -8.375;   82.000; -153.000
253.499;  -61.750; -374.000; -234.000
253.641;  -93.200; -749.000; -594.000
253.783;  -94.225; -609.000; -527.000
253.925;  -87.800; -586.000; -591.000
254.067; -109.525; -744.000; -667.000
254.209;  -28.425; -391.000; -259.000
254.351; -139.025; -865.000; -883.000
254.493;  -69.925; -441.000; -417.000
254.635; -126.875; -936.000; -818.000
254.777;  -84.725; -752.000; -687.000
254.918;  -68.400; -512.000; -430.000
255.060;  -54.975; -551.000; -395.000
255.202;  -70.775; -473.000; -261.000
255.344;  -67.575; -658.000; -455.000
255.486;  -66.350; -471.000; -406.000
255.628;  -92.925; -780.000; -781.000
255.770;  -77.100; -676.000; -536.000
255.912;  -65.000; -559.000; -468.000
256.053; -100.900; -730.000; -508.000
256.195;  143.600; 1008.000;  903.000
256.337;  -99.725; -861.000; -595.000
256.479;   59.250;  532.000;  416.000
256.621;  -52.525; -394.000; -212.000
256.762;  -92.600; -789.000; -742.000
256.904;   50.300;  485.000;  487.000
257.046;  -42.150; -381.000; -271.000
257.188;  -41.175; -351.000; -264.000
257.329;  -65.150; -525.000; -464.000
257.471; -121.175; -939.000; -807.000
257.613;  -62.300; -584.000; -498.000
257.755; -134.900;-1073.000; -982.000
257.896;   35.100;  286.000;  392.000
258.038;  -78.375; -403.000; -352.000
258.180;  -26.350; -354.000; -279.000
258.321;  -94.900; -581.000; -457.000
258.463;    8.525;  -71.000;  133.000
258.605;  -84.475; -562.000; -570.000
258.746; -101.650; -886.000; -772.000
258.888; -155.725;-1026.000;-1020.000
259.029;   26.000;  121.000;   -8.000
259.171;  -98.625; -614.000; -550.000
259.313;  -16.050;  -49.000;  -47.000
259.454;  -70.275; -536.000; -414.000
259.596;  -54.550; -483.000; -390.000
259.737;  -69.275; -590.000; -474.000
259.879;   40.025;  217.000;  311.000
260.020;   80.750;  901.000;  636.000
260.162;  -30.375; -146.000; -253.000
260.303; -111.575; -768.000; -687.000
260.445;  -77.150; -609.000; -613.000
260.586;   30.075;  392.000;  157.000
260.728;  -36.825; -360.000; -248.000
260.869; -115.050; -350.000; -343.000
261.011;   90.575;  706.000;  537.000
261.152;  -75.875; -479.000; -319.000
261.293;  -78.100; -576.000; -595.000
261.435;  -42.050; -219.000; -184.000
261.576;  -51.150; -455.000; -325.000
261.718;   42.075;  420.000;  470.000
261.859; -128.150; -940.000; -949.000
262.000; -134.050; -951.000;-1016.000
262.142;  -22.975;  -52.000;  -60.000
262.283; -111.875; -808.000; -691.000
262.424;  -87.575; -666.000; -625.000
262.566; -154.975;-1161.000; -983.000
262.707; -111.225; -840.000; -830.000
262.848; -125.775; -769.000; -726.000
262.990;  -46.150; -362.000; -345.000
263.131;   75.700;  650.000;  681.000
263.272;   -3.700;  -61.000;  -41.000
263.413;  -94.850; -589.000; -561.000
263.555;  -56.650; -669.000; -143.000
263.696;  -90.200; -550.000; -641.000
263.837;  -56.300; -449.000; -551.000
263.978;    4.700;   -5.000;  -77.000
264.119;  -55.450; -283.000; -264.000
264.261; -121.300; -847.000; -630.000
264.402;    4.950;   33.000;   40.000
264.543;  -83.975; -509.000; -524.000
264.684;   -4.725;   61.000;  -50.000
264.825;  -74.875; -816.000; -538.000
264.966;   -4.100;  -84.000;  -67.000
265.107; -111.400; -646.000; -670.000
265.248; -103.450; -825.000; -812.000
265.390;   -7.875;  152.000;   -9.000
265.531;  -11.725; -238.000; -107.000
265.672;  -88.100; -557.000; -630.000
265.813;   63.800;  563.000;  439.000
265.954; -151.750; -959.000; -940.000
266.095;  -24.675; -372.000; -322.000
266.236; -102.325; -686.000; -548.000
266.377;  -33.125; -243.000; -297.000
266.518;  -61.400; -619.000; -547.000
266.659;   19.200;  170.000;  268.000
266.800;   -2.400;   83.000;   85.000
266.941;  -79.100; -487.000; -478.000
267.082;    0.300;  354.000;   99.000
267.223;  -52.050; -344.000; -273.000
267.364; -111.600; -892.000; -686.000
267.504;   -8.200;    3.000;  135.000
267.645;  -10.675;  160.000;   67.000
267.786;  -32.525; -147.000;  -86.000
267.927;  -69.825; -473.000; -379.000
268.068;  -22.975; -186.000;  -61.000
268.209;  -40.175; -175.000; -413.000
268.350;  -52.175; -388.000; -532.000
268.490;  -83.025; -648.000; -521.000
268.631;   24.675;  127.000;  225.000
268.772; -110.900; -874.000; -647.000
268.913;  -49.475; -328.000; -476.000
269.054;  -25.975; -117.000;   12.000
269.194;  -40.475; -418.000; -402.000
269.335; -161.225;-1137.000;-1074.000
269.476;  -27.575;   33.000;  -35.000
269.617;  -57.425; -347.000; -392.000
269.757;  -98.575; -713.000; -646.000
269.898; -109.125; -856.000; -613.000
270.039;  -58.400; -415.000; -405.000
270.180; -137.900; -952.000; -816.000
270.320;  -30.900; -190.000; -250.000
270.461;  -37.550; -277.000; -249.000
270.602;  -19.500; -186.000; -156.000
270.742; -122.825; -868.000; -943.000
270.883;  -61.375; -442.000; -390.000
271.023;  -64.175; -358.000; -357.000
271.164;  -72.100; -607.000; -528.000
271.305; -112.650; -666.000; -654.000
271.445;  -98.600; -722.000; -683.000
271.586;  -82.600; -462.000; -283.000
271.726;  -45.950; -397.000; -322.000
271.867;  -58.025; -594.000; -534.000
272.008;  187.200; -473.000; -285.000
272.148;  118.050;  462.000;  468.000
272.289;   -5.075; -113.000; -181.000
272.429;    8.800;   19.000;  185.000
272.570;  -83.900; -633.000; -737.000
272.710;  -92.600; -825.000; -775.000
272.851;   -8.250;  113.000; -130.000
272.991; -159.900;-1173.000;-1077.000
273.131;  -68.325; -419.000; -459.000
273.272;  -99.525; -683.000; -723.000
273.412;    8.675; -143.000;  -31.000
273.553;  -50.500; -488.000; -507.000
273.693;  132.600;  913.000;  858.000
273.834;  -97.425; -894.000; -692.000
273.974;  -77.725; -664.000; -615.000
274.114;  -87.375; -772.000; -560.000
274.255;   80.425;  414.000;  373.000
274.395;    4.025; -180.000; -125.000
274.535;   48.225;  199.000;  350.000
274.676;   17.350;  225.000;   94.000
274.816;   -1.900;  110.000;   34.000
274.956;  -90.775; -624.000; -690.000
275.097;  -59.000;-1014.000; -922.000
275.237; -103.000; -913.000; -803.000
275.377;  -90.200; -778.000; -689.000
275.517; -126.500; -878.000; -937.000
275.658;  -46.600; -590.000; -555.000
275.798;  -73.725; -606.000; -413.000
275.938;   14.600;  215.000;  323.000
276.078; -115.100; -626.000; -395.000
276.218;   17.325;   99.000;  104.000
276.359; -132.975;-1026.000;-1024.000
276.499;  -69.075; -605.000; -446.000
276.639;  -29.125; -305.000; -151.000
276.779;  -53.925; -475.000; -357.000
276.919; -108.500; -783.000; -624.000
277.059;  -15.225; -261.000; -212.000
277.199;  -57.525; -357.000; -259.000
277.340;   39.700;  287.000;  175.000
277.480; -114.550; -840.000; -693.000
277.620;   29.800;  192.000;   16.000
277.760; -194.175;-1533.000;-1294.000
277.900;   21.025;  113.000;   33.000
278.040;    3.100;  137.000;  159.000
278.180;   29.800;  270.000;  170.000
278.320;  -11.000;   21.000;   56.000
278.460;  -61.875; -443.000; -469.000
278.600; -100.900; -708.000; -598.000
278.740;   46.100;  448.000;  224.000
278.880;  -60.125; -768.000; -791.000
279.020;    4.300; -194.000; -144.000
279.160;  -98.750; -672.000; -595.000
279.300; -102.150; -926.000; -873.000
279.440;  -92.225; -709.000; -622.000
279.579;   -8.875;-1014.000; -929.000
279.719;  -49.900; -410.000; -394.000
279.859;   77.300;   -4.000;   41.000
279.999;   11.975; -208.000;  101.000
280.139;  -14.250; -435.000; -387.000
280.279;  -82.250; -708.000; -745.000
280.419;  -14.400; -229.000; -147.000
280.559;  -31.675; -259.000; -180.000
280.698;  -84.425; -790.000; -639.000
280.838;  -99.225; -778.000; -800.000
280.978;  -93.875; -846.000; -790.000
281.118; -117.050; -811.000; -704.000
281.257;   11.425;   24.000;    6.000
281.397; -118.325;-1094.000; -960.000
281.537;  -98.925; -599.000; -712.000
281.677;  -30.950; -150.000; -101.000
281.816;  -74.950; -700.000; -630.000
281.956;  -33.400; -193.000; -257.000
282.096;  -62.050; -539.000; -396.000
282.235; -109.200; -672.000; -638.000
282.375;  -25.275; -243.000;  -98.000
282.515; -110.525; -715.000; -707.000
282.654;   18.725;   29.000;  106.000
282.794;   11.250;  388.000;  244.000
282.934;  -54.075; -530.000; -491.000
283.073; -134.650;-1030.000; -857.000
283.213;  -48.100; -460.000; -467.000
283.353;  -35.050; -408.000; -349.000
283.492;  -28.825; -264.000; -296.000
283.632;  -48.425; -254.000; -168.000
283.771;  -91.975; -859.000; -730.000
283.911;  -79.525; -369.000; -260.000
284.050; -103.700; -794.000; -748.000
284.190; -152.675;-1229.000;-1096.000
284.329; -141.300;-1055.000; -964.000
284.469;  -57.900; -516.000; -591.000
284.608;  -56.925; -559.000; -598.000
284.748;  -89.525; -614.000; -570.000
284.887;    1.275;  -87.000;  -20.000
285.027; -131.675; -844.000; -892.000
285.166;  -36.850; -192.000; -249.000
285.306;   11.650; -116.000;  -33.000
285.445;  -42.375; -229.000; -343.000
285.584;  -95.675; -630.000; -494.000
285.724;  -47.175; -282.000; -322.000
285.863; -103.925; -857.000; -507.000
286.002;  -46.250; -366.000; -276.000
286.142; -107.725; -715.000; -622.000
286.281;  -80.600; -525.000; -493.000
286.420;  -77.975; -554.000; -417.000
286.560;   93.125;  653.000;  623.000
286.699; -138.325; -958.000; -912.000
286.838;  -76.975; -590.000; -591.000
286.978;  -93.800; -533.000; -537.000
287.117; -123.525;-1085.000; -950.000
287.256;  -48.150; -228.000; -211.000
287.395;  -53.775; -197.000; -378.000
287.535;  -56.550; -370.000; -298.000
287.674;  -78.450; -509.000; -484.000
287.813;   40.875;  661.000;  533.000
287.952; -128.225;-1010.000; -871.000
288.091; -153.800;-1049.000; -915.000
288.231;   21.225;   13.000;   15.000
288.370; -186.525;-1217.000;-1200.000
288.509;  -78.200; -728.000; -645.000
288.648;  -82.675; -770.000; -548.000
288.787;  -45.225; -243.000;  -87.000
288.926;  -66.550; -454.000; -475.000
289.065;  117.825;  859.000;  672.000
289.204;  -63.450; -377.000; -217.000
289.344;  -78.875; -791.000; -690.000
289.483;   10.525;  416.000;  304.000
289.622;  -38.800; -291.000; -149.000
289.761;  -22.725; -309.000; -166.000
289.900;  -96.000; -785.000; -626.000
290.039;  -26.275;  -12.000;  -95.000
290.178;  -44.250; -274.000; -180.000
290.317;  -74.025; -618.000; -479.000
290.456;  -64.775; -463.000; -451.000
290.595; -128.475; -961.000; -833.000
290.734; -130.000; -904.000; -891.000
290.873;  -79.950; -456.000; -420.000
291.011; -109.575; -833.000; -843.000
291.150; -110.650; -770.000; -682.000
291.289;  -29.800; -343.000; -110.000
291.428; -102.150; -599.000; -480.000
291.567;  -42.400; -370.000; -442.000
291.706;  -23.950;  109.000;  154.000
291.845;  -90.250; -597.000; -505.000
291.984; -170.650;-1234.000;-1061.000
292.122;   72.250;  602.000;  582.000
292.261;   23.425;  620.000;  463.000
292.400;    4.725; -144.000;  211.000
292.539; -127.500; -959.000; -813.000
292.678;  -39.500; -325.000; -300.000
292.816; -146.850;-1136.000; -965.000
292.955;  -79.225; -844.000; -684.000
293.094;  -32.675; -173.000; -337.000
293.233;  -49.725; -556.000; -400.000
293.371;  -45.325; -225.000;  -84.000
293.510; -103.650; -866.000; -780.000
293.649; -119.725; -959.000; -924.000
293.787;  -52.825;-1083.000;-1012.000
293.926;   -7.075; -113.000;  -32.000
294.065;  -46.900; -379.000; -290.000
294.203;   42.500;  298.000;  406.000
294.342;   24.600;   74.000;  156.000
294.481; 5238.275;51180.000; -836.000
294.619;  -40.750; -425.000; -582.000
294.758; -135.550;-1230.000;-1137.000
294.896;   71.850; -125.000;    5.000
295.035; -120.250;-1040.000;-1006.000
295.174; -112.350;-1082.000; -954.000
295.312;  -22.625; -323.000; -203.000
295.451;   -4.325; -307.000; -428.000
295.589;  -52.350; -389.000; -518.000
295.728;   22.425; -292.000; -165.000
295.866;    6.375;  -36.000;  -51.000
296.005;  -72.625; -584.000; -341.000
296.143;  -69.625; -558.000; -596.000
296.282;  -96.325; -957.000; -881.000
296.420;  -91.200; -657.000; -557.000
296.559;  -80.775; -892.000; -633.000
296.697;   38.550; -847.000; -665.000
296.835;   49.600;-1141.000;-1002.000
296.974;   38.725;  -23.000;   39.000
297.112;   15.025; -443.000; -504.000
297.251;  -73.075; -815.000; -755.000
297.389;   98.275; -576.000; -438.000
297.527;   26.425; -145.000;  -83.000
297.666;  -47.150; -486.000; -438.000
297.804;  -45.500; -404.000; -264.000
297.942;   -1.325; -136.000; -161.000
298.081;   -6.450; -183.000;   63.000
298.219;   59.100;  -17.000;  -19.000
298.357;   43.075; -144.000;  -71.000
298.495;   44.025; -810.000; -812.000
298.634;   76.350;  245.000;  219.000
298.772;   55.750; -220.000; -338.000
298.910;  -35.750; -309.000; -182.000
299.048;   -8.425; -130.000; -153.000
299.187;  -39.100; -350.000; -250.000
299.325;   21.450;   52.000;  122.000
299.463;   61.425; -389.000; -299.000
299.601;  122.150; -327.000; -271.000
299.739; -104.875; -908.000; -883.000
299.877;  -71.550; -791.000; -703.000
300.016;  -39.950;-1095.000; -935.000
300.154;  164.875;  -19.000; -161.000
300.292;   47.325; -428.000; -348.000
300.430;   28.450; -408.000; -291.000
300.568;  -89.900; -940.000; -874.000
300.706;  -53.375; -366.000; -469.000
300.844;  -77.775;-1108.000; -979.000
300.982;  119.700;  246.000;  282.000
301.120;  -96.900; -965.000; -866.000
301.258;  -53.950; -812.000; -705.000
301.396;   33.650;  104.000;  -41.000
301.534;   98.075; -218.000; -293.000
301.672;  -13.300; -664.000; -521.000
301.810;   34.725; -613.000; -545.000
301.948;  113.575;   53.000;  149.000
302.086;  668.925; -250.000;  -32.000
302.224;  976.300; -610.000; -585.000
302.362;   30.000; -558.000; -622.000
302.500;  -37.700; -923.000; -893.000
302.638;  112.550;  128.000;  245.000
302.776;  -32.075; -352.000; -408.000
302.913;   34.575;  447.000;  236.000
303.051;   -4.200;  -86.000;  -23.000
303.189;   52.350;   90.000;  118.000
303.327;  -43.975; -341.000; -256.000
303.465;  -79.750; -832.000; -588.000
303.603; -104.125; -805.000; -604.000
303.740;  103.800;  417.000;  241.000
303.878;   37.975; -800.000; -759.000
304.016;  -77.400; -915.000; -790.000
304.154; -121.025;-1123.000;-1152.000
304.291;  -27.325; -505.000; -554.000
304.429;    6.750;  102.000;   74.000
304.567; -119.175; -908.000; -893.000
304.705;  -53.200; -408.000; -515.000
304.842;  107.125; -616.000; -540.000
304.980;   52.650;  215.000;   35.000
305.118;   55.575; -367.000; -365.000
305.255;  -67.025; -945.000; -927.000
305.393;   59.725;  178.000;  239.000
305.531;  -98.525;-1173.000; -956.000
305.668;  -63.800; -663.000; -582.000
305.806;   99.875; -358.000; -439.000
305.943;  106.475; -629.000; -637.000
306.081;   42.850; -378.000; -267.000
306.219;  -91.975; -863.000; -748.000
306.356;    6.250;  158.000;   27.000
306.494;  106.300;  981.000;  761.000
306.631;   -5.075;  -11.000;  -55.000
306.769;    7.025; -613.000; -485.000
306.906;  -16.425; -284.000; -258.000
307.044;  -51.475; -473.000; -488.000
307.181;  -77.625; -410.000; -332.000
307.319;   17.350;  112.000;   87.000
307.456; -163.600;-1191.000;-1153.000
307.594;  -94.850; -980.000; -727.000
307.731;  -15.875; -371.000; -164.000
307.868;   -1.275;  -15.000;   20.000
308.006; -135.375; -961.000; -847.000
308.143;  -66.325; -618.000; -330.000
308.281;  189.750;  -37.000; -254.000
308.418;   -6.325; -748.000; -640.000
308.555;  -85.500; -400.000; -250.000
308.693;  -65.375; -577.000; -573.000
308.830; -103.950; -712.000; -657.000
308.967;  -10.350; -215.000;  -95.000
309.105;  -48.000; -507.000; -396.000
309.242;   57.000; -468.000; -367.000
309.379;  358.075; -577.000; -655.000
309.517;  -54.050; -936.000; -948.000
309.654; -106.550; -910.000; -734.000
309.791;  -54.375; -662.000; -580.000
309.928; -126.875; -977.000; -914.000
310.065;  182.400;  819.000;  697.000
310.203;   -2.850; -825.000; -850.000
310.340;    1.525; -465.000; -321.000
310.477;  -82.025; -412.000; -516.000
310.614;  -58.825; -383.000; -473.000
310.751;  -80.925; -427.000; -518.000
310.889;  -21.775;    1.000;   11.000
311.026; -150.525;-1161.000; -939.000
311.163;  -47.650; -386.000; -380.000
311.300;  -79.875; -512.000; -479.000
311.437;  -64.400; -658.000; -619.000
311.574; -163.825;-1226.000; -985.000
311.711;  -64.125; -595.000; -433.000
311.848;  -57.475; -380.000; -388.000
311.985;   12.700;  270.000;   93.000
312.122; -122.575; -932.000; -762.000
312.259; -105.850; -941.000; -994.000
312.396;  -73.475; -508.000; -551.000
312.533;  -85.550; -812.000; -790.000
312.670; -136.300;-1070.000; -898.000
312.807;  -27.950; -352.000; -367.000
312.944;  -78.975; -513.000; -611.000
313.081;  -20.150; -150.000; -415.000
313.218; -100.725;-1111.000; -867.000
313.355;   17.700; -531.000; -449.000
313.492;    5.825; -455.000; -292.000
313.629;  133.175;  815.000;  735.000
313.766; -157.150;-1176.000;-1008.000
313.902;  -12.050; -186.000;   21.000
314.039;  -41.550; -372.000; -289.000
314.176;   25.575;  286.000;  192.000
314.313;  -64.500; -569.000; -473.000
314.450;  -68.125; -788.000; -684.000
314.587;  -67.575; -468.000; -480.000
314.723;   21.600;  -78.000;  130.000
314.860;   15.175;  318.000;  332.000
314.997;   26.925;  223.000;  142.000
315.134;  -42.150; -385.000; -368.000
315.270;  -27.425; -480.000; -496.000
315.407; -122.575;-1094.000; -967.000
315.544;  -43.725; -657.000; -538.000
315.681;  -69.600; -681.000; -565.000
315.817;   35.925; -133.000; -176.000
315.954;   15.025; -613.000; -392.000
316.091; -120.550;-1045.000;-1023.000
316.227;  -11.575;  -71.000; -179.000
316.364;    1.375;   23.000;    6.000
316.500;  -36.925; -113.000; -300.000
316.637;  -36.500; -181.000; -302.000
316.774;  -87.950; -625.000; -358.000
316.910;  -82.475; -598.000; -629.000
317.047;  -73.775; -487.000; -351.000
317.183;  -45.325; -435.000; -566.000
317.320;    5.050; -367.000; -321.000
317.456;  -59.125; -733.000; -805.000
317.593;  -99.800; -598.000; -641.000
317.729;   -7.000;  168.000;  -67.000
317.866; -200.300;-1434.000;-1285.000
318.002;  -87.900; -708.000; -948.000
318.139;  -87.800; -883.000; -867.000
318.275; -105.250;-1003.000; -738.000
318.412;  -59.400; -517.000; -336.000
318.548;  -23.725; -751.000; -720.000
318.685;  -97.225; -985.000; -888.000
318.821;  -86.350; -762.000; -735.000
318.957;  -34.250;   34.000;  -23.000
319.094;   43.200;  297.000;  154.000
319.230;  -53.500; -756.000; -742.000
319.367;  145.700; -471.000; -520.000
319.503;   51.525; -538.000; -436.000
319.639;  -93.325; -877.000; -793.000
319.775;  -62.675; -750.000; -685.000
319.912;  -54.600; -424.000; -519.000
320.048;  -86.575;-1184.000;-1184.000
320.184;   82.025;   59.000;   70.000
320.321;  -57.675; -497.000; -467.000
320.457;   58.800;  475.000;  662.000
320.593;  -72.225; -375.000; -382.000
320.729; -104.700; -732.000; -734.000
320.866;  -78.525; -577.000; -635.000
321.002;  -71.600; -759.000; -809.000
321.138;  -27.450; -135.000; -211.000
321.274;   68.900; -148.000; -115.000
321.410;  -19.150; -585.000; -353.000
321.546;  -14.425;-1011.000; -911.000
321.683;   50.975;  400.000;  185.000
321.819;    0.300;  -48.000; -117.000
321.955; -113.375; -743.000; -722.000
322.091;  -38.175; -585.000; -540.000
322.227;  -20.400; -382.000; -202.000
322.363;   -9.300; -320.000; -215.000
322.499;  -47.875; -343.000; -331.000
322.635;  161.175;  636.000;  443.000
322.771;   12.075; -139.000;   12.000
322.907;   90.375;  129.000;  327.000
323.043;  -22.050; -115.000; -206.000
323.179;  -38.750; -394.000; -363.000
323.315;   21.825; -401.000; -371.000
323.451;  112.025; -328.000; -236.000
323.587;   50.100;  -60.000;  -77.000
323.723;   20.175; -682.000; -601.000
323.859;   -8.325; -258.000;  -76.000
323.995;  -22.825; -467.000; -409.000
324.131; -126.150; -967.000; -892.000
324.267;  -48.025; -254.000; -276.000
324.402; -115.700; -960.000; -983.000
324.538;   -3.325; -279.000; -104.000
324.674;    4.125;  164.000;   77.000
324.810;  126.600;  226.000;  308.000
324.946;  -15.900; -810.000; -658.000
325.082;  -67.550; -568.000; -475.000
325.217;  -10.950;  -62.000;   16.000
325.353; -101.125; -764.000; -659.000
325.489;  -82.000; -540.000; -506.000
325.625;  -75.125; -579.000; -525.000
325.760;   44.775;  517.000;  376.000
325.896;  -19.650; -515.000; -702.000
326.032;  -60.925; -403.000; -352.000
326.168;  -50.575; -462.000; -369.000
326.303;  -69.400; -352.000; -461.000
326.439;  -11.875; -336.000; -276.000
326.575;   -6.400; -190.000;  -29.000
326.710;   -9.850; -156.000;  -30.000
326.846;   -7.550;  146.000;  103.000
326.982;  -80.825; -530.000; -548.000
327.117;  -78.525; -481.000; -442.000
327.253;  -85.300; -745.000; -742.000
327.388; -163.675;-1137.000;-1153.000
327.524;  -43.075; -811.000; -578.000
327.659;  -35.900;  -58.000;  -22.000
327.795;  -22.000;   69.000;   45.000
327.931;  -93.025; -723.000; -499.000
328.066;  -33.225; -417.000; -276.000
328.202;  -16.050;   12.000; -129.000
328.337;  100.525;  957.000;  713.000
328.473;   27.100;  -12.000;  -74.000
328.608;  -22.575; -256.000; -267.000
328.743;  -86.950; -799.000; -664.000
328.879;   21.000;  214.000;  114.000
329.014;  -40.300; -102.000; -122.000
329.150;  -96.250; -358.000; -483.000
329.285;  -91.550; -465.000; -466.000
329.421;  -38.450; -548.000; -246.000
329.556;  -39.375;  -36.000;   85.000
329.691;  -82.350; -633.000; -615.000
329.827;  -89.225; -626.000; -480.000
329.962;  -49.475;  131.000; -301.000
330.097;  -96.375; -673.000; -585.000
330.233;  -50.550; -410.000; -223.000
330.368; -119.500; -839.000; -628.000
330.503;   -9.200;    3.000;   98.000
330.638;    8.900;  -93.000; -125.000
330.774;  -50.425; -609.000; -530.000
330.909;  -47.400; -434.000; -244.000
331.044;  -91.225; -714.000; -708.000
331.179; -164.250;-1217.000;-1109.000
331.315;   -1.200;   77.000;   20.000
331.450;    9.025;  157.000;  285.000
331.585;  -78.275; -805.000; -706.000
331.720;  -95.925; -510.000; -460.000
331.855;  -20.700;  -35.000; -102.000
331.990;  243.825;   62.000;  138.000
332.126;  123.600; -110.000;   71.000
332.261;  -33.000; -379.000; -265.000
332.396;   11.000; -135.000; -242.000
332.531; -105.025;-1074.000;-1031.000
332.666;   36.200; -519.000; -363.000
332.801; -106.575; -726.000; -807.000
332.936;  -23.600; -192.000; -122.000
333.071; -151.075; -870.000; -817.000
333.206;   12.175;  307.000;  379.000
333.341;   17.575;  344.000;  418.000
333.476;  -87.625; -627.000; -623.000
333.611;  -56.250; -251.000; -173.000
333.746;  -46.275; -381.000; -464.000
333.881; -115.750; -973.000; -935.000
334.016; -114.375; -936.000; -917.000
334.151; -129.125; -746.000; -702.000
334.286;   34.400;  152.000;  186.000
334.421;  -23.700; -125.000; -178.000
334.556;  -81.725; -611.000; -567.000
334.690;  -82.525; -631.000; -577.000
334.825;   55.675;  381.000;   83.000
334.960;  -68.050; -285.000; -413.000
335.095;    0.425;  135.000;  -91.000
335.230;  -93.500; -722.000; -738.000
335.365; -131.875;-1084.000; -990.000
335.499; -134.475;-1108.000;-1037.000
335.634;   12.600;    9.000;  534.000
335.769;  -95.975; -755.000; -720.000
335.904;  -57.475; -603.000; -561.000
336.038;  -73.325; -735.000; -657.000
336.173; -110.050;-1206.000;-1194.000
336.308;    3.275; -116.000; -189.000
336.443;   10.200; -544.000; -634.000
336.577;  -77.625; -936.000; -787.000
336.712;   65.700;   -4.000;  -12.000
336.847;  -49.725; -724.000; -607.000
336.981;   65.975; -272.000; -208.000
337.116;  278.850;  615.000;  501.000
337.250;  151.350; -434.000; -421.000
337.385;  246.825; -297.000; -208.000
337.520;   82.150; -632.000; -603.000
337.654;  -22.075; -215.000; -126.000
337.789; -114.925; -989.000; -933.000
337.923;  -31.275; -104.000; -205.000
338.058;  -83.300; -673.000; -738.000
338.192;  -36.575; -611.000; -488.000
338.327;  -10.875;  -18.000; -155.000
338.461;  -62.650; -299.000; -469.000
338.596;  -94.750; -780.000; -638.000
338.730; -102.400; -767.000; -803.000
338.865;   90.600;  -46.000; -140.000
338.999;  -43.275; -846.000; -702.000
339.134;  -17.275; -634.000; -536.000
339.268;   18.850; -741.000; -603.000
339.403;  378.525; -740.000; -775.000
339.537;  112.075; -894.000; -820.000
339.671; -106.725; -829.000; -813.000
339.806;  -51.775; -556.000; -512.000
339.940;   19.900; -261.000; -235.000
340.074;  -98.950; -685.000; -510.000
340.209;  -54.875; -351.000; -230.000
340.343;  -96.600; -517.000; -573.000
340.477;  142.850;  998.000; 1036.000
340.612;  -59.525;-1033.000; -900.000
340.746;  142.250; -199.000; -243.000
340.880;  -71.925; -924.000; -785.000
341.014;  -19.425;  -45.000; -154.000
341.149; -112.300; -756.000; -718.000
341.283; -108.550; -839.000; -754.000
341.417; -101.600;-1124.000; -938.000
341.551;  146.525; -768.000; -708.000
341.685;  -34.025; -633.000; -611.000
341.820;  -52.300; -562.000; -493.000
341.954;  -52.475; -218.000; -349.000
342.088; -139.825;-1102.000;-1019.000
342.222;   54.050;  565.000;  618.000
342.356;  -71.350; -395.000; -335.000
342.490;  -82.050; -880.000; -841.000
342.624;  -41.625; -339.000; -242.000
342.758;   -6.750; -364.000; -312.000
342.892;  -67.575; -710.000; -585.000
343.026;  -42.775;  -58.000; -116.000
343.160;  -60.700; -426.000; -376.000
343.294;  -81.800; -474.000; -337.000
343.428;  -15.350; -488.000; -448.000
343.562;   -8.450; -172.000;  -23.000
343.696;  -21.900; -385.000; -314.000
343.830;  -15.575; -362.000; -356.000
343.964;   29.200; -231.000; -168.000
344.098;  917.750;  199.000;   70.000
344.232;  793.175; -266.000; -127.000
344.366;   88.375; -567.000; -453.000
344.500;   55.725; -665.000; -744.000
344.634;   30.525; -324.000; -164.000
344.768;    3.950; -531.000; -341.000
344.902;   19.400;  278.000;  256.000
345.035;  -66.200; -556.000; -496.000
345.169; -132.800; -933.000; -656.000
345.303;  -19.675; -308.000; -482.000
345.437;  -79.725; -826.000; -717.000
345.571;  -68.775; -675.000; -594.000
345.704;  -76.550; -309.000; -532.000
345.838;   -2.275; -331.000; -284.000
345.972;  -34.200; -543.000; -495.000
346.106;  156.000; -179.000; -190.000
346.239;  423.975; -312.000; -243.000
346.373;    1.125; -343.000; -302.000
346.507; -144.100; -950.000; -962.000
346.640;  152.000;  -30.000;   13.000
346.774;  -32.075; -650.000; -797.000
346.908;  -16.500; -138.000;  -11.000
347.041;  -86.950; -646.000; -593.000
347.175;   16.150;  259.000;   27.000
347.309;  -73.775; -698.000; -628.000
347.442;  -88.525; -883.000; -732.000
347.576;  279.850;  670.000;  668.000
347.709;  211.575; -123.000;  -52.000
347.843;  -93.725; -933.000; -825.000
347.976;   23.825;  235.000;  294.000
348.110; -182.500;-1268.000;-1186.000
348.243;  -88.075; -679.000; -772.000
348.377;   13.875;  -26.000;   60.000
348.510;   60.525;  403.000;  540.000
348.644;  -49.225;  -37.000; -159.000
348.777;    2.100;  180.000;  191.000
348.911;  -52.675; -142.000; -112.000
349.044;  165.000;  471.000;  448.000
349.178;  162.950;-1069.000;-1006.000
349.311;  111.675;  141.000;  255.000
349.444;    1.650; -927.000; -813.000
349.578;  -18.075; -347.000; -200.000
349.711; -115.000; -959.000; -862.000
349.845;   15.100; -661.000; -591.000
349.978; -135.650;-1224.000;-1137.000
350.111;  -78.075; -546.000; -612.000
350.244;  -77.025; -596.000; -700.000
350.378;    9.475; -392.000; -393.000
350.511;  -76.400; -393.000; -426.000
350.644; -104.650; -808.000; -806.000
350.778;   -2.850;  168.000;  104.000
350.911;   12.175;  134.000;  140.000
351.044;  -96.725; -685.000; -615.000
351.177;  -46.750; -321.000; -281.000
351.310;  -22.850;    3.000; -131.000
351.444;  -64.275; -888.000; -788.000
351.577;  108.400;  140.000;   90.000
351.710;   92.075;  593.000;  417.000
351.843;  -31.850; -165.000;  -77.000
351.976;   -1.825;  149.000;  -79.000
352.109;  -87.150; -621.000; -612.000
352.242;  -16.100; -464.000; -419.000
352.376;  -55.900; -580.000; -636.000
352.509;  187.925; -437.000; -356.000
352.642;   21.825; -654.000; -604.000
352.775;   75.300; -141.000;  -98.000
352.908; -114.625; -933.000; -904.000
353.041;  -99.575; -814.000; -824.000
353.174;  -59.975; -551.000; -424.000
353.307;  -83.575; -753.000; -764.000
353.440;   69.975;  541.000;  453.000
353.573; -100.375; -957.000;-1008.000
353.706;  -29.675; -384.000; -558.000
353.839;  -19.725; -264.000; -220.000
353.971;  -86.325; -657.000; -512.000
354.104;  -80.800; -896.000; -835.000
354.237;  -34.725; -627.000; -662.000
354.370;  -78.150; -846.000; -879.000
354.503; -191.400;-1231.000;-1308.000
354.636;  -35.275; -529.000; -348.000
354.769; -121.425; -937.000; -860.000
354.902;   -4.125; -230.000; -139.000
355.034;  -26.275; -164.000; -220.000
355.167;  -31.050; -262.000; -162.000
355.300;  -80.075;-1061.000; -880.000
355.433;  993.275;  -71.000;  -14.000
355.565; 1548.975; -402.000; -384.000
355.698;  391.700; -356.000; -296.000
355.831;    5.300; -882.000; -801.000
355.964;   78.750; -285.000; -170.000
356.096;  -80.075; -856.000; -843.000
356.229;   -6.950; -523.000; -530.000
356.362;  310.650; -373.000; -266.000
356.494;  624.200; -229.000; -162.000
356.627;  495.000;  269.000;  377.000
356.760;  674.850;  120.000;   53.000
356.892;  979.700; -286.000; -601.000
357.025;  674.875;  403.000;  389.000
357.157;  618.500; -167.000; -179.000
357.290;  673.875; -856.000; -713.000
357.423;  197.400; -667.000; -556.000
357.555;  123.250; -217.000; -228.000
357.688;  124.375; -483.000; -364.000
357.820;  472.225; -870.000; -877.000
357.953; 3741.550; -563.000; -589.000
358.085;  866.975; -632.000; -612.000
358.218; 1169.150;-1131.000; -932.000
358.350;  213.450;  -58.000;  312.000
358.483; -121.625;-1300.000;-1187.000
358.615;   -1.225;-1182.000;-1078.000
358.747;  -53.775;-1187.000;-1058.000
358.880;   26.675; -810.000; -744.000
359.012;    7.075; -376.000; -202.000
359.145;  -26.500; -480.000; -511.000
359.277;   75.500; -962.000; -913.000
359.409; 3075.575;  536.000;  231.000
359.542;  863.200; -738.000; -688.000
359.674;   76.850;   46.000;   13.000
359.806;  -68.750; -565.000; -438.000
359.939;  -30.825; -617.000; -516.000
360.071;   -5.550; -583.000; -579.000
360.203;  -11.475; -411.000; -364.000
360.335;   56.675;  164.000;  -16.000
360.468;  200.050; -249.000; -307.000
360.600; 2455.400; -547.000; -454.000
360.732; 2878.275; -546.000; -423.000
360.864;  411.200;-1216.000;-1044.000
360.996;  291.950; -516.000; -554.000
361.129;   36.175; -389.000; -598.000
361.261;   22.500;  110.000; -113.000
361.393;  -35.600; -252.000; -214.000
361.525;   36.075;   94.000;  244.000
361.657;  -48.025; -821.000; -703.000
361.789;   16.450; -139.000; -155.000
361.921;  245.800; -642.000; -593.000
362.053;  277.125;  524.000;  541.000
362.185;   39.975;  288.000;   72.000
362.318;  -69.000; -709.000; -705.000
362.450;  124.250;  294.000;  444.000
362.582;  108.100; -913.000; -870.000
362.714;  -26.225; -353.000; -332.000
362.846;  -81.575; -606.000; -490.000
362.978; -131.300; -941.000; -811.000
363.109;   57.425; -161.000; -260.000
363.241;  446.950; -739.000; -749.000
363.373;  446.200; -649.000; -564.000
363.505;  668.075; -186.000;  -91.000
363.637;  172.050; -787.000; -601.000
363.769; -115.250;-1067.000;-1080.000
363.901;  -52.400; -596.000; -654.000
364.033; -117.600;-1103.000;-1062.000
364.165;   11.100; -283.000; -283.000
364.296;   80.250; -316.000; -177.000
364.428;   74.550;-1344.000;-1220.000
364.560;  -61.575; -679.000; -661.000
364.692;  -55.600; -738.000; -835.000
364.824;  251.775; -588.000; -456.000
364.955;  448.650; -402.000; -564.000
365.087;  960.175;-1097.000; -852.000
365.219;   50.350; -686.000; -816.000
365.351;  -74.025; -526.000; -572.000
365.482;   47.775;  300.000;  240.000
365.614;  -68.575; -402.000; -314.000
365.746;  -85.325; -729.000; -752.000
365.877;  -80.450; -706.000; -672.000
366.009;  265.500;  -35.000;  -62.000
366.141;  -90.825;-1249.000;-1134.000
366.272; -101.250; -803.000; -719.000
366.404; -117.200;-1005.000; -874.000
366.535;   -4.100; -139.000;  -12.000
366.667; -111.100; -644.000; -649.000
366.799;   36.575;  353.000;  203.000
366.930; -130.100; -862.000; -996.000
367.062;  125.050; -639.000; -613.000
367.193;  163.000; -872.000; -842.000
367.325;  -42.800; -580.000; -684.000
367.456;   37.675; -246.000;   31.000
367.588;  155.400; -371.000; -318.000
367.719;   16.575;  -44.000;  -45.000
367.851;   -7.525; -222.000; -241.000
367.982;  -49.125; -875.000; -732.000
368.113;  126.325; -475.000; -358.000
368.245; -114.125; -960.000; -841.000
368.376;  -22.500; -254.000; -302.000
368.508;  -36.075; -188.000; -263.000
368.639; -140.900;-1166.000;-1034.000
368.770;  -17.975; -670.000; -589.000
368.902;  -55.725; -836.000; -926.000
369.033; -105.350; -906.000; -855.000
369.164;  -45.250; -720.000; -653.000
369.296; -105.850; -452.000; -601.000
369.427;   -8.225; -209.000; -144.000
369.558;  -49.100; -593.000; -377.000
369.689;  -78.225; -721.000; -569.000
369.821; -132.450; -951.000; -845.000
369.952;  -11.900;   42.000; -108.000
370.083;  -49.125; -229.000; -108.000
370.214;  -70.700; -735.000; -650.000
370.345;   -4.875;   65.000;   81.000
370.477;  -82.550; -810.000; -790.000
370.608;  218.975; -328.000; -264.000
370.739;  -37.700;-1233.000;-1292.000
370.870;  -45.025;-1102.000; -923.000
371.001;  101.450; -378.000; -467.000
371.132;  -72.500; -754.000; -735.000
371.263;  -19.575;  -42.000; -148.000
371.394; -132.000; -841.000; -748.000
371.525;   20.075;  345.000;  225.000
371.657; -101.825; -808.000; -670.000
371.788;   80.200;  103.000;  199.000
371.919;  180.100; -384.000; -304.000
372.050; 3668.625;  -91.000; -156.000
372.181; 1152.625; -188.000; -294.000
372.311;  376.675;   42.000; -127.000
372.442;   50.350; -457.000; -451.000
372.573;  -15.825; -444.000; -340.000
372.704; -121.525;-1008.000; -980.000
372.835;   98.800; -228.000; -289.000
372.966;  -60.850; -646.000; -554.000
373.097;  -56.650; -575.000; -711.000
373.228;  -48.275; -717.000; -542.000
373.359;  139.175; -824.000; -536.000
373.490;  943.775; -881.000; -727.000
373.620; 1222.475;-1001.000; -803.000
373.751; 1795.675; -332.000; -396.000
373.882;  838.175; -663.000; -733.000
374.013;   67.100; -449.000; -262.000
374.143;  -31.950; -581.000; -659.000
374.274;  -97.900; -987.000; -908.000
374.405;  188.525; -388.000; -276.000
374.536;  447.900; -526.000; -387.000
374.666; 1146.950; -759.000; -807.000
374.797;  238.675; -817.000; -868.000
374.928;  888.600; -710.000; -560.000
375.058;  940.275; -535.000; -500.000
375.189;   86.175;  -59.000;  -93.000
375.320; -110.125; -928.000;-1034.000
375.450;  -38.500; -625.000; -616.000
375.581;  -54.500; -526.000; -436.000
375.712;  -15.800; -574.000; -250.000
375.842;  307.025; -438.000; -415.000
375.973;  232.125; -554.000; -513.000
376.103;  -23.025; -665.000; -648.000
376.234;  -79.075; -531.000; -552.000
376.364;  -35.925; -944.000; -867.000
376.495;  330.600;  925.000;  529.000
376.625;  -15.950; -472.000; -485.000
376.756;   56.200; -709.000; -678.000
376.886;  -67.325;-1178.000;-1026.000
377.017;   63.175;-1048.000;-1061.000
377.147;  353.775; -786.000; -782.000
377.278;   60.775;  174.000;  228.000
377.408; -130.900; -801.000; -815.000
377.538; -101.400; -707.000; -693.000
377.669;  -99.300; -537.000; -613.000
377.799;  -73.650; -645.000; -635.000
377.929;  -65.125; -610.000; -428.000
378.060; -125.900; -781.000; -847.000
378.190;  -58.525; -726.000; -531.000
378.320;  -43.525; -401.000; -406.000
378.451;  -33.975; -131.000;  -22.000
378.581;  -15.225;  -67.000; -110.000
378.711;  140.625; 1035.000;  866.000
378.841;   -8.275; -533.000; -675.000
378.972;  -69.975; -871.000; -751.000
379.102;   -1.950; -652.000; -579.000
379.232;   -7.300; -126.000;  -73.000
379.362;  -93.575;-1001.000; -885.000
379.492;   10.375; -373.000; -424.000
379.623;  120.075;    0.000;  111.000
379.753;  -99.525;-1107.000; -974.000
379.883;  214.875;   59.000;  156.000
380.013;   25.675;-1081.000;-1017.000
380.143;  -83.850;-1097.000;-1056.000
380.273;  -99.725; -985.000; -861.000
380.403;  -13.375; -344.000; -257.000
380.533;  -21.775; -651.000; -664.000
380.663;   65.550;  173.000;  128.000
380.793;  -80.725;-1027.000;-1074.000
380.923;   -9.800; -103.000;  -34.000
381.053;  -94.575; -613.000; -623.000
381.183;  -34.700; -106.000; -248.000
381.313;   33.125; -656.000; -470.000
381.443;   51.350; -692.000; -473.000
381.573;  196.050; -402.000; -409.000
381.703;  311.150;-1249.000;-1095.000
381.833; -119.300;-1454.000;-1336.000
381.963;  102.425; -134.000;  -87.000
382.093; 1444.125; -925.000; -909.000
382.223;  488.900; -713.000; -602.000
382.353;   -5.725; -801.000; -608.000
382.482;  399.875;-1091.000; -964.000
382.612;  791.700; -872.000; -644.000
382.742;  466.050; -695.000; -622.000
382.872;  284.150; -565.000; -551.000
383.002;   68.775;  347.000; -132.000
383.131;  -28.750; -226.000; -160.000
383.261;  -25.900; -706.000; -768.000
383.391;  284.675; -552.000; -377.000
383.521; 3200.675;  451.000;  263.000
383.650;  820.650; -947.000; -904.000
383.780;   -5.525; -783.000; -656.000
383.910;   95.275;  880.000;  802.000
384.039;   21.275; -794.000; -656.000
384.169;  220.975;-1205.000;-1017.000
384.299;  -13.275; -650.000; -662.000
384.428;  -78.650; -764.000; -680.000
384.558;  -38.675; -308.000; -275.000
384.687;  -53.750; -414.000; -334.000
384.817;   16.325;   75.000;   -2.000
384.947;   13.925; -234.000; -141.000
385.076;  289.300;  982.000;  912.000
385.206;   93.450;  369.000;  480.000
385.335;  -22.950; -549.000; -417.000
385.465;  -70.850; -655.000; -663.000
385.594;  133.475;  -53.000;  -44.000
385.724;  439.875; -868.000; -838.000
385.853;  131.825; -296.000; -270.000
385.982; 1332.600; -743.000; -787.000
386.112; 2251.000;-1052.000; -871.000
386.241;  161.500; -307.000; -312.000
386.371;   29.375; -174.000;  -87.000
386.500;   10.450; -825.000; -789.000
386.629;   19.600; -874.000; -817.000
386.759;   59.950;  -43.000;   68.000
386.888;   -7.375; -170.000; -250.000
387.017;  -84.750; -648.000; -620.000
387.147;  -79.350; -771.000; -798.000
387.276;    4.175; -410.000; -397.000
387.405;   15.850; -398.000; -342.000
387.535;  -44.675; -452.000; -361.000
387.664;  -45.825; -692.000; -620.000
387.793;   62.150; -198.000; -113.000
387.922;  540.550;  255.000;  200.000
388.052;   35.425; -576.000; -423.000
388.181;   16.375; -342.000; -472.000
388.310;    4.100; -889.000; -710.000
388.439;  -31.425; -749.000; -742.000
388.568;  172.425;  365.000;  244.000
388.697; 1053.875; -756.000; -653.000
388.826;  231.375; -768.000; -666.000
388.956;   59.525; -285.000; -307.000
389.085;  -33.225; -347.000; -287.000
389.214; -110.475; -842.000; -872.000
389.343;  -63.850; -645.000; -413.000
389.472;  411.500;  126.000;  149.000
389.601;  524.825;   91.000;    0.000
389.730;   32.325; -568.000; -687.000
389.859;   59.800;  226.000;   46.000
389.988;  175.600; -423.000; -408.000
390.117;  150.450; -168.000; -146.000
390.246;    4.500; -331.000; -320.000
390.375;  103.725; -673.000; -626.000
390.504;  -53.050; -703.000; -621.000
390.633;  -89.150; -672.000; -726.000
390.761;  -49.525; -732.000; -645.000
390.890;   13.600;   -4.000; -130.000
391.019;  -24.625; -421.000; -441.000
391.148; -120.500; -826.000; -855.000
391.277;  -63.450; -576.000; -493.000
391.406;  -85.450; -821.000; -805.000
391.534;   13.925;  574.000; -301.000
391.663;  -77.950; -583.000; -645.000
391.792;  -79.500; -673.000; -701.000
391.921;   91.800;   -3.000;   15.000
392.050;  192.200; -287.000; -228.000
392.178;  -25.775;-1206.000;-1061.000
392.307;  157.325; -758.000; -712.000
392.436;   78.000; -427.000; -641.000
392.564;   24.975;  166.000;   -6.000
392.693;  -87.100; -860.000; -682.000
392.822;  192.125; -529.000; -534.000
392.950;  101.025; -880.000; -714.000
393.079;  332.150; -188.000; -328.000
393.208;   24.375; -488.000; -511.000
393.336;  -12.600; -170.000; -145.000
393.465;  -45.200; -317.000; -199.000
393.593;    3.450;   62.000;   79.000
393.722; -160.200;-1121.000; -916.000
393.850;  -18.125; -188.000;  -61.000
393.979; -143.525; -926.000; -805.000
394.107;  -57.200; -517.000; -537.000
394.236;  -21.675; -570.000; -507.000
394.364;  233.175;  383.000;  206.000
394.493;  406.200; -911.000; -767.000
394.621;    1.650; -955.000; -916.000
394.750;  699.475; -873.000; -923.000
394.878; 2923.950; -247.000; -149.000
395.007; 4173.375; -721.000; -807.000
395.135;  359.425; -790.000; -721.000
395.263;  -85.700;-1038.000;-1040.000
395.392;    9.900;  -25.000; -107.000
395.520; -130.225; -818.000; -679.000
395.648;  -77.875; -865.000; -915.000
395.777;  -21.550; -366.000; -405.000
395.905;  -44.250; -449.000; -564.000
396.033;    8.150;  217.000;  172.000
396.162;  630.575; -399.000; -453.000
396.290;  588.650;  -17.000;   -2.000
396.418;  113.825; -555.000; -514.000
396.546;  -71.400; -571.000; -466.000
396.674;  -94.275; -850.000; -878.000
396.803;    1.225;  -72.000;  -23.000
396.931;   93.850; -179.000; -199.000
397.059;   67.800;-1026.000; -989.000
397.187; -100.900;-1026.000; -975.000
397.315; -126.750; -884.000; -649.000
397.443;  -95.075; -592.000; -443.000
397.572; -106.500; -578.000; -424.000
397.700;  -11.850; -607.000; -614.000
397.828;   25.025;  120.000;  -90.000
397.956;  -45.450; -508.000; -478.000
398.084;  -63.650; -767.000; -626.000
398.212;   39.675;  137.000;  124.000
398.340;   16.250;  -56.000;  159.000
398.468;   39.925; -390.000; -169.000
398.596; -139.350; -993.000; -953.000
398.724; -125.525; -762.000; -767.000
398.852; -153.925;-1024.000; -976.000
398.980;  -57.475; -560.000; -560.000
399.108;  -51.550; -982.000; -735.000
399.236;   30.325;   13.000;    8.000
399.363;    1.825;  222.000;  196.000
399.491;  -71.975; -404.000; -398.000
399.619; -130.450; -829.000; -800.000
399.747;  -94.800; -859.000; -771.000
399.875;   58.025;  220.000;  234.000
400.003;  -51.475; -359.000; -284.000
400.130;  -96.900; -421.000; -341.000
400.258;  -28.275;  -83.000;   38.000
400.386;  -75.950; -352.000; -168.000
400.514;  -30.450; -526.000; -587.000
400.641;  -77.400; -928.000; -802.000
400.769; -127.100; -979.000; -888.000
400.897; -107.350; -838.000; -793.000
401.025;   -8.250; -166.000; -152.000
401.152;   -6.350;  220.000;   38.000
401.280;  -86.525; -430.000; -429.000
401.408; -112.575; -712.000; -576.000
401.535; -106.275; -735.000; -758.000
401.663; -177.600;-1134.000;-1054.000
401.790;  -74.275; -514.000; -525.000
401.918;   35.075;  436.000;  405.000
402.046;  -12.800;  134.000;  122.000
402.173;  -45.700;  -18.000;    7.000
402.301;  -61.725; -519.000; -397.000
402.428;   25.125;  528.000;  383.000
402.556; -147.425;-1188.000; -913.000
402.683;  -38.500;  -20.000;   -1.000
402.811;  -24.975;  -37.000; -206.000
402.938;  -21.550;   20.000;   27.000
403.066;  177.350; -574.000; -558.000
403.193;  352.925;  299.000;  239.000
403.321;  271.350; -396.000; -574.000
403.448;  340.375;   83.000;   27.000
403.575;  159.300;  -90.000;  -46.000
403.703;  -98.300; -732.000; -557.000
403.830;  -77.050; -531.000; -496.000
403.957; -126.550;-1117.000;-1023.000
404.085;   13.425;  -61.000; -172.000
404.212;   96.875;  -50.000;   63.000
404.339;  262.325; -566.000; -306.000
404.467; 5749.875; -612.000; -524.000
404.594; 4078.250; -287.000; -227.000
404.721;  995.450; -869.000; -764.000
404.848;   91.200; -113.000; -202.000
404.976; -113.525; -856.000; -783.000
405.103;  -17.700;  -14.000;  -82.000
405.230;   -5.575;  190.000;  226.000
405.357;   11.575;  117.000;   44.000
405.484;  258.075;  -49.000;    5.000
405.612;   67.750; -548.000; -563.000
405.739;  -49.325; -488.000; -243.000
405.866;   75.250;  669.000;  385.000
405.993;  -43.900; -398.000; -102.000
406.120; -137.150; -801.000; -887.000
406.247;  -56.725; -323.000; -342.000
406.374;  438.425;  540.000;  629.000
406.501;  132.050; -632.000; -702.000
406.628;  -71.925; -621.000; -589.000
406.755; -100.700; -803.000; -620.000
406.882;  -50.025; -228.000; -277.000
407.009; -118.275; -719.000; -628.000
407.136;   58.325; -480.000; -401.000
407.263;  144.400; -939.000; -829.000
407.390;  -71.375; -692.000; -614.000
407.517; -160.575;-1139.000;-1187.000
407.644;  -54.675; -332.000; -256.000
407.771;  -63.025; -249.000; -287.000
407.898;    8.700;  168.000;  328.000
408.025;  -84.025; -421.000; -313.000
408.151;    7.750;   82.000;  153.000
408.278;  -84.125; -267.000; -216.000
408.405; -114.925; -931.000; -899.000
408.532;  -68.450; -549.000; -542.000
408.659; -112.475; -677.000; -648.000
408.785; -195.500;-1298.000;-1170.000
408.912;  -59.925; -412.000; -296.000
409.039; -117.625; -610.000; -686.000
409.166; -109.325; -591.000; -555.000
409.292; -107.400; -571.000; -534.000
409.419; -116.850; -665.000; -649.000
409.546;  -89.275; -431.000; -192.000
409.672;  -97.925; -713.000; -545.000
409.799;  -22.450;  -36.000;   34.000
409.926;  -30.375; -180.000; -179.000
410.052; -164.975;-1127.000;-1091.000
410.179;  -48.650; -368.000; -392.000
410.305;  -91.000; -375.000; -493.000
410.432;  -40.475; -220.000; -333.000
410.558;  -93.850; -305.000; -380.000
410.685; -110.325; -688.000; -431.000
410.812;  -89.200; -409.000; -588.000
410.938; -126.625; -964.000; -808.000
411.065;  -92.125; -671.000; -645.000
411.191;  -14.550; -189.000; -174.000
411.317; -123.750; -823.000; -742.000
411.444;  -69.400; -317.000; -246.000
411.570;  -92.625; -339.000; -294.000
411.697; -120.925; -758.000; -752.000
411.823; -167.900; -989.000; -999.000
411.949;  -26.125;  -56.000;   17.000
412.076; -119.375; -539.000; -519.000
412.202; -117.825; -758.000; -757.000
412.329; -133.500; -798.000; -752.000
412.455; -123.575; -821.000; -657.000
412.581;  -21.550;  -15.000;  172.000
412.707;  -61.400; -540.000; -457.000
412.834;   -3.650;  156.000;  219.000
412.960;  -83.400; -785.000; -784.000
413.086; -106.725; -743.000; -701.000
413.212;  149.950;  604.000;  578.000
413.339;  -57.700; -685.000; -701.000
413.465;   -0.425; -364.000; -310.000
413.591;  -96.725; -757.000; -474.000
413.717;  -47.275; -358.000; -366.000
413.843; -127.200; -839.000; -861.000
413.969;  -67.450;  -47.000; -292.000
414.096;  -91.175; -679.000; -679.000
414.222;   -6.275;  -33.000;   85.000
414.348;  -20.225; -652.000; -385.000
414.474;  113.725;   38.000;  -52.000
414.600;  -18.500; -126.000; -144.000
414.726;   -7.150;  -96.000;  -55.000
414.852;  -59.700; -365.000; -342.000
414.978;   34.725;  104.000;  -18.000
415.104;   39.425;   38.000;   80.000
415.230;   28.900; -329.000; -330.000
415.356;   50.075; -409.000; -514.000
415.482;  202.300;   13.000;  -35.000
415.608;  273.575; -247.000; -323.000
415.734;  982.200;   67.000;   38.000
415.860;19940.825; -875.000; -767.000
415.986;15740.900; -685.000; -607.000
416.111; 1406.150; -798.000; -652.000
416.237;  289.300; -424.000; -571.000
416.363; 1092.225; -765.000; -733.000
416.489; 4347.425; -324.000; -251.000
416.615;  519.275; -707.000; -742.000
416.741;    4.825; -677.000; -784.000
416.866;  -82.800; -673.000; -736.000
416.992; -119.175; -801.000; -818.000
417.118;  -30.875;  -41.000;  -80.000
417.244;  -71.800; -798.000; -531.000
417.369;  -80.025; -801.000; -612.000
417.495;   -3.875; -325.000; -254.000
417.621;  -88.075;-1015.000; -803.000
417.746;    0.025; -579.000; -572.000
417.872;   37.575; -254.000; -144.000
417.998;   48.900; -515.000; -530.000
418.123;  996.850;-1073.000; -845.000
418.249; 5628.225; -512.000; -601.000
418.374;  859.675; -916.000; -824.000
418.500;  124.975; -383.000; -482.000
418.626;  111.425;   70.000;  -59.000
418.751;  143.775; -549.000; -448.000
418.877;  201.900; -637.000; -643.000
419.002; 1709.425; -688.000; -560.000
419.128;12832.525; -930.000; -721.000
419.253; 3433.725; -967.000; -837.000
419.379;  463.575; -391.000; -338.000
419.504;  392.800;  325.000;  415.000
419.629;  532.675; -393.000; -212.000
419.755; 3407.700; -317.000; -254.000
419.880;21628.350;  -98.000;   67.000
420.006;11685.700; -280.000; -221.000
420.131;30718.500; -662.000; -775.000
420.256; 4846.350; -315.000; -316.000
420.382;  618.625; -665.000; -687.000
420.507;   96.800; -649.000; -778.000
420.632;  135.450; -337.000; -339.000
420.758;  258.625; -251.000; -425.000
420.883;  -69.925; -876.000; -672.000
421.008;  -96.700; -775.000; -619.000
421.133;  -83.525; -509.000; -467.000
421.259;  -45.525; -325.000; -259.000
421.384; -122.500; -834.000; -693.000
421.509;  -37.750;-1052.000; -862.000
421.634; 1095.975; -936.000; -820.000
421.759;  533.300; -359.000; -327.000
421.885;  -53.550; -717.000; -656.000
422.010;  -74.075; -673.000; -542.000
422.135; -160.800; -695.000; -727.000
422.260;   48.525;  340.000;  280.000
422.385;  -43.750;   12.000;  -98.000
422.510;   10.975;  151.000;  -26.000
422.635;    6.900;  -87.000;  -43.000
422.760;  113.075; -766.000; -791.000
422.885;   62.500;  -57.000;  -80.000
423.010;  -28.950; -112.000; -169.000
423.135;  -86.675; -481.000; -561.000
423.260;  -19.350; -150.000; -245.000
423.385;   59.900;  476.000;  222.000
423.510;   34.600;   71.000;  -22.000
423.635;   66.425;  133.000;   45.000
423.760;   69.650;  383.000;  328.000
423.885;   65.650;  336.000;  391.000
424.010;   17.250;  -68.000;  -13.000
424.135;  -21.050;    5.000;  -33.000
424.259;  -86.875; -654.000; -457.000
424.384;  -67.650; -279.000; -272.000
424.509;  -26.950; -260.000; -186.000
424.634;  -98.450; -761.000; -623.000
424.759;  -27.200; -688.000; -544.000
424.883;  -11.600; -506.000; -527.000
425.008;  187.025; -502.000; -410.000
425.133; 2014.575; -679.000; -653.000
425.258; 1035.675; -517.000; -381.000
425.382;  979.625; -867.000; -774.000
425.507; 2730.675; -487.000; -543.000
425.632;  488.975; -802.000; -663.000
425.756;  470.850; -256.000; -146.000
425.881; 6248.000; -831.000; -857.000
426.006;18462.350; -604.000; -355.000
426.130; 3157.050; -696.000; -508.000
426.255;  406.125; -611.000; -491.000
426.379;  160.225; -189.000; -577.000
426.504;  360.950;  660.000;  544.000
426.629; 3986.450; -519.000; -466.000
426.753; 3028.875;   64.000;  -46.000
426.878;  335.550; -252.000; -288.000
427.002;  168.825; -651.000; -668.000
427.127; 1524.600;  -35.000; -158.000
427.251;11516.550;  372.000;  401.000
427.375; 3658.075; -191.000; -173.000
427.500; 2301.900; -616.000; -610.000
427.624;  851.550; -234.000; -400.000
427.749;  112.275; -216.000; -225.000
427.873;  -41.625; -499.000; -412.000
427.997;  -28.025; -222.000; -230.000
428.122;   62.650;  795.000;  703.000
428.246;   69.500;  433.000;  434.000
428.371; -122.250; -869.000; -773.000
428.495; -103.975; -624.000; -646.000
428.619;  -32.225; -186.000; -117.000
428.743;   18.475;   65.000;  132.000
428.868;   11.050; -732.000; -643.000
428.992; 1369.475; -219.000; -326.000
429.116;  614.625; -329.000; -357.000
429.240;  266.450;  419.000;  426.000
429.365;  -16.825; -454.000; -574.000
429.489;  -25.850; -638.000; -647.000
429.613;   19.350; -236.000; -177.000
429.737;   42.425; -563.000; -432.000
429.861;  255.075; -247.000; -133.000
429.985; 5441.850; -425.000; -305.000
430.109; 6549.900; -770.000; -908.000
430.234;  800.200;   76.000;  -50.000
430.358;   77.900; -250.000; -160.000
430.482;  -60.350; -672.000; -564.000
430.606;  -74.025; -655.000; -375.000
430.730;   23.975; -437.000; -388.000
430.854;  140.825; -909.000; -835.000
430.978;  -72.775; -795.000; -764.000
431.102;  -86.875; -499.000; -422.000
431.226; -110.825; -874.000; -815.000
431.350;   25.425;  345.000;  422.000
431.474;  -72.625; -661.000; -373.000
431.597; -142.475;-1060.000; -848.000
431.721;  -62.700; -276.000; -267.000
431.845; -118.650; -704.000; -472.000
431.969;  -74.750; -304.000; -349.000
432.093; -100.350; -395.000; -317.000
432.217;  -13.225;   32.000;   82.000
432.341;  -96.850; -523.000; -518.000
432.464;   12.450;   96.000;   40.000
432.588;  196.625; -401.000; -329.000
432.712;  109.850;  -52.000;  -52.000
432.836;   45.925;  213.000;  263.000
432.959;  -21.275; -372.000; -311.000
433.083;   91.650;   11.000;    2.000
433.207;  364.350;  285.000;  930.000
433.330; 4969.825; -391.000; -200.000
433.454; 6640.375; -654.000; -638.000
433.578; 3762.675;  583.000;  278.000
433.701;  766.550; -623.000; -675.000
433.825;  146.700; -292.000; -299.000
433.949;  159.700;   28.000;  -72.000
434.072;   50.350; -410.000; -323.000
434.196;   -6.000; -309.000; -117.000
434.319; 3602.900;25482.000;25124.000
434.443;  698.125; -656.000; -603.000
434.566; 2784.475;  281.000;   62.000
434.690;  520.925; -637.000; -383.000
434.813;   54.750; -251.000; -173.000
434.937;  -75.875; -569.000; -696.000
435.060;  -42.850; -423.000; -332.000
435.184;  270.300; -492.000; -217.000
435.307;  167.950;  159.000;  102.000
435.431;   -7.500;  -40.000;   24.000
435.554;  -74.775; -399.000; -240.000
435.677;  -72.400; -350.000; -258.000
435.801;  -43.150;  -25.000;   49.000
435.924;   -9.225;    1.000;  -67.000
436.048; -122.600;-1019.000; -732.000
436.171;  -54.025; -240.000;  -66.000
436.294;  -36.225; -248.000; -229.000
436.417;   89.325; -963.000; -849.000
436.541;  -73.025; -814.000; -840.000
436.664;  -44.575; -242.000; -316.000
436.787;  -37.550;   13.000;  113.000
436.910; -106.600; -792.000; -422.000
437.034;   -5.650;  142.000;  143.000
437.157;   41.925;  -11.000;    0.000
437.280;  -52.425; -392.000; -292.000
437.403;  -80.925; -982.000; -869.000
437.526;  543.675; -903.000; -865.000
437.649; 2195.200; -505.000; -332.000
437.772;  357.875; -692.000; -540.000
437.896;  118.650;  700.000;  544.000
438.019; -103.225; -758.000; -503.000
438.142;  -90.900; -596.000; -506.000
438.265;  -25.225; -639.000; -670.000
438.388;  578.450; -520.000; -410.000
438.511;  125.300; -597.000; -394.000
438.634;  -48.700; -247.000; -125.000
438.757; -140.750; -693.000; -619.000
438.880;  -29.575;  -34.000;  -57.000
439.003;  -89.000; -417.000; -437.000
439.126;  -61.475; -287.000; -167.000
439.248;  -78.900;  -98.000; -139.000
439.371;  -29.850;    9.000;  -53.000
439.494;   21.175;  510.000;  439.000
439.617;  -54.925;   65.000;  -88.000
439.740; -174.325; -968.000; -816.000
439.863; -135.525; -755.000; -595.000
439.986; -114.875; -476.000; -431.000
440.108;  -62.475; -161.000; -112.000
440.231; -162.800; -950.000; -836.000
440.354;  -42.275;  -64.000; -150.000
440.477;   30.250; -566.000; -542.000
440.599;   13.325; -200.000; -225.000
440.722; -112.625; -709.000; -586.000
440.845;   52.175;  751.000;  928.000
440.968; -120.675; -415.000; -311.000
441.090;  -73.175; -199.000;  -33.000
441.213; -156.650;-1021.000; -825.000
441.336;  -56.175; -159.000;   -5.000
441.458;  -75.150; -549.000; -396.000
441.581;  -83.375; -628.000; -629.000
441.703;  -77.350; -152.000;   13.000
441.826; -112.125; -557.000; -400.000
441.948;  -50.225;   56.000;   51.000
442.071;   29.600;  555.000;  424.000
442.193; -124.800; -531.000; -485.000
442.316;   18.775;  152.000;   97.000
442.438;   56.525; -233.000;  -10.000
442.561;   58.450;  272.000;  262.000
442.683;  475.800; -809.000; -522.000
442.806; 1158.700;   -8.000;   74.000
442.928;   36.625; -859.000; -604.000
443.051;  -56.050; -577.000; -373.000
443.173; -115.525; -341.000; -339.000
443.295; -107.225; -263.000; -371.000
443.418;  -87.750; -321.000;  -29.000
443.540;  -22.375; -106.000;   -4.000
443.662; -102.200; -563.000; -465.000
443.785;  -13.800;  335.000;  199.000
443.907;  -98.125; -362.000; -208.000
444.029; -130.650; -767.000; -494.000
444.152; -132.975; -644.000; -554.000
444.274;  -34.225;  -18.000;  -24.000
444.396; -110.025; -461.000; -221.000
444.518; -132.725; -691.000; -454.000
444.640; -110.650; -268.000; -111.000
444.763;  -14.800;  388.000;  249.000
444.885; -124.475; -432.000; -392.000
445.007;  -18.800;   35.000;   86.000
445.129; -124.375; -610.000; -515.000
445.251;  -93.700; -372.000; -439.000
445.373; -150.475; -537.000; -386.000
445.495;    3.975;  242.000;  350.000
445.617;   45.175;  853.000;  753.000
445.739;  -65.300; -215.000;  -97.000
445.861;  -34.175; -245.000; -112.000
445.984;  -33.700; -267.000; -101.000
446.105;  176.500; -418.000; -251.000
446.227;  611.000; -176.000;  -19.000
446.349;   15.125; -358.000; -249.000
446.471;  -83.150; -615.000; -448.000
446.593;  -65.950; -316.000;   19.000
446.715;   -2.100;  -67.000;   41.000
446.837;   60.175;  697.000;  832.000
446.959;  -95.550; -457.000; -478.000
447.081; -139.675; -628.000; -518.000
447.203;   57.800;  862.000;  834.000
447.325;  -90.975; -270.000;   42.000
447.446;    2.075;  286.000;  530.000
447.568; -164.800; -921.000; -803.000
447.690;  -80.800; -236.000; -245.000
447.812; -147.975; -798.000; -519.000
447.933;  -23.775;  155.000;  127.000
448.055;  -76.825; -306.000; -261.000
448.177;  133.250;   31.000;   79.000
448.299;   83.125; -935.000; -727.000
448.420;   42.025;  -25.000;  159.000
448.542;  -55.650;   -3.000;   33.000
448.664;  -27.725;  109.000;  322.000
448.785;  -35.050;  265.000;   83.000
448.907;  -77.325; -614.000; -353.000
449.028;  -23.175; -771.000; -471.000
449.150;   62.450;  492.000;  589.000
449.272; -188.200;-1044.000; -913.000
449.393;   26.525;  612.000;  694.000
449.515; -147.425; -634.000; -581.000
449.636;  -68.450; -264.000; -155.000
449.758;   64.525;  763.000;  622.000
449.879;  -90.525; -498.000; -396.000
450.001;  -87.175; -149.000;  -49.000
450.122;  -44.000;  -95.000;  162.000
450.244;  -22.750;   37.000;  364.000
450.365;  -77.225; -495.000; -301.000
450.486;  -16.350;   80.000;  268.000
450.608;   18.925;  393.000;  326.000
450.729;   65.225;  578.000;  645.000
450.850;    6.825; -574.000; -466.000
450.972;  725.450; -552.000; -389.000
451.093; 4923.250;  190.000;  588.000
451.214; 2347.150; -516.000; -337.000
451.336;  432.050;  773.000;  579.000
451.457;   58.825;  264.000;  393.000
451.578;  -41.475; -118.000;  -74.000
451.699; -120.950; -546.000; -540.000
451.821;  -74.500; -284.000;  -50.000
451.942;    0.825;  278.000;  285.000
452.063;   34.550;  228.000;  419.000
452.184;  528.825;  -54.000;  -49.000
452.305; 1162.100;  103.000;  170.000
452.427;  173.200; -549.000; -301.000
452.548;  -15.650;   23.000;   79.000
452.669;  -58.525; -257.000;  -89.000
452.790;  -56.225;    3.000;  -18.000
452.911;  -21.625;  195.000;  259.000
453.032;  -68.400; -289.000;  -60.000
453.153;  -53.800;  -29.000;   81.000
453.274;   44.175;  737.000;  868.000
453.395;  -40.350;  -51.000;  175.000
453.516;  119.075; 1317.000; 1388.000
453.637;  -74.275; -205.000; -150.000
453.758;  -46.625;   15.000;   69.000
453.879; -120.225; -462.000; -250.000
454.000;   80.050; 1086.000;  948.000
454.121; -113.075; -554.000; -326.000
454.242; -115.225; -599.000; -383.000
454.362;  -59.400;  -99.000;  114.000
454.483;  -42.125; -309.000; -229.000
454.604;   51.700;  512.000;  580.000
454.725; -127.700; -627.000; -555.000
454.846; -114.275; -474.000; -406.000
454.967;  -35.225;  230.000;  539.000
455.087;  -61.100;  179.000;  153.000
455.208;   21.525;  554.000;  856.000
455.329;  -69.675;  -22.000;   82.000
455.450;   33.525;  473.000;  633.000
455.570;  -83.625; -234.000; -211.000
455.691;  -29.625;  201.000;  407.000
455.812; -107.025; -270.000;  -92.000
455.932;  -51.850;  107.000;  -97.000
456.053;  -94.900;   36.000;   24.000
456.173; -104.575; -433.000; -355.000
456.294; -123.450; -476.000; -303.000
456.415;  -54.375;  -73.000;   70.000
456.535;  -43.050;  297.000;  273.000
456.656;  -35.775;  132.000;  240.000
456.776;  -68.000;    3.000;  298.000
456.897;  -10.650;  308.000;  513.000
457.017;  -75.900; -153.000;   -3.000
457.138; -110.000; -402.000; -249.000
457.258;  -23.325;  263.000;  224.000
457.379;   -8.300;  509.000;  521.000
457.499;  -31.350;  443.000;  432.000
457.620; -117.925; -407.000; -231.000
457.740; -103.800; -132.000;  -11.000
457.860;  -49.700;   87.000;   44.000
457.981;  -46.500;  132.000;  124.000
458.101;  -84.225;  -89.000;   40.000
458.221;  -22.950;  336.000;  402.000
458.342;  -70.950;   -4.000;  -37.000
458.462;   18.400;  617.000;  352.000
458.582;  -26.275; -302.000; -294.000
458.703;    9.525;  303.000;  154.000
458.823;   -9.500;   22.000;  163.000
458.943;   12.550;  341.000;  467.000
459.063;  -12.225; 1124.000;  192.000
459.183;  -26.475;  328.000;  313.000
459.304;   -5.475;  315.000;  517.000
459.424;  -61.075; -246.000;  -89.000
459.544;  328.900;  388.000;  764.000
459.664;  847.875;  499.000;  506.000
459.784;  347.650; 1004.000; 1175.000
459.904;   61.125;  867.000;  744.000
460.024;   68.650;  867.000;  684.000
460.144;   10.350;  449.000;  554.000
460.264;   -7.500;  515.000;  327.000
460.385;  -85.850; -145.000; -119.000
460.505;   23.750;  905.000;  858.000
460.625;  -89.825;  -17.000;  -68.000
460.745;  -22.475;  396.000;  541.000
460.864;  -48.850;  153.000;  469.000
460.984;    4.750;  499.000;  573.000
461.104;  126.625; 1656.000; 1775.000
461.224;   15.525;  657.000;  650.000
461.344;  -32.525;  431.000;  360.000
461.464;  -29.450;  258.000;  513.000
461.584;  -15.925;  283.000;  466.000
461.704;  -46.550;   58.000;  108.000
461.824;  -51.025;  238.000;  259.000
461.943;  -36.775;  191.000;  130.000
462.063;  -77.500;    2.000;  324.000
462.183;   40.175;  639.000;  717.000
462.303;   99.650; 1678.000; 1230.000
462.422;   30.175;  781.000;  840.000
462.542;  -49.725;  271.000;  391.000
462.662;   46.775;  353.000;  380.000
462.782;  231.550;  833.000;  572.000
462.901;  494.925;  545.000;  717.000
463.021;  296.750; 1702.000; 1638.000
463.141;   -6.850;  337.000;  770.000
463.260;  -23.325;  614.000;  474.000
463.380;   33.175;  902.000;  884.000
463.499;  -42.050;  342.000;  332.000
463.619;  -35.875;  581.000;  559.000
463.738;  110.950; 1644.000;  903.000
463.858;   21.125;  657.000;  811.000
463.978;  -31.125;  542.000;  396.000
464.097;   44.925;  921.000; 1114.000
464.217;  100.200; 1196.000; 1143.000
464.336;  120.875; 1068.000; 1130.000
464.455;  -40.225;  328.000;  659.000
464.575;   39.850;  597.000;  602.000
464.694;  170.650; 1204.000; 1179.000
464.814;  137.600; 1190.000; 1138.000
464.933;   67.125; 1095.000; 1027.000
465.052;  106.925; 1412.000; 1054.000
465.172;   82.150;  922.000;  799.000
465.291;  124.475; 1376.000; 1320.000
465.410;   11.275;  462.000;  735.000
465.530;   92.550; 1355.000; 1310.000
465.649;   52.625; 1209.000; 1273.000
465.768;  120.850; 1673.000; 1508.000
465.888;   50.450;  941.000; 1174.000
466.007;   94.575; 1335.000; 1440.000
466.126;    3.750;  721.000;  641.000
466.245;   59.000; 1176.000; 1187.000
466.364;   10.225;  950.000; 1060.000
466.484;   63.225; 1024.000; 1213.000
466.603;   34.000; 1101.000; 1222.000
466.722;  114.925; 1490.000; 1769.000
466.841;   79.225; 1151.000; 1401.000
466.960;   39.500; 1069.000;  972.000
467.079;  129.600; 1971.000; 1786.000
467.198;   48.550; 1238.000; 1181.000
467.317;   85.025; 1768.000; 1162.000
467.436;   81.625; 1709.000; 1261.000
467.555;  115.675; 1796.000; 1746.000
467.674;   63.525; 1227.000; 1329.000
467.793;   44.550; 1376.000; 1374.000
467.912;   83.450; 1658.000; 1539.000
468.031;  140.550; 2038.000; 1930.000
468.150;  150.350; 1842.000; 1837.000
468.269;  190.500; 2313.000; 2090.000
468.388;  203.425; 2168.000; 2339.000
468.507;  248.850; 2884.000; 2903.000
468.626;  272.400; 2555.000; 2541.000
468.744;  129.000; 2018.000; 2174.000
468.863;  205.650; 2312.000; 2523.000
468.982;   96.000; 1503.000; 1555.000
469.101;  215.375; 2788.000; 2692.000
469.220;  129.350; 2333.000; 2176.000
469.338;  245.950; 2935.000; 3051.000
469.457;  203.600; 2719.000; 2545.000
469.576;  328.150; 3953.000; 3784.000
469.695;  243.975; 2877.000; 3066.000
469.813;  429.925; 4148.000; 4192.000
469.932;  403.025; 4255.000; 4485.000
470.051;  423.925; 4075.000; 4161.000
470.169;  834.475; 4470.000; 4338.000
470.288; 1519.850; 4700.000; 4809.000
470.406;  917.825; 5059.000; 5194.000
470.525;  637.375; 6101.000; 5787.000
470.644;  631.175; 6847.000; 6794.000
470.762;  822.450; 8397.000; 7873.000
470.881;  918.300; 8651.000; 8464.000
470.999; 1044.475; 9685.000; 9151.000
471.118; 1076.600;11174.000;10711.000

