
Integration time [ms]: 100.000
Averaging Nr. [scans]: 40
Smoothing Nr. [pixels]: 0
Data measured with spectrometer [name]: 2101012U2
Wave   ;Sample   ;Dark     ;Reference
[nm]   ;[counts] ;[counts] ;[counts] 

197.733;   63.550;  516.000;  404.000
197.879;  -83.275; -610.000; -634.000
198.025;  -37.350; -475.000; -420.000
198.171;  -80.450; -602.000; -612.000
198.317;  -35.000; -401.000; -316.000
198.463;  -50.725; -655.000; -404.000
198.609;   28.250;  181.000; -137.000
198.755;  -76.575; -644.000; -410.000
198.901;  -61.575; -505.000; -424.000
199.047;  -62.050; -615.000; -488.000
199.193;  -29.700; -230.000; -468.000
199.339;  -49.250; -222.000; -369.000
199.485;   51.550;  330.000;  271.000
199.631;   24.550;  227.000;  310.000
199.777;  -43.400; -466.000; -398.000
199.923;  -71.875; -610.000; -424.000
200.069;   -4.775; -141.000;  -58.000
200.215;   44.800;  128.000;  453.000
200.361;   58.650;  243.000;  477.000
200.507;  -60.575; -600.000; -373.000
200.653;  -27.925; -371.000; -194.000
200.798;  -38.300; -215.000; -125.000
200.944;   -3.125; -146.000;  -41.000
201.090;   37.325;   61.000;  222.000
201.236;    2.675; -116.000; -158.000
201.382;  118.500;  874.000;  903.000
201.528;   -0.325;  -58.000;  -48.000
201.674;  -45.475; -386.000; -293.000
201.819;  -56.500; -540.000; -439.000
201.965;  -79.225; -699.000; -447.000
202.111;  -17.600; -273.000; -226.000
202.257;  -43.550; -250.000; -238.000
202.402;    2.025;   13.000;  -36.000
202.548;  -39.125; -169.000; -116.000
202.694;   83.000;  410.000; -183.000
202.840;  -82.900; -603.000; -531.000
202.985;  -67.900; -681.000; -639.000
203.131;  -92.875; -832.000; -666.000
203.277;  -16.575; -199.000; -262.000
203.423;  -63.050; -434.000; -520.000
203.568;  -40.725; -462.000; -237.000
203.714;  -58.900; -535.000; -542.000
203.860;  -84.975; -682.000; -641.000
204.005;   18.600;  112.000;  167.000
204.151;   83.700;  561.000;  556.000
204.296;  -51.550; -354.000; -221.000
204.442;  -71.225; -600.000; -547.000
204.588;  -72.275; -592.000; -579.000
204.733;   20.450;  178.000;  168.000
204.879; -128.700;-1018.000; -822.000
205.025;   18.850;  -99.000;  126.000
205.170;   -5.350;  -17.000;   94.000
205.316;   82.775;  438.000;  661.000
205.461;  -78.800; -698.000; -554.000
205.607;   83.250;  609.000;  665.000
205.752;  -80.875; -626.000; -551.000
205.898;  -52.400; -501.000; -391.000
206.043;  -45.575; -578.000; -506.000
206.189;  -42.425; -243.000; -285.000
206.334;   78.575;  554.000;  606.000
206.480;   83.775;  409.000;  239.000
206.625;  -83.350; -529.000; -552.000
206.771;  -29.500; -451.000; -373.000
206.916;  -35.675; -210.000; -537.000
207.062;  -64.875; -545.000; -591.000
207.207;  -56.025; -546.000; -443.000
207.353;   49.900;  185.000;  460.000
207.498;   26.025;  196.000;   85.000
207.643;  -44.625; -501.000; -370.000
207.789; -142.075;-1069.000; -910.000
207.934;  -86.350; -665.000; -713.000
208.080;  -30.375; -154.000;   66.000
208.225;    2.075;  -22.000;  -57.000
208.370;  -93.050; -727.000; -619.000
208.516;  -72.275; -741.000; -487.000
208.661;  -29.100; -127.000;  -69.000
208.806;  -19.300; -165.000; -171.000
208.952; -116.200;-1044.000; -731.000
209.097;   62.600;  378.000;  349.000
209.242;  -47.675; -307.000; -382.000
209.387;   69.400;  392.000;  350.000
209.533;  -49.375; -321.000; -350.000
209.678;   78.300;  472.000;  543.000
209.823;  -49.625; -408.000; -310.000
209.969;  -89.075; -860.000; -757.000
210.114; -109.800; -907.000; -719.000
210.259; -110.725; -939.000; -889.000
210.404;  -14.325; -171.000;  103.000
210.549;    6.125;  108.000;    3.000
210.695;  -25.100;   -3.000;  -95.000
210.840;   25.200;   94.000;   67.000
210.985;  -49.675; -484.000; -303.000
211.130;   77.225;  268.000;  406.000
211.275;   22.850;  207.000;  199.000
211.420;  -31.150; -300.000; -289.000
211.566;  -72.150; -536.000; -489.000
211.711;   22.500;  218.000;  157.000
211.856;  -74.425; -545.000; -519.000
212.001;    7.650;  151.000;   44.000
212.146;   19.025;  153.000;   49.000
212.291;  -24.950; -210.000; -186.000
212.436;  -37.075; -280.000;   -6.000
212.581;  -84.750; -685.000; -653.000
212.726;  -68.825; -487.000; -538.000
212.871;  -55.375; -552.000; -217.000
213.016; -146.175;-1172.000;-1029.000
213.161;   62.400;  406.000;  291.000
213.306;  -74.500; -435.000; -577.000
213.451;  -93.100; -778.000; -689.000
213.596;  -48.700; -455.000; -347.000
213.741;  -46.575; -448.000; -538.000
213.886;  -79.275; -498.000; -517.000
214.031;  -20.525; -294.000; -124.000
214.176;  -57.450; -408.000; -341.000
214.321;  -12.075; -296.000; -157.000
214.466;  -28.950; -163.000;  -43.000
214.611;    1.825;  -61.000;  -10.000
214.756; -128.425; -948.000; -858.000
214.901;  -23.000; -388.000; -226.000
215.046; -120.375; -797.000; -825.000
215.191;   21.700;  128.000;   35.000
215.336;   -7.775; -157.000;  -19.000
215.480;  -68.725; -684.000; -505.000
215.625;  -26.175; -175.000;  -19.000
215.770;  -85.625; -757.000; -662.000
215.915;   -3.075;   -5.000;  -97.000
216.060;    6.300; -113.000;  -21.000
216.205; -109.325; -731.000; -779.000
216.349;  -71.875; -470.000; -533.000
216.494; -135.425; -939.000; -867.000
216.639; -112.375; -823.000; -888.000
216.784;  -86.200; -577.000; -525.000
216.929;   43.575;  392.000;  281.000
217.073;    1.175; -244.000;  -31.000
217.218;   10.825;   78.000;  -47.000
217.363;  -90.275; -656.000; -618.000
217.507;  -76.450; -623.000; -588.000
217.652; -125.325; -845.000; -874.000
217.797;  -81.775; -708.000; -659.000
217.942; -116.550; -856.000; -720.000
218.086;   72.750;  608.000;  539.000
218.231;  -29.650; -174.000;  -26.000
218.376;  -40.425; -337.000; -229.000
218.520;   -0.425;  -41.000;   96.000
218.665;  -32.850; -338.000; -204.000
218.810;  -33.625; -275.000; -233.000
218.954;   19.000;  201.000;   35.000
219.099; -114.450; -713.000; -963.000
219.243;  -63.375; -589.000; -554.000
219.388;  -27.150; -264.000; -136.000
219.532;   -8.200; -116.000; -116.000
219.677;  -73.175; -564.000; -521.000
219.822;    8.350;   33.000;   89.000
219.966;   20.175;   17.000;  -99.000
220.111;  -36.300; -328.000;  -40.000
220.255;  -87.150; -797.000; -750.000
220.400;   -4.375; -180.000; -146.000
220.544;  -71.600; -516.000; -450.000
220.689;  -47.025; -422.000; -451.000
220.833;  -29.200; -123.000;  -58.000
220.978;  -52.800; -393.000; -563.000
221.122;   22.850;  319.000;  307.000
221.267; -111.175; -906.000; -837.000
221.411;  -71.125; -478.000; -394.000
221.555;   -5.825; -104.000;  -23.000
221.700;  -42.775; -329.000; -222.000
221.844;   27.450;  255.000;  272.000
221.989;  -43.700; -328.000; -311.000
222.133;  -32.675; -289.000; -307.000
222.277;  -18.500;    5.000;   78.000
222.422;   22.400;  227.000;  113.000
222.566;  -40.050; -381.000; -214.000
222.711;  -46.250; -414.000; -479.000
222.855;  -84.300; -643.000; -586.000
222.999;  -74.100; -642.000; -717.000
223.144;  -27.075; -195.000; -194.000
223.288;   44.575;  423.000;  251.000
223.432;   19.750;  184.000;  230.000
223.576;   32.450;  152.000;  -21.000
223.721;   35.150;  364.000;  273.000
223.865;  -46.775; -472.000; -475.000
224.009;  263.725; 1673.000; 1631.000
224.153;  -75.450; -660.000; -671.000
224.298;  -81.675; -531.000; -489.000
224.442;  -15.525;  -74.000;  -33.000
224.586;  -17.075; -169.000; -106.000
224.730; -100.525; -858.000; -670.000
224.875; -108.850; -739.000; -688.000
225.019;   15.875;  102.000;  188.000
225.163;   51.875;  208.000;  341.000
225.307;   14.200;   97.000;  -91.000
225.451;   47.400;  360.000;  481.000
225.595;   36.600;  264.000;  176.000
225.739;  -20.875; -170.000;  -94.000
225.884;    8.350;   86.000;    5.000
226.028; -102.600; -760.000; -626.000
226.172;  -25.550; -260.000; -273.000
226.316; -109.825; -941.000; -902.000
226.460;  -63.875; -645.000; -493.000
226.604;  -43.850; -406.000; -400.000
226.748;  -97.025; -836.000; -733.000
226.892;  -36.825; -227.000; -181.000
227.036;  -41.175; -537.000; -447.000
227.180;  -45.575; -551.000; -375.000
227.324;  -55.800; -561.000; -580.000
227.468; -117.350; -819.000; -717.000
227.612;   18.100;  242.000;  -28.000
227.756;  -94.475; -845.000; -698.000
227.900;   55.850;  342.000;  441.000
228.044;  -47.225; -509.000; -290.000
228.188;   61.050;  448.000;  568.000
228.332;  -93.050; -546.000; -472.000
228.476;  -31.950; -223.000; -149.000
228.620;  -32.775; -210.000; -150.000
228.764;   63.875;  431.000;  349.000
228.908;  -22.025; -155.000;   30.000
229.052;  -58.450; -615.000; -528.000
229.195;  -17.200; -172.000;   13.000
229.339;  -25.975; -235.000; -305.000
229.483;  -29.575;    5.000; -162.000
229.627;   -7.975; -156.000;  139.000
229.771;  -45.800; -218.000; -294.000
229.915;    8.150;  230.000;   79.000
230.059;  -78.000; -648.000; -663.000
230.202;  -30.075; -370.000; -317.000
230.346;  -39.500; -107.000;  107.000
230.490;  -70.225; -489.000; -521.000
230.634; -105.325; -736.000; -553.000
230.777;   85.475;  478.000;  509.000
230.921;  -51.525; -450.000; -359.000
231.065;  -45.800; -246.000; -286.000
231.209;   38.175;  261.000;  265.000
231.352;   25.975;   54.000;   40.000
231.496;    9.300;  568.000;  188.000
231.640;  -91.275; -693.000; -621.000
231.783;   59.725;  546.000;  525.000
231.927;  -44.075; -294.000; -365.000
232.071; -114.375; -962.000; -736.000
232.214;  -96.325; -980.000; -764.000
232.358;  -97.975; -683.000; -599.000
232.502;    7.950;  -19.000;    7.000
232.645; -127.725;-1090.000; -927.000
232.789;  -24.975; -257.000; -218.000
232.933;  -50.775; -407.000; -224.000
233.076; -118.175;-1038.000; -897.000
233.220; -107.725; -752.000; -777.000
233.363;  -78.075; -669.000; -477.000
233.507;   51.750;  371.000;  129.000
233.650;  -85.675; -764.000; -834.000
233.794;   31.050;  438.000;  461.000
233.938;  -57.725; -530.000; -362.000
234.081;  -19.950;  -93.000;   31.000
234.225;  -69.375; -631.000; -539.000
234.368; -120.000; -773.000; -723.000
234.512;  -40.050; -385.000; -299.000
234.655; -102.050; -582.000; -555.000
234.798;  -58.500; -493.000; -466.000
234.942; -125.550; -884.000;-1002.000
235.085;  -76.425; -651.000; -443.000
235.229;  -83.850; -405.000; -410.000
235.372;  -56.200; -247.000; -191.000
235.516;  -55.100; -397.000; -321.000
235.659;   21.775;   92.000;  121.000
235.802;  -16.000;  -38.000;  -22.000
235.946;   30.900;  335.000;  215.000
236.089;   39.525;  126.000;  250.000
236.233;   48.800;  275.000;  298.000
236.376;  -68.500; -235.000; -378.000
236.519;  -30.100; -297.000; -319.000
236.663;  -29.475; -215.000; -117.000
236.806; -135.400;-1029.000; -999.000
236.949;   61.425;  543.000;  431.000
237.092;   62.725;  412.000;  391.000
237.236;  -89.675; -589.000; -502.000
237.379;   74.825;  352.000;  428.000
237.522; -112.725; -879.000; -768.000
237.666;   -7.600; -271.000;   18.000
237.809; -133.375; -851.000; -823.000
237.952;   40.250;  469.000;  271.000
238.095;  -63.200; -447.000; -442.000
238.238;   91.575;  688.000;  700.000
238.382;   -2.200;  166.000;  103.000
238.525;  -74.450; -598.000; -511.000
238.668; -144.075;-1060.000; -985.000
238.811;  -81.075; -638.000; -643.000
238.954;  -64.550; -483.000; -334.000
239.097;   88.600;  617.000;  664.000
239.241;   31.950;  394.000;  326.000
239.384;  -37.300; -254.000; -214.000
239.527;  -69.450; -424.000; -224.000
239.670; -138.125; -994.000;-1091.000
239.813; -114.725; -696.000; -658.000
239.956;   69.700;  579.000;  473.000
240.099; -107.325; -778.000; -725.000
240.242;   57.900;  428.000;  432.000
240.385;   38.675;  466.000;  450.000
240.528;  -80.250; -706.000; -473.000
240.671;   18.750;  189.000;  134.000
240.814;  -43.425; -441.000; -158.000
240.957;  -98.150; -767.000; -578.000
241.100;  -93.425; -779.000; -755.000
241.243; -131.900;-1234.000; -893.000
241.386;  -65.700; -508.000; -379.000
241.529;  -83.850; -735.000; -547.000
241.672;  -56.100; -566.000; -495.000
241.815; -110.300; -832.000; -808.000
241.958;  -23.975; -125.000; -182.000
242.101;  -62.800; -545.000; -390.000
242.244;  -37.875; -270.000; -325.000
242.387;  -35.125; -304.000; -246.000
242.530;   64.000;  470.000;  134.000
242.673;  -35.100; -381.000; -309.000
242.815; -112.925; -925.000; -899.000
242.958;  -72.975; -482.000; -381.000
243.101;    5.150;  132.000;  187.000
243.244;  -78.800; -564.000; -521.000
243.387;  -52.325; -313.000; -316.000
243.530; -106.475; -657.000; -674.000
243.672;    3.775;   43.000;  -92.000
243.815;  -57.250; -355.000; -283.000
243.958;    8.650;   98.000;  -26.000
244.101;   -4.900;   59.000;  -16.000
244.243;  -17.375;  -47.000;  101.000
244.386; -101.025; -761.000; -630.000
244.529;  -29.400; -132.000; -139.000
244.672; -166.325;-1154.000; -951.000
244.814;  -98.250; -621.000; -794.000
244.957;  -36.200; -380.000; -304.000
245.100;  -71.425; -489.000; -489.000
245.242;  -61.500; -387.000; -374.000
245.385;   -8.975;  -59.000;  -39.000
245.528; -112.200; -871.000; -705.000
245.670;   83.150;  612.000;  634.000
245.813;  -95.525; -599.000; -547.000
245.956;  -30.250; -324.000; -275.000
246.098;  -67.525; -508.000; -650.000
246.241;    6.100;  194.000;   48.000
246.383;  -13.575; -119.000;  -73.000
246.526;  -70.800; -454.000; -525.000
246.669; -106.025; -889.000; -780.000
246.811;    1.475;  172.000;   -1.000
246.954;  -70.575; -512.000; -426.000
247.096;  -15.925;  -84.000;   -6.000
247.239;  -75.625; -482.000; -445.000
247.381;  -63.825; -647.000; -488.000
247.524;   87.025;  645.000;  679.000
247.666;    1.300;   58.000;   11.000
247.809; -123.050; -887.000; -691.000
247.951;  -16.725;  -75.000;  138.000
248.094;   17.950;  432.000;  308.000
248.236; -152.100;-1262.000;-1238.000
248.378;    5.250; -356.000;  -81.000
248.521;  -14.825; -334.000; -337.000
248.663;  -44.875; -236.000; -267.000
248.806;  -19.350; -300.000; -266.000
248.948;  -93.000; -886.000; -763.000
249.090;  -44.350; -428.000; -398.000
249.233;  -48.175; -344.000; -381.000
249.375;  -70.675; -474.000; -451.000
249.518;  -22.525;  -83.000; -133.000
249.660;  -13.075; -103.000;    3.000
249.802; -163.075;-1303.000;-1189.000
249.945;  -74.050; -612.000; -540.000
250.087; -111.625; -834.000; -768.000
250.229;  -50.550; -362.000; -480.000
250.371;  -79.300; -494.000; -439.000
250.514;  -50.250; -310.000; -244.000
250.656;  -70.650;   69.000;  102.000
250.798; -119.325; -849.000; -800.000
250.940;  -50.875; -322.000; -322.000
251.083;  -20.150; -335.000; -111.000
251.225;   63.100;  338.000;  310.000
251.367;  -33.400; -274.000; -373.000
251.509;  -42.575; -265.000; -210.000
251.651; -103.025; -731.000; -671.000
251.794;   47.775;  538.000;  632.000
251.936;  -86.700; -821.000; -747.000
252.078;  -65.975; -540.000; -461.000
252.220;  -66.525; -645.000; -477.000
252.362;   91.175;  344.000;  462.000
252.504;  -46.625; -677.000; -584.000
252.646; -116.775; -875.000; -722.000
252.788;   -9.100;   14.000; -128.000
252.931;  -43.700; -257.000; -253.000
253.073;  -40.425; -376.000; -317.000
253.215;  -11.100;  141.000;  122.000
253.357;  -16.075;   82.000; -153.000
253.499;  -47.850; -374.000; -234.000
253.641;  -83.425; -749.000; -594.000
253.783;  -93.300; -609.000; -527.000
253.925;  -86.525; -586.000; -591.000
254.067; -116.025; -744.000; -667.000
254.209;  -35.350; -391.000; -259.000
254.351; -137.175; -865.000; -883.000
254.493;  -51.925; -441.000; -417.000
254.635; -123.025; -936.000; -818.000
254.777;  -85.475; -752.000; -687.000
254.918;  -68.225; -512.000; -430.000
255.060;  -51.425; -551.000; -395.000
255.202;  -61.500; -473.000; -261.000
255.344;  -78.900; -658.000; -455.000
255.486;  -65.225; -471.000; -406.000
255.628; -109.550; -780.000; -781.000
255.770;  -87.600; -676.000; -536.000
255.912;  -60.575; -559.000; -468.000
256.053;  -95.375; -730.000; -508.000
256.195;  155.750; 1008.000;  903.000
256.337; -107.350; -861.000; -595.000
256.479;   64.125;  532.000;  416.000
256.621;  -46.025; -394.000; -212.000
256.762;  -94.425; -789.000; -742.000
256.904;   57.175;  485.000;  487.000
257.046;  -49.775; -381.000; -271.000
257.188;  -54.900; -351.000; -264.000
257.329;  -79.000; -525.000; -464.000
257.471; -117.650; -939.000; -807.000
257.613;  -71.550; -584.000; -498.000
257.755; -147.225;-1073.000; -982.000
257.896;   36.800;  286.000;  392.000
258.038;  -72.750; -403.000; -352.000
258.180;  -36.750; -354.000; -279.000
258.321;  -86.075; -581.000; -457.000
258.463;    4.775;  -71.000;  133.000
258.605;  -85.500; -562.000; -570.000
258.746; -100.950; -886.000; -772.000
258.888; -149.750;-1026.000;-1020.000
259.029;   10.000;  121.000;   -8.000
259.171;  -95.975; -614.000; -550.000
259.313;   -0.200;  -49.000;  -47.000
259.454;  -87.575; -536.000; -414.000
259.596;  -56.950; -483.000; -390.000
259.737;  -77.025; -590.000; -474.000
259.879;   33.725;  217.000;  311.000
260.020;   83.400;  901.000;  636.000
260.162;  -28.100; -146.000; -253.000
260.303; -116.775; -768.000; -687.000
260.445;  -91.575; -609.000; -613.000
260.586;   15.125;  392.000;  157.000
260.728;  -32.050; -360.000; -248.000
260.869; -114.875; -350.000; -343.000
261.011;   79.500;  706.000;  537.000
261.152;  -67.350; -479.000; -319.000
261.293;  -72.475; -576.000; -595.000
261.435;  -28.725; -219.000; -184.000
261.576;  -43.975; -455.000; -325.000
261.718;   47.600;  420.000;  470.000
261.859; -128.375; -940.000; -949.000
262.000; -114.175; -951.000;-1016.000
262.142;  -21.000;  -52.000;  -60.000
262.283; -121.775; -808.000; -691.000
262.424;  -80.950; -666.000; -625.000
262.566; -149.825;-1161.000; -983.000
262.707; -117.975; -840.000; -830.000
262.848; -132.125; -769.000; -726.000
262.990;  -43.450; -362.000; -345.000
263.131;   81.050;  650.000;  681.000
263.272;   -7.675;  -61.000;  -41.000
263.413;  -90.450; -589.000; -561.000
263.555;  -69.425; -669.000; -143.000
263.696;  -86.375; -550.000; -641.000
263.837;  -55.525; -449.000; -551.000
263.978;   -4.150;   -5.000;  -77.000
264.119;  -41.025; -283.000; -264.000
264.261; -119.600; -847.000; -630.000
264.402;    1.850;   33.000;   40.000
264.543;  -79.425; -509.000; -524.000
264.684;   -8.325;   61.000;  -50.000
264.825;  -78.025; -816.000; -538.000
264.966;   -1.750;  -84.000;  -67.000
265.107; -112.500; -646.000; -670.000
265.248; -121.100; -825.000; -812.000
265.390;   -8.750;  152.000;   -9.000
265.531;  -24.625; -238.000; -107.000
265.672;  -88.975; -557.000; -630.000
265.813;   56.750;  563.000;  439.000
265.954; -155.125; -959.000; -940.000
266.095;   -7.525; -372.000; -322.000
266.236;  -99.725; -686.000; -548.000
266.377;  -47.950; -243.000; -297.000
266.518;  -83.800; -619.000; -547.000
266.659;   23.425;  170.000;  268.000
266.800;    6.900;   83.000;   85.000
266.941;  -71.475; -487.000; -478.000
267.082;    2.125;  354.000;   99.000
267.223;  -48.800; -344.000; -273.000
267.364; -122.125; -892.000; -686.000
267.504;    3.800;    3.000;  135.000
267.645;   -3.100;  160.000;   67.000
267.786;  -28.825; -147.000;  -86.000
267.927;  -80.075; -473.000; -379.000
268.068;  -21.725; -186.000;  -61.000
268.209;  -39.625; -175.000; -413.000
268.350;  -62.275; -388.000; -532.000
268.490;  -88.900; -648.000; -521.000
268.631;   24.575;  127.000;  225.000
268.772; -113.175; -874.000; -647.000
268.913;  -60.200; -328.000; -476.000
269.054;  -25.350; -117.000;   12.000
269.194;  -57.550; -418.000; -402.000
269.335; -172.075;-1137.000;-1074.000
269.476;  -17.375;   33.000;  -35.000
269.617;  -52.875; -347.000; -392.000
269.757;  -91.450; -713.000; -646.000
269.898;  -90.000; -856.000; -613.000
270.039;  -64.075; -415.000; -405.000
270.180; -136.200; -952.000; -816.000
270.320;  -34.750; -190.000; -250.000
270.461;  -47.300; -277.000; -249.000
270.602;  -13.725; -186.000; -156.000
270.742; -128.550; -868.000; -943.000
270.883;  -53.800; -442.000; -390.000
271.023;  -59.925; -358.000; -357.000
271.164;  -84.475; -607.000; -528.000
271.305;  -96.450; -666.000; -654.000
271.445;  -90.400; -722.000; -683.000
271.586;  -81.875; -462.000; -283.000
271.726;  -40.050; -397.000; -322.000
271.867;  -58.400; -594.000; -534.000
272.008;  168.350; -473.000; -285.000
272.148;  121.775;  462.000;  468.000
272.289;   24.475; -113.000; -181.000
272.429;    6.275;   19.000;  185.000
272.570;  -90.925; -633.000; -737.000
272.710;  -95.925; -825.000; -775.000
272.851;  -33.775;  113.000; -130.000
272.991; -162.225;-1173.000;-1077.000
273.131;  -62.600; -419.000; -459.000
273.272;  -85.800; -683.000; -723.000
273.412;    2.850; -143.000;  -31.000
273.553;  -59.575; -488.000; -507.000
273.693;  123.125;  913.000;  858.000
273.834;  -92.050; -894.000; -692.000
273.974;  -76.600; -664.000; -615.000
274.114;  -94.050; -772.000; -560.000
274.255;   63.325;  414.000;  373.000
274.395;    7.550; -180.000; -125.000
274.535;   41.725;  199.000;  350.000
274.676;    9.300;  225.000;   94.000
274.816;    6.050;  110.000;   34.000
274.956;  -84.300; -624.000; -690.000
275.097;  -66.075;-1014.000; -922.000
275.237; -103.925; -913.000; -803.000
275.377;  -99.175; -778.000; -689.000
275.517; -163.075; -878.000; -937.000
275.658;  -60.300; -590.000; -555.000
275.798;  -88.200; -606.000; -413.000
275.938;   22.650;  215.000;  323.000
276.078; -106.800; -626.000; -395.000
276.218;   -6.825;   99.000;  104.000
276.359; -132.875;-1026.000;-1024.000
276.499;  -72.025; -605.000; -446.000
276.639;  -27.075; -305.000; -151.000
276.779;  -39.625; -475.000; -357.000
276.919; -100.150; -783.000; -624.000
277.059;  -21.475; -261.000; -212.000
277.199;  -52.725; -357.000; -259.000
277.340;   38.675;  287.000;  175.000
277.480; -117.000; -840.000; -693.000
277.620;   30.375;  192.000;   16.000
277.760; -202.125;-1533.000;-1294.000
277.900;   13.300;  113.000;   33.000
278.040;   -1.775;  137.000;  159.000
278.180;   44.625;  270.000;  170.000
278.320;   -4.775;   21.000;   56.000
278.460;  -80.075; -443.000; -469.000
278.600;  -91.450; -708.000; -598.000
278.740;   53.375;  448.000;  224.000
278.880;  -68.625; -768.000; -791.000
279.020;  -18.325; -194.000; -144.000
279.160;  -92.800; -672.000; -595.000
279.300; -105.325; -926.000; -873.000
279.440;  -98.125; -709.000; -622.000
279.579;  -25.175;-1014.000; -929.000
279.719;  -56.750; -410.000; -394.000
279.859;   84.800;   -4.000;   41.000
279.999;   24.375; -208.000;  101.000
280.139;   -9.450; -435.000; -387.000
280.279;  -85.800; -708.000; -745.000
280.419;  -12.125; -229.000; -147.000
280.559;  -30.675; -259.000; -180.000
280.698;  -74.450; -790.000; -639.000
280.838; -107.300; -778.000; -800.000
280.978;  -94.500; -846.000; -790.000
281.118; -114.950; -811.000; -704.000
281.257;    2.650;   24.000;    6.000
281.397; -124.125;-1094.000; -960.000
281.537;  -75.850; -599.000; -712.000
281.677;  -31.625; -150.000; -101.000
281.816;  -96.950; -700.000; -630.000
281.956;  -28.950; -193.000; -257.000
282.096;  -68.175; -539.000; -396.000
282.235; -118.575; -672.000; -638.000
282.375;  -22.700; -243.000;  -98.000
282.515; -112.750; -715.000; -707.000
282.654;   25.475;   29.000;  106.000
282.794;   19.225;  388.000;  244.000
282.934;  -57.325; -530.000; -491.000
283.073; -143.650;-1030.000; -857.000
283.213;  -65.950; -460.000; -467.000
283.353;  -42.950; -408.000; -349.000
283.492;  -26.400; -264.000; -296.000
283.632;  -44.175; -254.000; -168.000
283.771;  -99.100; -859.000; -730.000
283.911;  -47.825; -369.000; -260.000
284.050; -112.925; -794.000; -748.000
284.190; -162.400;-1229.000;-1096.000
284.329; -134.400;-1055.000; -964.000
284.469;  -82.275; -516.000; -591.000
284.608;  -54.350; -559.000; -598.000
284.748;  -75.825; -614.000; -570.000
284.887;   -7.075;  -87.000;  -20.000
285.027; -133.200; -844.000; -892.000
285.166;  -24.700; -192.000; -249.000
285.306;    7.925; -116.000;  -33.000
285.445;  -34.350; -229.000; -343.000
285.584; -101.925; -630.000; -494.000
285.724;  -48.900; -282.000; -322.000
285.863; -118.725; -857.000; -507.000
286.002;  -51.375; -366.000; -276.000
286.142; -120.925; -715.000; -622.000
286.281;  -73.925; -525.000; -493.000
286.420;  -89.425; -554.000; -417.000
286.560;   86.750;  653.000;  623.000
286.699; -147.575; -958.000; -912.000
286.838;  -76.750; -590.000; -591.000
286.978;  -95.875; -533.000; -537.000
287.117; -127.400;-1085.000; -950.000
287.256;  -43.050; -228.000; -211.000
287.395;  -54.225; -197.000; -378.000
287.535;  -55.650; -370.000; -298.000
287.674;  -81.400; -509.000; -484.000
287.813;   54.475;  661.000;  533.000
287.952; -133.750;-1010.000; -871.000
288.091; -151.550;-1049.000; -915.000
288.231;   12.175;   13.000;   15.000
288.370; -175.500;-1217.000;-1200.000
288.509; -100.850; -728.000; -645.000
288.648;  -92.925; -770.000; -548.000
288.787;  -44.375; -243.000;  -87.000
288.926;  -64.925; -454.000; -475.000
289.065;  118.800;  859.000;  672.000
289.204;  -49.825; -377.000; -217.000
289.344; -108.000; -791.000; -690.000
289.483;   25.650;  416.000;  304.000
289.622;  -27.475; -291.000; -149.000
289.761;  -25.150; -309.000; -166.000
289.900; -105.725; -785.000; -626.000
290.039;  -28.275;  -12.000;  -95.000
290.178;  -38.825; -274.000; -180.000
290.317;  -67.500; -618.000; -479.000
290.456;  -70.600; -463.000; -451.000
290.595; -143.300; -961.000; -833.000
290.734; -144.100; -904.000; -891.000
290.873;  -73.550; -456.000; -420.000
291.011;  -97.750; -833.000; -843.000
291.150; -115.050; -770.000; -682.000
291.289;  -11.350; -343.000; -110.000
291.428; -106.350; -599.000; -480.000
291.567;  -52.600; -370.000; -442.000
291.706;   -3.600;  109.000;  154.000
291.845;  -78.825; -597.000; -505.000
291.984; -171.175;-1234.000;-1061.000
292.122;   78.325;  602.000;  582.000
292.261;   44.950;  620.000;  463.000
292.400;   -0.475; -144.000;  211.000
292.539; -126.800; -959.000; -813.000
292.678;  -33.900; -325.000; -300.000
292.816; -157.650;-1136.000; -965.000
292.955;  -87.975; -844.000; -684.000
293.094;  -42.500; -173.000; -337.000
293.233;  -54.675; -556.000; -400.000
293.371;  -42.175; -225.000;  -84.000
293.510; -109.075; -866.000; -780.000
293.649; -135.675; -959.000; -924.000
293.787;  -90.050;-1083.000;-1012.000
293.926;    1.000; -113.000;  -32.000
294.065;  -44.150; -379.000; -290.000
294.203;   49.200;  298.000;  406.000
294.342;   39.150;   74.000;  156.000
294.481; 5963.700;51180.000; -836.000
294.619;  -25.950; -425.000; -582.000
294.758; -146.050;-1230.000;-1137.000
294.896;   69.525; -125.000;    5.000
295.035; -130.325;-1040.000;-1006.000
295.174; -114.575;-1082.000; -954.000
295.312;  -49.825; -323.000; -203.000
295.451;  -17.350; -307.000; -428.000
295.589;  -54.275; -389.000; -518.000
295.728;    7.250; -292.000; -165.000
295.866;   -9.175;  -36.000;  -51.000
296.005;  -64.125; -584.000; -341.000
296.143;  -73.700; -558.000; -596.000
296.282; -108.925; -957.000; -881.000
296.420;  -93.650; -657.000; -557.000
296.559;  -81.525; -892.000; -633.000
296.697;   16.250; -847.000; -665.000
296.835;   44.875;-1141.000;-1002.000
296.974;   52.725;  -23.000;   39.000
297.112;   -0.125; -443.000; -504.000
297.251;  -87.300; -815.000; -755.000
297.389;   88.050; -576.000; -438.000
297.527;   28.500; -145.000;  -83.000
297.666;  -37.400; -486.000; -438.000
297.804;  -51.300; -404.000; -264.000
297.942;   -4.575; -136.000; -161.000
298.081;   -8.475; -183.000;   63.000
298.219;   47.825;  -17.000;  -19.000
298.357;   44.950; -144.000;  -71.000
298.495;   25.225; -810.000; -812.000
298.634;   61.100;  245.000;  219.000
298.772;   45.375; -220.000; -338.000
298.910;  -35.875; -309.000; -182.000
299.048;  -17.650; -130.000; -153.000
299.187;  -35.100; -350.000; -250.000
299.325;   16.550;   52.000;  122.000
299.463;   34.725; -389.000; -299.000
299.601;   89.825; -327.000; -271.000
299.739; -111.975; -908.000; -883.000
299.877;  -85.925; -791.000; -703.000
300.016;  -42.150;-1095.000; -935.000
300.154;  143.225;  -19.000; -161.000
300.292;   42.575; -428.000; -348.000
300.430;   15.225; -408.000; -291.000
300.568; -121.725; -940.000; -874.000
300.706;  -52.500; -366.000; -469.000
300.844;  -75.400;-1108.000; -979.000
300.982;  103.875;  246.000;  282.000
301.120; -126.875; -965.000; -866.000
301.258;  -72.275; -812.000; -705.000
301.396;   20.125;  104.000;  -41.000
301.534;   59.000; -218.000; -293.000
301.672;  -22.725; -664.000; -521.000
301.810;   12.575; -613.000; -545.000
301.948;   92.150;   53.000;  149.000
302.086;  596.400; -250.000;  -32.000
302.224;  892.825; -610.000; -585.000
302.362;   14.475; -558.000; -622.000
302.500;  -32.175; -923.000; -893.000
302.638;   90.325;  128.000;  245.000
302.776;   -9.975; -352.000; -408.000
302.913;   55.050;  447.000;  236.000
303.051;   -5.575;  -86.000;  -23.000
303.189;   54.250;   90.000;  118.000
303.327;  -35.850; -341.000; -256.000
303.465;  -82.175; -832.000; -588.000
303.603; -110.850; -805.000; -604.000
303.740;   90.925;  417.000;  241.000
303.878;   -2.925; -800.000; -759.000
304.016;  -87.900; -915.000; -790.000
304.154; -148.625;-1123.000;-1152.000
304.291;  -35.025; -505.000; -554.000
304.429;   -0.850;  102.000;   74.000
304.567; -125.575; -908.000; -893.000
304.705;  -65.150; -408.000; -515.000
304.842;   89.100; -616.000; -540.000
304.980;   28.900;  215.000;   35.000
305.118;   32.625; -367.000; -365.000
305.255;  -81.600; -945.000; -927.000
305.393;   59.075;  178.000;  239.000
305.531; -110.225;-1173.000; -956.000
305.668;  -85.600; -663.000; -582.000
305.806;  100.300; -358.000; -439.000
305.943;  101.875; -629.000; -637.000
306.081;   55.400; -378.000; -267.000
306.219; -111.375; -863.000; -748.000
306.356;   -4.950;  158.000;   27.000
306.494;   98.950;  981.000;  761.000
306.631;   -1.500;  -11.000;  -55.000
306.769;   -0.225; -613.000; -485.000
306.906;  -31.400; -284.000; -258.000
307.044;  -63.800; -473.000; -488.000
307.181;  -65.350; -410.000; -332.000
307.319;   -1.350;  112.000;   87.000
307.456; -171.900;-1191.000;-1153.000
307.594;  -95.550; -980.000; -727.000
307.731;  -19.075; -371.000; -164.000
307.868;   -3.650;  -15.000;   20.000
308.006; -131.825; -961.000; -847.000
308.143;  -70.975; -618.000; -330.000
308.281;  133.350;  -37.000; -254.000
308.418;  -28.225; -748.000; -640.000
308.555;  -75.700; -400.000; -250.000
308.693;  -70.750; -577.000; -573.000
308.830; -121.775; -712.000; -657.000
308.967;   -1.600; -215.000;  -95.000
309.105;  -51.750; -507.000; -396.000
309.242;   28.875; -468.000; -367.000
309.379;  262.175; -577.000; -655.000
309.517;  -73.300; -936.000; -948.000
309.654; -110.475; -910.000; -734.000
309.791;  -82.975; -662.000; -580.000
309.928; -124.200; -977.000; -914.000
310.065;  150.050;  819.000;  697.000
310.203;  -15.125; -825.000; -850.000
310.340;  -20.300; -465.000; -321.000
310.477;  -73.300; -412.000; -516.000
310.614;  -65.450; -383.000; -473.000
310.751;  -86.625; -427.000; -518.000
310.889;  -28.200;    1.000;   11.000
311.026; -159.075;-1161.000; -939.000
311.163;  -59.400; -386.000; -380.000
311.300;  -77.000; -512.000; -479.000
311.437;  -86.050; -658.000; -619.000
311.574; -148.925;-1226.000; -985.000
311.711;  -54.000; -595.000; -433.000
311.848;  -53.400; -380.000; -388.000
311.985;    9.350;  270.000;   93.000
312.122; -140.300; -932.000; -762.000
312.259; -133.900; -941.000; -994.000
312.396;  -86.175; -508.000; -551.000
312.533;  -85.350; -812.000; -790.000
312.670; -139.150;-1070.000; -898.000
312.807;  -31.200; -352.000; -367.000
312.944;  -92.900; -513.000; -611.000
313.081;  -46.225; -150.000; -415.000
313.218; -121.000;-1111.000; -867.000
313.355;   -1.500; -531.000; -449.000
313.492;   -3.950; -455.000; -292.000
313.629;  127.675;  815.000;  735.000
313.766; -158.725;-1176.000;-1008.000
313.902;  -19.600; -186.000;   21.000
314.039;  -54.575; -372.000; -289.000
314.176;   32.025;  286.000;  192.000
314.313;  -76.550; -569.000; -473.000
314.450;  -64.275; -788.000; -684.000
314.587;  -59.075; -468.000; -480.000
314.723;    7.150;  -78.000;  130.000
314.860;   20.350;  318.000;  332.000
314.997;   28.775;  223.000;  142.000
315.134;  -60.600; -385.000; -368.000
315.270;  -33.700; -480.000; -496.000
315.407; -118.475;-1094.000; -967.000
315.544;  -49.900; -657.000; -538.000
315.681;  -55.150; -681.000; -565.000
315.817;   22.825; -133.000; -176.000
315.954;    9.650; -613.000; -392.000
316.091; -130.025;-1045.000;-1023.000
316.227;  -33.700;  -71.000; -179.000
316.364;   -8.800;   23.000;    6.000
316.500;  -54.175; -113.000; -300.000
316.637;  -45.875; -181.000; -302.000
316.774;  -89.075; -625.000; -358.000
316.910;  -96.550; -598.000; -629.000
317.047;  -73.800; -487.000; -351.000
317.183;  -43.000; -435.000; -566.000
317.320;   -5.250; -367.000; -321.000
317.456;  -65.500; -733.000; -805.000
317.593;  -91.000; -598.000; -641.000
317.729;    8.900;  168.000;  -67.000
317.866; -201.825;-1434.000;-1285.000
318.002;  -90.300; -708.000; -948.000
318.139; -107.250; -883.000; -867.000
318.275; -110.300;-1003.000; -738.000
318.412;  -73.550; -517.000; -336.000
318.548;  -38.950; -751.000; -720.000
318.685; -106.100; -985.000; -888.000
318.821;  -89.850; -762.000; -735.000
318.957;  -22.450;   34.000;  -23.000
319.094;   29.675;  297.000;  154.000
319.230;  -64.225; -756.000; -742.000
319.367;  115.400; -471.000; -520.000
319.503;   43.800; -538.000; -436.000
319.639;  -95.425; -877.000; -793.000
319.775;  -54.675; -750.000; -685.000
319.912;  -60.675; -424.000; -519.000
320.048;  -93.725;-1184.000;-1184.000
320.184;   94.725;   59.000;   70.000
320.321;  -49.250; -497.000; -467.000
320.457;   72.000;  475.000;  662.000
320.593;  -67.600; -375.000; -382.000
320.729; -110.050; -732.000; -734.000
320.866;  -71.075; -577.000; -635.000
321.002;  -82.300; -759.000; -809.000
321.138;  -16.950; -135.000; -211.000
321.274;   98.775; -148.000; -115.000
321.410;  -38.650; -585.000; -353.000
321.546;  -43.000;-1011.000; -911.000
321.683;   52.250;  400.000;  185.000
321.819;    4.600;  -48.000; -117.000
321.955; -114.050; -743.000; -722.000
322.091;  -54.975; -585.000; -540.000
322.227;   -7.575; -382.000; -202.000
322.363;  -29.350; -320.000; -215.000
322.499;  -59.375; -343.000; -331.000
322.635;  153.950;  636.000;  443.000
322.771;   14.375; -139.000;   12.000
322.907;   89.625;  129.000;  327.000
323.043;  -36.650; -115.000; -206.000
323.179;  -46.600; -394.000; -363.000
323.315;    2.325; -401.000; -371.000
323.451;   81.075; -328.000; -236.000
323.587;   68.625;  -60.000;  -77.000
323.723;    4.150; -682.000; -601.000
323.859;  -25.225; -258.000;  -76.000
323.995;  -43.100; -467.000; -409.000
324.131; -118.300; -967.000; -892.000
324.267;  -44.550; -254.000; -276.000
324.402; -140.850; -960.000; -983.000
324.538;   -7.900; -279.000; -104.000
324.674;   13.925;  164.000;   77.000
324.810;   99.800;  226.000;  308.000
324.946;  -14.450; -810.000; -658.000
325.082;  -79.925; -568.000; -475.000
325.217;  -12.425;  -62.000;   16.000
325.353;  -96.150; -764.000; -659.000
325.489;  -93.750; -540.000; -506.000
325.625;  -78.875; -579.000; -525.000
325.760;   55.325;  517.000;  376.000
325.896;  -23.650; -515.000; -702.000
326.032;  -42.800; -403.000; -352.000
326.168;  -66.375; -462.000; -369.000
326.303;  -67.550; -352.000; -461.000
326.439;  -32.375; -336.000; -276.000
326.575;    7.975; -190.000;  -29.000
326.710;    1.725; -156.000;  -30.000
326.846;   -9.800;  146.000;  103.000
326.982;  -89.975; -530.000; -548.000
327.117;  -90.500; -481.000; -442.000
327.253;  -82.125; -745.000; -742.000
327.388; -149.900;-1137.000;-1153.000
327.524;  -55.300; -811.000; -578.000
327.659;  -25.625;  -58.000;  -22.000
327.795;  -25.100;   69.000;   45.000
327.931;  -86.800; -723.000; -499.000
328.066;  -30.100; -417.000; -276.000
328.202;  -38.425;   12.000; -129.000
328.337;   98.950;  957.000;  713.000
328.473;   44.875;  -12.000;  -74.000
328.608;  -26.350; -256.000; -267.000
328.743;  -97.025; -799.000; -664.000
328.879;    4.800;  214.000;  114.000
329.014;  -38.775; -102.000; -122.000
329.150;  -76.600; -358.000; -483.000
329.285;  -86.850; -465.000; -466.000
329.421;  -55.075; -548.000; -246.000
329.556;  -27.100;  -36.000;   85.000
329.691;  -95.475; -633.000; -615.000
329.827;  -88.475; -626.000; -480.000
329.962;  -48.750;  131.000; -301.000
330.097;  -86.175; -673.000; -585.000
330.233;  -48.475; -410.000; -223.000
330.368; -130.125; -839.000; -628.000
330.503;  -17.150;    3.000;   98.000
330.638;   -8.400;  -93.000; -125.000
330.774;  -63.250; -609.000; -530.000
330.909;  -45.950; -434.000; -244.000
331.044;  -98.175; -714.000; -708.000
331.179; -180.175;-1217.000;-1109.000
331.315;    5.050;   77.000;   20.000
331.450;    9.475;  157.000;  285.000
331.585;  -95.225; -805.000; -706.000
331.720;  -95.475; -510.000; -460.000
331.855;   -2.675;  -35.000; -102.000
331.990;  245.225;   62.000;  138.000
332.126;  138.925; -110.000;   71.000
332.261;  -32.250; -379.000; -265.000
332.396;   -7.450; -135.000; -242.000
332.531; -100.500;-1074.000;-1031.000
332.666;   32.775; -519.000; -363.000
332.801; -116.000; -726.000; -807.000
332.936;  -22.700; -192.000; -122.000
333.071; -148.400; -870.000; -817.000
333.206;   18.800;  307.000;  379.000
333.341;   28.125;  344.000;  418.000
333.476;  -86.875; -627.000; -623.000
333.611;  -50.075; -251.000; -173.000
333.746;  -42.525; -381.000; -464.000
333.881; -132.700; -973.000; -935.000
334.016; -131.975; -936.000; -917.000
334.151; -132.625; -746.000; -702.000
334.286;   16.850;  152.000;  186.000
334.421;  -15.900; -125.000; -178.000
334.556;  -85.600; -611.000; -567.000
334.690;  -96.875; -631.000; -577.000
334.825;   46.800;  381.000;   83.000
334.960;  -68.350; -285.000; -413.000
335.095;   14.850;  135.000;  -91.000
335.230; -106.875; -722.000; -738.000
335.365; -131.675;-1084.000; -990.000
335.499; -148.775;-1108.000;-1037.000
335.634;    9.175;    9.000;  534.000
335.769; -107.650; -755.000; -720.000
335.904;  -76.050; -603.000; -561.000
336.038;  -71.875; -735.000; -657.000
336.173; -130.800;-1206.000;-1194.000
336.308;   -3.725; -116.000; -189.000
336.443;    8.325; -544.000; -634.000
336.577;  -86.575; -936.000; -787.000
336.712;   59.200;   -4.000;  -12.000
336.847;  -41.075; -724.000; -607.000
336.981;   63.500; -272.000; -208.000
337.116;  284.650;  615.000;  501.000
337.250;  127.800; -434.000; -421.000
337.385;  261.175; -297.000; -208.000
337.520;   99.725; -632.000; -603.000
337.654;  -59.725; -215.000; -126.000
337.789; -136.500; -989.000; -933.000
337.923;  -24.450; -104.000; -205.000
338.058;  -91.025; -673.000; -738.000
338.192;  -53.225; -611.000; -488.000
338.327;  -25.425;  -18.000; -155.000
338.461;  -64.225; -299.000; -469.000
338.596;  -87.150; -780.000; -638.000
338.730; -114.325; -767.000; -803.000
338.865;   91.075;  -46.000; -140.000
338.999;  -58.850; -846.000; -702.000
339.134;  -19.900; -634.000; -536.000
339.268;    8.825; -741.000; -603.000
339.403;  354.150; -740.000; -775.000
339.537;  110.175; -894.000; -820.000
339.671; -109.675; -829.000; -813.000
339.806;  -66.700; -556.000; -512.000
339.940;    5.375; -261.000; -235.000
340.074; -100.900; -685.000; -510.000
340.209;  -40.725; -351.000; -230.000
340.343;  -93.075; -517.000; -573.000
340.477;  142.675;  998.000; 1036.000
340.612;  -51.725;-1033.000; -900.000
340.746;  130.625; -199.000; -243.000
340.880;  -80.925; -924.000; -785.000
341.014;  -20.550;  -45.000; -154.000
341.149; -112.775; -756.000; -718.000
341.283; -117.125; -839.000; -754.000
341.417; -111.500;-1124.000; -938.000
341.551;  104.075; -768.000; -708.000
341.685;  -20.700; -633.000; -611.000
341.820;  -58.600; -562.000; -493.000
341.954;  -74.200; -218.000; -349.000
342.088; -144.525;-1102.000;-1019.000
342.222;   45.550;  565.000;  618.000
342.356;  -46.400; -395.000; -335.000
342.490; -100.025; -880.000; -841.000
342.624;  -57.000; -339.000; -242.000
342.758;  -23.400; -364.000; -312.000
342.892;  -69.350; -710.000; -585.000
343.026;  -42.275;  -58.000; -116.000
343.160;  -59.425; -426.000; -376.000
343.294;  -71.650; -474.000; -337.000
343.428;  -34.475; -488.000; -448.000
343.562;  -12.550; -172.000;  -23.000
343.696;  -27.500; -385.000; -314.000
343.830;  -33.900; -362.000; -356.000
343.964;   12.075; -231.000; -168.000
344.098;  845.250;  199.000;   70.000
344.232;  699.050; -266.000; -127.000
344.366;   82.550; -567.000; -453.000
344.500;   52.600; -665.000; -744.000
344.634;   24.325; -324.000; -164.000
344.768;  -18.350; -531.000; -341.000
344.902;    8.925;  278.000;  256.000
345.035;  -67.775; -556.000; -496.000
345.169; -145.800; -933.000; -656.000
345.303;  -32.000; -308.000; -482.000
345.437;  -85.850; -826.000; -717.000
345.571;  -66.100; -675.000; -594.000
345.704;  -74.750; -309.000; -532.000
345.838;  -30.625; -331.000; -284.000
345.972;  -51.125; -543.000; -495.000
346.106;  169.575; -179.000; -190.000
346.239;  400.250; -312.000; -243.000
346.373;   -5.700; -343.000; -302.000
346.507; -148.125; -950.000; -962.000
346.640;  137.100;  -30.000;   13.000
346.774;  -52.475; -650.000; -797.000
346.908;  -26.025; -138.000;  -11.000
347.041;  -98.950; -646.000; -593.000
347.175;   -2.550;  259.000;   27.000
347.309;  -75.225; -698.000; -628.000
347.442;  -91.600; -883.000; -732.000
347.576;  265.875;  670.000;  668.000
347.709;  167.750; -123.000;  -52.000
347.843;  -77.575; -933.000; -825.000
347.976;   35.000;  235.000;  294.000
348.110; -190.900;-1268.000;-1186.000
348.243;  -91.525; -679.000; -772.000
348.377;    4.825;  -26.000;   60.000
348.510;   47.550;  403.000;  540.000
348.644;  -34.800;  -37.000; -159.000
348.777;   -9.525;  180.000;  191.000
348.911;  -58.875; -142.000; -112.000
349.044;  161.725;  471.000;  448.000
349.178;  147.825;-1069.000;-1006.000
349.311;  106.725;  141.000;  255.000
349.444;  -12.300; -927.000; -813.000
349.578;  -14.400; -347.000; -200.000
349.711; -124.175; -959.000; -862.000
349.845;  -11.000; -661.000; -591.000
349.978; -158.750;-1224.000;-1137.000
350.111;  -76.825; -546.000; -612.000
350.244;  -84.300; -596.000; -700.000
350.378;   -6.900; -392.000; -393.000
350.511;  -74.175; -393.000; -426.000
350.644; -106.125; -808.000; -806.000
350.778;   -3.125;  168.000;  104.000
350.911;   -7.775;  134.000;  140.000
351.044; -112.400; -685.000; -615.000
351.177;  -45.200; -321.000; -281.000
351.310;  -20.225;    3.000; -131.000
351.444;  -95.600; -888.000; -788.000
351.577;   98.975;  140.000;   90.000
351.710;   91.650;  593.000;  417.000
351.843;  -39.475; -165.000;  -77.000
351.976;   -3.725;  149.000;  -79.000
352.109;  -84.850; -621.000; -612.000
352.242;  -39.700; -464.000; -419.000
352.376;  -84.425; -580.000; -636.000
352.509;  148.025; -437.000; -356.000
352.642;  -12.950; -654.000; -604.000
352.775;   56.650; -141.000;  -98.000
352.908; -125.250; -933.000; -904.000
353.041; -111.800; -814.000; -824.000
353.174;  -55.750; -551.000; -424.000
353.307;  -81.700; -753.000; -764.000
353.440;   61.500;  541.000;  453.000
353.573; -110.225; -957.000;-1008.000
353.706;  -56.875; -384.000; -558.000
353.839;  -19.450; -264.000; -220.000
353.971;  -95.775; -657.000; -512.000
354.104;  -89.975; -896.000; -835.000
354.237;  -43.000; -627.000; -662.000
354.370; -104.750; -846.000; -879.000
354.503; -195.075;-1231.000;-1308.000
354.636;  -37.625; -529.000; -348.000
354.769; -139.175; -937.000; -860.000
354.902;  -19.400; -230.000; -139.000
355.034;  -43.650; -164.000; -220.000
355.167;  -13.875; -262.000; -162.000
355.300; -100.050;-1061.000; -880.000
355.433;  979.125;  -71.000;  -14.000
355.565; 1541.400; -402.000; -384.000
355.698;  377.275; -356.000; -296.000
355.831;   -5.625; -882.000; -801.000
355.964;   67.450; -285.000; -170.000
356.096;  -83.750; -856.000; -843.000
356.229;  -15.400; -523.000; -530.000
356.362;  320.300; -373.000; -266.000
356.494;  612.425; -229.000; -162.000
356.627;  441.225;  269.000;  377.000
356.760;  652.950;  120.000;   53.000
356.892;  971.200; -286.000; -601.000
357.025;  600.000;  403.000;  389.000
357.157;  548.000; -167.000; -179.000
357.290;  717.125; -856.000; -713.000
357.423;  199.200; -667.000; -556.000
357.555;  100.025; -217.000; -228.000
357.688;   89.525; -483.000; -364.000
357.820;  436.025; -870.000; -877.000
357.953; 3579.825; -563.000; -589.000
358.085;  753.900; -632.000; -612.000
358.218;  976.850;-1131.000; -932.000
358.350;  180.725;  -58.000;  312.000
358.483; -135.725;-1300.000;-1187.000
358.615;  -29.275;-1182.000;-1078.000
358.747;  -70.100;-1187.000;-1058.000
358.880;    8.800; -810.000; -744.000
359.012;  -20.725; -376.000; -202.000
359.145;  -44.475; -480.000; -511.000
359.277;   52.100; -962.000; -913.000
359.409; 2954.025;  536.000;  231.000
359.542;  750.025; -738.000; -688.000
359.674;   63.500;   46.000;   13.000
359.806;  -72.925; -565.000; -438.000
359.939;  -43.375; -617.000; -516.000
360.071;   -8.150; -583.000; -579.000
360.203;  -14.525; -411.000; -364.000
360.335;   47.600;  164.000;  -16.000
360.468;  175.675; -249.000; -307.000
360.600; 2372.800; -547.000; -454.000
360.732; 2973.425; -546.000; -423.000
360.864;  386.450;-1216.000;-1044.000
360.996;  254.975; -516.000; -554.000
361.129;   26.325; -389.000; -598.000
361.261;   19.600;  110.000; -113.000
361.393;  -32.075; -252.000; -214.000
361.525;   30.575;   94.000;  244.000
361.657;  -45.325; -821.000; -703.000
361.789;   -3.925; -139.000; -155.000
361.921;  188.300; -642.000; -593.000
362.053;  250.225;  524.000;  541.000
362.185;   27.200;  288.000;   72.000
362.318;  -86.450; -709.000; -705.000
362.450;  108.300;  294.000;  444.000
362.582;   68.850; -913.000; -870.000
362.714;  -36.800; -353.000; -332.000
362.846;  -98.000; -606.000; -490.000
362.978; -145.200; -941.000; -811.000
363.109;   36.350; -161.000; -260.000
363.241;  387.375; -739.000; -749.000
363.373;  454.825; -649.000; -564.000
363.505;  680.075; -186.000;  -91.000
363.637;  161.675; -787.000; -601.000
363.769; -135.075;-1067.000;-1080.000
363.901;  -75.325; -596.000; -654.000
364.033; -130.100;-1103.000;-1062.000
364.165;   -5.250; -283.000; -283.000
364.296;   60.800; -316.000; -177.000
364.428;   81.250;-1344.000;-1220.000
364.560;  -74.525; -679.000; -661.000
364.692;  -70.000; -738.000; -835.000
364.824;  210.875; -588.000; -456.000
364.955;  453.200; -402.000; -564.000
365.087;  999.525;-1097.000; -852.000
365.219;   29.550; -686.000; -816.000
365.351;  -76.625; -526.000; -572.000
365.482;   48.450;  300.000;  240.000
365.614;  -47.200; -402.000; -314.000
365.746;  -97.150; -729.000; -752.000
365.877; -100.850; -706.000; -672.000
366.009;  273.100;  -35.000;  -62.000
366.141;  -89.825;-1249.000;-1134.000
366.272; -102.075; -803.000; -719.000
366.404; -107.725;-1005.000; -874.000
366.535;  -16.000; -139.000;  -12.000
366.667; -113.500; -644.000; -649.000
366.799;   40.550;  353.000;  203.000
366.930; -128.525; -862.000; -996.000
367.062;  131.025; -639.000; -613.000
367.193;  139.975; -872.000; -842.000
367.325;  -64.750; -580.000; -684.000
367.456;   31.825; -246.000;   31.000
367.588;  160.400; -371.000; -318.000
367.719;   11.575;  -44.000;  -45.000
367.851;  -22.775; -222.000; -241.000
367.982;  -59.075; -875.000; -732.000
368.113;   89.725; -475.000; -358.000
368.245; -129.625; -960.000; -841.000
368.376;  -24.475; -254.000; -302.000
368.508;  -42.850; -188.000; -263.000
368.639; -144.575;-1166.000;-1034.000
368.770;  -33.800; -670.000; -589.000
368.902;  -76.350; -836.000; -926.000
369.033; -104.525; -906.000; -855.000
369.164;  -51.975; -720.000; -653.000
369.296; -111.825; -452.000; -601.000
369.427;  -11.475; -209.000; -144.000
369.558;  -62.425; -593.000; -377.000
369.689;  -87.825; -721.000; -569.000
369.821; -136.625; -951.000; -845.000
369.952;  -18.525;   42.000; -108.000
370.083;  -58.175; -229.000; -108.000
370.214;  -84.025; -735.000; -650.000
370.345;   -3.850;   65.000;   81.000
370.477;  -84.325; -810.000; -790.000
370.608;  194.775; -328.000; -264.000
370.739;  -61.750;-1233.000;-1292.000
370.870;  -43.925;-1102.000; -923.000
371.001;   68.700; -378.000; -467.000
371.132;  -91.800; -754.000; -735.000
371.263;  -13.600;  -42.000; -148.000
371.394; -138.125; -841.000; -748.000
371.525;   31.300;  345.000;  225.000
371.657;  -96.625; -808.000; -670.000
371.788;   71.700;  103.000;  199.000
371.919;  149.700; -384.000; -304.000
372.050; 3422.325;  -91.000; -156.000
372.181; 1014.325; -188.000; -294.000
372.311;  331.550;   42.000; -127.000
372.442;   16.050; -457.000; -451.000
372.573;  -20.050; -444.000; -340.000
372.704; -116.850;-1008.000; -980.000
372.835;   70.600; -228.000; -289.000
372.966;  -83.800; -646.000; -554.000
373.097;  -80.050; -575.000; -711.000
373.228;  -48.775; -717.000; -542.000
373.359;  115.950; -824.000; -536.000
373.490;  843.800; -881.000; -727.000
373.620; 1049.250;-1001.000; -803.000
373.751; 1623.350; -332.000; -396.000
373.882;  708.025; -663.000; -733.000
374.013;   43.250; -449.000; -262.000
374.143;  -49.525; -581.000; -659.000
374.274; -116.825; -987.000; -908.000
374.405;  146.200; -388.000; -276.000
374.536;  402.275; -526.000; -387.000
374.666; 1010.875; -759.000; -807.000
374.797;  196.800; -817.000; -868.000
374.928;  784.950; -710.000; -560.000
375.058;  810.775; -535.000; -500.000
375.189;   74.800;  -59.000;  -93.000
375.320; -124.125; -928.000;-1034.000
375.450;  -51.625; -625.000; -616.000
375.581;  -52.300; -526.000; -436.000
375.712;  -44.900; -574.000; -250.000
375.842;  270.200; -438.000; -415.000
375.973;  184.400; -554.000; -513.000
376.103;  -63.475; -665.000; -648.000
376.234;  -70.750; -531.000; -552.000
376.364;  -56.900; -944.000; -867.000
376.495;  286.275;  925.000;  529.000
376.625;  -20.350; -472.000; -485.000
376.756;   32.975; -709.000; -678.000
376.886;  -94.900;-1178.000;-1026.000
377.017;   50.925;-1048.000;-1061.000
377.147;  350.900; -786.000; -782.000
377.278;   60.900;  174.000;  228.000
377.408; -140.750; -801.000; -815.000
377.538; -104.200; -707.000; -693.000
377.669;  -78.600; -537.000; -613.000
377.799;  -92.975; -645.000; -635.000
377.929;  -63.350; -610.000; -428.000
378.060; -129.450; -781.000; -847.000
378.190;  -63.425; -726.000; -531.000
378.320;  -56.200; -401.000; -406.000
378.451;   -9.700; -131.000;  -22.000
378.581;   -6.325;  -67.000; -110.000
378.711;  138.925; 1035.000;  866.000
378.841;  -33.500; -533.000; -675.000
378.972;  -84.675; -871.000; -751.000
379.102;  -22.350; -652.000; -579.000
379.232;  -29.000; -126.000;  -73.000
379.362; -108.950;-1001.000; -885.000
379.492;    2.450; -373.000; -424.000
379.623;   96.075;    0.000;  111.000
379.753; -116.175;-1107.000; -974.000
379.883;  183.225;   59.000;  156.000
380.013;  -18.175;-1081.000;-1017.000
380.143; -113.100;-1097.000;-1056.000
380.273; -107.275; -985.000; -861.000
380.403;  -21.500; -344.000; -257.000
380.533;  -31.200; -651.000; -664.000
380.663;   54.825;  173.000;  128.000
380.793;  -99.650;-1027.000;-1074.000
380.923;  -39.700; -103.000;  -34.000
381.053;  -97.700; -613.000; -623.000
381.183;  -33.700; -106.000; -248.000
381.313;   10.200; -656.000; -470.000
381.443;   18.650; -692.000; -473.000
381.573;  160.375; -402.000; -409.000
381.703;  212.300;-1249.000;-1095.000
381.833; -143.550;-1454.000;-1336.000
381.963;  103.825; -134.000;  -87.000
382.093; 1327.150; -925.000; -909.000
382.223;  401.875; -713.000; -602.000
382.353;  -26.850; -801.000; -608.000
382.482;  312.475;-1091.000; -964.000
382.612;  689.725; -872.000; -644.000
382.742;  397.975; -695.000; -622.000
382.872;  220.750; -565.000; -551.000
383.002;   47.525;  347.000; -132.000
383.131;  -30.050; -226.000; -160.000
383.261;  -41.025; -706.000; -768.000
383.391;  290.250; -552.000; -377.000
383.521; 3352.850;  451.000;  263.000
383.650;  817.500; -947.000; -904.000
383.780;  -22.450; -783.000; -656.000
383.910;  126.875;  880.000;  802.000
384.039;    0.650; -794.000; -656.000
384.169;  173.600;-1205.000;-1017.000
384.299;  -37.400; -650.000; -662.000
384.428;  -89.425; -764.000; -680.000
384.558;  -45.550; -308.000; -275.000
384.687;  -51.400; -414.000; -334.000
384.817;    5.150;   75.000;   -2.000
384.947;  -14.500; -234.000; -141.000
385.076;  258.225;  982.000;  912.000
385.206;   90.875;  369.000;  480.000
385.335;  -39.275; -549.000; -417.000
385.465;  -88.900; -655.000; -663.000
385.594;  107.175;  -53.000;  -44.000
385.724;  364.725; -868.000; -838.000
385.853;   86.500; -296.000; -270.000
385.982; 1234.575; -743.000; -787.000
386.112; 1980.225;-1052.000; -871.000
386.241;  119.975; -307.000; -312.000
386.371;   13.500; -174.000;  -87.000
386.500;  -13.525; -825.000; -789.000
386.629;   26.000; -874.000; -817.000
386.759;   63.575;  -43.000;   68.000
386.888;  -27.700; -170.000; -250.000
387.017;  -95.750; -648.000; -620.000
387.147;  -92.525; -771.000; -798.000
387.276;  -27.125; -410.000; -397.000
387.405;    6.100; -398.000; -342.000
387.535;  -53.900; -452.000; -361.000
387.664;  -68.575; -692.000; -620.000
387.793;   39.400; -198.000; -113.000
387.922;  452.525;  255.000;  200.000
388.052;   -3.175; -576.000; -423.000
388.181;  -17.525; -342.000; -472.000
388.310;  -29.675; -889.000; -710.000
388.439;  -68.750; -749.000; -742.000
388.568;  157.750;  365.000;  244.000
388.697;  955.050; -756.000; -653.000
388.826;  179.550; -768.000; -666.000
388.956;   45.550; -285.000; -307.000
389.085;  -55.625; -347.000; -287.000
389.214; -108.425; -842.000; -872.000
389.343;  -68.000; -645.000; -413.000
389.472;  409.975;  126.000;  149.000
389.601;  517.025;   91.000;    0.000
389.730;    0.325; -568.000; -687.000
389.859;   43.500;  226.000;   46.000
389.988;  161.900; -423.000; -408.000
390.117;  131.325; -168.000; -146.000
390.246;  -12.400; -331.000; -320.000
390.375;   69.275; -673.000; -626.000
390.504;  -60.550; -703.000; -621.000
390.633; -110.400; -672.000; -726.000
390.761;  -73.025; -732.000; -645.000
390.890;   -2.450;   -4.000; -130.000
391.019;  -51.925; -421.000; -441.000
391.148; -137.400; -826.000; -855.000
391.277;  -86.225; -576.000; -493.000
391.406;  -95.925; -821.000; -805.000
391.534;   11.275;  574.000; -301.000
391.663;  -85.150; -583.000; -645.000
391.792;  -84.600; -673.000; -701.000
391.921;   70.375;   -3.000;   15.000
392.050;  142.075; -287.000; -228.000
392.178;  -65.800;-1206.000;-1061.000
392.307;  122.750; -758.000; -712.000
392.436;   45.850; -427.000; -641.000
392.564;    3.475;  166.000;   -6.000
392.693;  -92.825; -860.000; -682.000
392.822;  166.675; -529.000; -534.000
392.950;   84.150; -880.000; -714.000
393.079;  286.150; -188.000; -328.000
393.208;   14.025; -488.000; -511.000
393.336;  -33.075; -170.000; -145.000
393.465;  -65.100; -317.000; -199.000
393.593;  -10.950;   62.000;   79.000
393.722; -149.150;-1121.000; -916.000
393.850;  -32.825; -188.000;  -61.000
393.979; -155.325; -926.000; -805.000
394.107;  -63.225; -517.000; -537.000
394.236;  -24.250; -570.000; -507.000
394.364;  208.225;  383.000;  206.000
394.493;  292.475; -911.000; -767.000
394.621;  -18.075; -955.000; -916.000
394.750;  728.700; -873.000; -923.000
394.878; 3002.875; -247.000; -149.000
395.007; 4100.850; -721.000; -807.000
395.135;  315.925; -790.000; -721.000
395.263;  -88.475;-1038.000;-1040.000
395.392;   -1.225;  -25.000; -107.000
395.520; -143.625; -818.000; -679.000
395.648; -103.225; -865.000; -915.000
395.777;  -28.275; -366.000; -405.000
395.905;  -54.775; -449.000; -564.000
396.033;    2.000;  217.000;  172.000
396.162;  509.625; -399.000; -453.000
396.290;  430.650;  -17.000;   -2.000
396.418;   82.925; -555.000; -514.000
396.546; -101.725; -571.000; -466.000
396.674; -104.375; -850.000; -878.000
396.803;   -1.625;  -72.000;  -23.000
396.931;   74.425; -179.000; -199.000
397.059;   25.775;-1026.000; -989.000
397.187; -114.150;-1026.000; -975.000
397.315; -149.250; -884.000; -649.000
397.443;  -96.475; -592.000; -443.000
397.572; -107.375; -578.000; -424.000
397.700;  -17.150; -607.000; -614.000
397.828;   -3.725;  120.000;  -90.000
397.956;  -43.575; -508.000; -478.000
398.084;  -60.550; -767.000; -626.000
398.212;   40.325;  137.000;  124.000
398.340;   -2.650;  -56.000;  159.000
398.468;   33.000; -390.000; -169.000
398.596; -145.850; -993.000; -953.000
398.724; -124.150; -762.000; -767.000
398.852; -174.575;-1024.000; -976.000
398.980;  -71.050; -560.000; -560.000
399.108;  -61.575; -982.000; -735.000
399.236;   14.775;   13.000;    8.000
399.363;   16.150;  222.000;  196.000
399.491;  -71.775; -404.000; -398.000
399.619; -131.250; -829.000; -800.000
399.747; -102.300; -859.000; -771.000
399.875;   77.550;  220.000;  234.000
400.003;  -59.425; -359.000; -284.000
400.130; -106.825; -421.000; -341.000
400.258;  -36.750;  -83.000;   38.000
400.386;  -71.325; -352.000; -168.000
400.514;  -51.500; -526.000; -587.000
400.641; -103.900; -928.000; -802.000
400.769; -156.750; -979.000; -888.000
400.897; -124.950; -838.000; -793.000
401.025;  -19.700; -166.000; -152.000
401.152;  -12.275;  220.000;   38.000
401.280;  -94.300; -430.000; -429.000
401.408; -110.375; -712.000; -576.000
401.535; -114.450; -735.000; -758.000
401.663; -201.375;-1134.000;-1054.000
401.790;  -88.950; -514.000; -525.000
401.918;   25.875;  436.000;  405.000
402.046;  -24.450;  134.000;  122.000
402.173;  -31.500;  -18.000;    7.000
402.301;  -68.250; -519.000; -397.000
402.428;   26.175;  528.000;  383.000
402.556; -152.150;-1188.000; -913.000
402.683;  -39.325;  -20.000;   -1.000
402.811;  -21.875;  -37.000; -206.000
402.938;  -25.575;   20.000;   27.000
403.066;  172.700; -574.000; -558.000
403.193;  290.600;  299.000;  239.000
403.321;  223.325; -396.000; -574.000
403.448;  269.500;   83.000;   27.000
403.575;  124.225;  -90.000;  -46.000
403.703; -107.750; -732.000; -557.000
403.830;  -73.750; -531.000; -496.000
403.957; -148.125;-1117.000;-1023.000
404.085;    4.600;  -61.000; -172.000
404.212;   99.775;  -50.000;   63.000
404.339;  263.625; -566.000; -306.000
404.467; 5902.275; -612.000; -524.000
404.594; 3850.775; -287.000; -227.000
404.721;  870.375; -869.000; -764.000
404.848;   70.425; -113.000; -202.000
404.976; -125.000; -856.000; -783.000
405.103;  -16.925;  -14.000;  -82.000
405.230;   -4.775;  190.000;  226.000
405.357;   25.400;  117.000;   44.000
405.484;  274.625;  -49.000;    5.000
405.612;   57.700; -548.000; -563.000
405.739;  -62.775; -488.000; -243.000
405.866;   76.225;  669.000;  385.000
405.993;  -57.775; -398.000; -102.000
406.120; -144.200; -801.000; -887.000
406.247;  -60.950; -323.000; -342.000
406.374;  391.375;  540.000;  629.000
406.501;   83.725; -632.000; -702.000
406.628;  -83.650; -621.000; -589.000
406.755; -110.750; -803.000; -620.000
406.882;  -42.400; -228.000; -277.000
407.009; -109.825; -719.000; -628.000
407.136;   22.600; -480.000; -401.000
407.263;   88.775; -939.000; -829.000
407.390;  -87.800; -692.000; -614.000
407.517; -185.150;-1139.000;-1187.000
407.644;  -58.250; -332.000; -256.000
407.771;  -86.075; -249.000; -287.000
407.898;    2.500;  168.000;  328.000
408.025;  -70.450; -421.000; -313.000
408.151;   -2.550;   82.000;  153.000
408.278;  -67.550; -267.000; -216.000
408.405; -111.475; -931.000; -899.000
408.532;  -80.375; -549.000; -542.000
408.659; -118.650; -677.000; -648.000
408.785; -207.175;-1298.000;-1170.000
408.912;  -76.475; -412.000; -296.000
409.039; -125.225; -610.000; -686.000
409.166; -117.950; -591.000; -555.000
409.292; -116.125; -571.000; -534.000
409.419; -123.300; -665.000; -649.000
409.546;  -96.075; -431.000; -192.000
409.672; -107.275; -713.000; -545.000
409.799;  -37.875;  -36.000;   34.000
409.926;  -43.000; -180.000; -179.000
410.052; -164.025;-1127.000;-1091.000
410.179;  -73.525; -368.000; -392.000
410.305;  -90.000; -375.000; -493.000
410.432;  -40.875; -220.000; -333.000
410.558;  -93.675; -305.000; -380.000
410.685; -105.350; -688.000; -431.000
410.812;  -94.100; -409.000; -588.000
410.938; -141.975; -964.000; -808.000
411.065;  -97.950; -671.000; -645.000
411.191;  -31.075; -189.000; -174.000
411.317; -125.375; -823.000; -742.000
411.444;  -60.550; -317.000; -246.000
411.570;  -89.950; -339.000; -294.000
411.697; -134.850; -758.000; -752.000
411.823; -179.225; -989.000; -999.000
411.949;  -44.975;  -56.000;   17.000
412.076; -109.950; -539.000; -519.000
412.202; -123.525; -758.000; -757.000
412.329; -129.725; -798.000; -752.000
412.455; -112.050; -821.000; -657.000
412.581;  -16.325;  -15.000;  172.000
412.707;  -74.125; -540.000; -457.000
412.834;    7.500;  156.000;  219.000
412.960;  -82.400; -785.000; -784.000
413.086; -118.450; -743.000; -701.000
413.212;  127.600;  604.000;  578.000
413.339;  -85.900; -685.000; -701.000
413.465;   -7.250; -364.000; -310.000
413.591; -110.275; -757.000; -474.000
413.717;  -64.650; -358.000; -366.000
413.843; -146.250; -839.000; -861.000
413.969;  -70.625;  -47.000; -292.000
414.096; -106.650; -679.000; -679.000
414.222;  -17.050;  -33.000;   85.000
414.348;  -45.175; -652.000; -385.000
414.474;   85.575;   38.000;  -52.000
414.600;  -30.975; -126.000; -144.000
414.726;  -11.925;  -96.000;  -55.000
414.852;  -70.050; -365.000; -342.000
414.978;   27.100;  104.000;  -18.000
415.104;   52.850;   38.000;   80.000
415.230;   20.550; -329.000; -330.000
415.356;   27.600; -409.000; -514.000
415.482;  182.700;   13.000;  -35.000
415.608;  267.950; -247.000; -323.000
415.734;  967.275;   67.000;   38.000
415.860;20112.325; -875.000; -767.000
415.986;14872.800; -685.000; -607.000
416.111; 1294.050; -798.000; -652.000
416.237;  269.850; -424.000; -571.000
416.363; 1182.825; -765.000; -733.000
416.489; 4335.300; -324.000; -251.000
416.615;  476.650; -707.000; -742.000
416.741;    0.300; -677.000; -784.000
416.866;  -96.450; -673.000; -736.000
416.992; -122.000; -801.000; -818.000
417.118;  -38.400;  -41.000;  -80.000
417.244;  -68.325; -798.000; -531.000
417.369;  -96.625; -801.000; -612.000
417.495;  -11.500; -325.000; -254.000
417.621;  -95.125;-1015.000; -803.000
417.746;   -9.625; -579.000; -572.000
417.872;   57.025; -254.000; -144.000
417.998;   48.150; -515.000; -530.000
418.123; 1068.200;-1073.000; -845.000
418.249; 5602.500; -512.000; -601.000
418.374;  796.400; -916.000; -824.000
418.500;  117.325; -383.000; -482.000
418.626;  102.625;   70.000;  -59.000
418.751;  106.800; -549.000; -448.000
418.877;  177.175; -637.000; -643.000
419.002; 1832.225; -688.000; -560.000
419.128;13008.125; -930.000; -721.000
419.253; 3241.800; -967.000; -837.000
419.379;  402.650; -391.000; -338.000
419.504;  397.625;  325.000;  415.000
419.629;  528.750; -393.000; -212.000
419.755; 3627.950; -317.000; -254.000
419.880;22122.750;  -98.000;   67.000
420.006;11751.925; -280.000; -221.000
420.131;30332.725; -662.000; -775.000
420.256; 4434.000; -315.000; -316.000
420.382;  575.300; -665.000; -687.000
420.507;   74.150; -649.000; -778.000
420.632;   97.025; -337.000; -339.000
420.758;  205.575; -251.000; -425.000
420.883; -103.275; -876.000; -672.000
421.008; -100.825; -775.000; -619.000
421.133;  -98.800; -509.000; -467.000
421.259;  -55.125; -325.000; -259.000
421.384; -135.775; -834.000; -693.000
421.509;  -56.000;-1052.000; -862.000
421.634;  966.700; -936.000; -820.000
421.759;  446.150; -359.000; -327.000
421.885;  -76.175; -717.000; -656.000
422.010;  -84.425; -673.000; -542.000
422.135; -152.175; -695.000; -727.000
422.260;   11.400;  340.000;  280.000
422.385;  -47.300;   12.000;  -98.000
422.510;   -1.900;  151.000;  -26.000
422.635;    7.775;  -87.000;  -43.000
422.760;  101.525; -766.000; -791.000
422.885;   69.575;  -57.000;  -80.000
423.010;  -33.650; -112.000; -169.000
423.135;  -95.825; -481.000; -561.000
423.260;  -25.025; -150.000; -245.000
423.385;   59.825;  476.000;  222.000
423.510;   28.975;   71.000;  -22.000
423.635;   62.875;  133.000;   45.000
423.760;   63.900;  383.000;  328.000
423.885;   48.525;  336.000;  391.000
424.010;   12.250;  -68.000;  -13.000
424.135;  -38.300;    5.000;  -33.000
424.259;  -86.250; -654.000; -457.000
424.384;  -71.975; -279.000; -272.000
424.509;  -33.875; -260.000; -186.000
424.634; -101.375; -761.000; -623.000
424.759;  -30.575; -688.000; -544.000
424.883;  -20.375; -506.000; -527.000
425.008;  161.125; -502.000; -410.000
425.133; 2037.775; -679.000; -653.000
425.258;  983.675; -517.000; -381.000
425.382;  981.375; -867.000; -774.000
425.507; 2545.925; -487.000; -543.000
425.632;  434.375; -802.000; -663.000
425.756;  471.475; -256.000; -146.000
425.881; 6811.300; -831.000; -857.000
426.006;18935.250; -604.000; -355.000
426.130; 2978.675; -696.000; -508.000
426.255;  381.500; -611.000; -491.000
426.379;  156.250; -189.000; -577.000
426.504;  381.225;  660.000;  544.000
426.629; 4049.100; -519.000; -466.000
426.753; 2867.625;   64.000;  -46.000
426.878;  336.000; -252.000; -288.000
427.002;  146.625; -651.000; -668.000
427.127; 1588.325;  -35.000; -158.000
427.251;11718.175;  372.000;  401.000
427.375; 3393.475; -191.000; -173.000
427.500; 2217.300; -616.000; -610.000
427.624;  741.150; -234.000; -400.000
427.749;   80.850; -216.000; -225.000
427.873;  -64.300; -499.000; -412.000
427.997;  -56.500; -222.000; -230.000
428.122;   67.200;  795.000;  703.000
428.246;   59.800;  433.000;  434.000
428.371; -126.000; -869.000; -773.000
428.495; -111.300; -624.000; -646.000
428.619;  -47.375; -186.000; -117.000
428.743;    8.775;   65.000;  132.000
428.868;    3.400; -732.000; -643.000
428.992; 1291.750; -219.000; -326.000
429.116;  537.200; -329.000; -357.000
429.240;  244.700;  419.000;  426.000
429.365;  -43.450; -454.000; -574.000
429.489;  -42.225; -638.000; -647.000
429.613;    9.575; -236.000; -177.000
429.737;   29.225; -563.000; -432.000
429.861;  276.000; -247.000; -133.000
429.985; 5674.475; -425.000; -305.000
430.109; 6371.950; -770.000; -908.000
430.234;  756.325;   76.000;  -50.000
430.358;   56.625; -250.000; -160.000
430.482;  -77.375; -672.000; -564.000
430.606;  -82.650; -655.000; -375.000
430.730;    0.700; -437.000; -388.000
430.854;   71.050; -909.000; -835.000
430.978;  -82.750; -795.000; -764.000
431.102;  -95.400; -499.000; -422.000
431.226; -127.900; -874.000; -815.000
431.350;   -2.025;  345.000;  422.000
431.474;  -84.925; -661.000; -373.000
431.597; -153.400;-1060.000; -848.000
431.721;  -88.875; -276.000; -267.000
431.845; -139.225; -704.000; -472.000
431.969;  -73.200; -304.000; -349.000
432.093; -103.050; -395.000; -317.000
432.217;  -18.925;   32.000;   82.000
432.341; -101.575; -523.000; -518.000
432.464;   -3.375;   96.000;   40.000
432.588;  151.025; -401.000; -329.000
432.712;   82.750;  -52.000;  -52.000
432.836;   32.475;  213.000;  263.000
432.959;  -19.375; -372.000; -311.000
433.083;   68.000;   11.000;    2.000
433.207;  378.375;  285.000;  930.000
433.330; 5149.875; -391.000; -200.000
433.454; 6531.875; -654.000; -638.000
433.578; 3730.525;  583.000;  278.000
433.701;  702.550; -623.000; -675.000
433.825;  124.450; -292.000; -299.000
433.949;  127.200;   28.000;  -72.000
434.072;   27.475; -410.000; -323.000
434.196;  -20.625; -309.000; -117.000
434.319; 3637.650;25482.000;25124.000
434.443;  720.800; -656.000; -603.000
434.566; 2726.400;  281.000;   62.000
434.690;  473.650; -637.000; -383.000
434.813;   42.025; -251.000; -173.000
434.937;  -92.200; -569.000; -696.000
435.060;  -60.025; -423.000; -332.000
435.184;  225.275; -492.000; -217.000
435.307;  117.600;  159.000;  102.000
435.431;  -17.075;  -40.000;   24.000
435.554;  -80.550; -399.000; -240.000
435.677;  -91.900; -350.000; -258.000
435.801;  -45.900;  -25.000;   49.000
435.924;  -20.850;    1.000;  -67.000
436.048; -137.950;-1019.000; -732.000
436.171;  -67.025; -240.000;  -66.000
436.294;  -31.100; -248.000; -229.000
436.417;   88.625; -963.000; -849.000
436.541;  -73.925; -814.000; -840.000
436.664;  -50.375; -242.000; -316.000
436.787;  -34.725;   13.000;  113.000
436.910; -127.125; -792.000; -422.000
437.034;   -1.500;  142.000;  143.000
437.157;   35.575;  -11.000;    0.000
437.280;  -65.275; -392.000; -292.000
437.403;  -92.750; -982.000; -869.000
437.526;  487.075; -903.000; -865.000
437.649; 1920.750; -505.000; -332.000
437.772;  254.525; -692.000; -540.000
437.896;  111.200;  700.000;  544.000
438.019;  -95.400; -758.000; -503.000
438.142;  -86.050; -596.000; -506.000
438.265;  -50.775; -639.000; -670.000
438.388;  463.350; -520.000; -410.000
438.511;   49.725; -597.000; -394.000
438.634;  -59.800; -247.000; -125.000
438.757; -152.500; -693.000; -619.000
438.880;  -21.225;  -34.000;  -57.000
439.003;  -82.750; -417.000; -437.000
439.126;  -65.325; -287.000; -167.000
439.248;  -79.000;  -98.000; -139.000
439.371;  -41.825;    9.000;  -53.000
439.494;   13.800;  510.000;  439.000
439.617;  -50.150;   65.000;  -88.000
439.740; -180.325; -968.000; -816.000
439.863; -144.250; -755.000; -595.000
439.986; -131.500; -476.000; -431.000
440.108;  -61.200; -161.000; -112.000
440.231; -177.800; -950.000; -836.000
440.354;  -46.425;  -64.000; -150.000
440.477;    3.325; -566.000; -542.000
440.599;  -23.225; -200.000; -225.000
440.722; -123.250; -709.000; -586.000
440.845;   71.875;  751.000;  928.000
440.968; -122.875; -415.000; -311.000
441.090;  -76.400; -199.000;  -33.000
441.213; -170.825;-1021.000; -825.000
441.336;  -60.875; -159.000;   -5.000
441.458;  -93.600; -549.000; -396.000
441.581;  -86.700; -628.000; -629.000
441.703;  -84.050; -152.000;   13.000
441.826; -124.325; -557.000; -400.000
441.948;  -55.925;   56.000;   51.000
442.071;   12.675;  555.000;  424.000
442.193; -117.125; -531.000; -485.000
442.316;   22.950;  152.000;   97.000
442.438;   34.900; -233.000;  -10.000
442.561;   61.050;  272.000;  262.000
442.683;  432.650; -809.000; -522.000
442.806; 1001.375;   -8.000;   74.000
442.928;    0.150; -859.000; -604.000
443.051;  -76.325; -577.000; -373.000
443.173;  -92.425; -341.000; -339.000
443.295;  -87.825; -263.000; -371.000
443.418;  -93.075; -321.000;  -29.000
443.540;   -7.450; -106.000;   -4.000
443.662; -127.150; -563.000; -465.000
443.785;  -14.450;  335.000;  199.000
443.907; -104.050; -362.000; -208.000
444.029; -126.150; -767.000; -494.000
444.152; -149.150; -644.000; -554.000
444.274;  -30.925;  -18.000;  -24.000
444.396; -124.875; -461.000; -221.000
444.518; -141.675; -691.000; -454.000
444.640; -113.375; -268.000; -111.000
444.763;  -21.825;  388.000;  249.000
444.885; -121.850; -432.000; -392.000
445.007;  -48.625;   35.000;   86.000
445.129; -132.175; -610.000; -515.000
445.251; -106.225; -372.000; -439.000
445.373; -134.650; -537.000; -386.000
445.495;   -6.825;  242.000;  350.000
445.617;   30.650;  853.000;  753.000
445.739;  -64.125; -215.000;  -97.000
445.861;  -58.950; -245.000; -112.000
445.984;  -37.675; -267.000; -101.000
446.105;  135.600; -418.000; -251.000
446.227;  526.325; -176.000;  -19.000
446.349;  -11.475; -358.000; -249.000
446.471;  -90.375; -615.000; -448.000
446.593;  -77.150; -316.000;   19.000
446.715;  -11.850;  -67.000;   41.000
446.837;   55.700;  697.000;  832.000
446.959; -110.775; -457.000; -478.000
447.081; -144.125; -628.000; -518.000
447.203;   51.075;  862.000;  834.000
447.325;  -96.000; -270.000;   42.000
447.446;   -6.700;  286.000;  530.000
447.568; -165.675; -921.000; -803.000
447.690;  -85.800; -236.000; -245.000
447.812; -154.050; -798.000; -519.000
447.933;  -31.175;  155.000;  127.000
448.055;  -77.625; -306.000; -261.000
448.177;  121.400;   31.000;   79.000
448.299;   49.675; -935.000; -727.000
448.420;   13.125;  -25.000;  159.000
448.542;  -47.825;   -3.000;   33.000
448.664;  -24.475;  109.000;  322.000
448.785;  -50.925;  265.000;   83.000
448.907;  -97.425; -614.000; -353.000
449.028;  -54.800; -771.000; -471.000
449.150;   56.725;  492.000;  589.000
449.272; -187.725;-1044.000; -913.000
449.393;   23.875;  612.000;  694.000
449.515; -151.725; -634.000; -581.000
449.636;  -78.125; -264.000; -155.000
449.758;   57.725;  763.000;  622.000
449.879;  -97.675; -498.000; -396.000
450.001;  -92.275; -149.000;  -49.000
450.122;  -28.825;  -95.000;  162.000
450.244;  -32.250;   37.000;  364.000
450.365; -104.550; -495.000; -301.000
450.486;  -43.950;   80.000;  268.000
450.608;   30.550;  393.000;  326.000
450.729;   68.975;  578.000;  645.000
450.850;   -4.050; -574.000; -466.000
450.972;  766.400; -552.000; -389.000
451.093; 5126.450;  190.000;  588.000
451.214; 2300.425; -516.000; -337.000
451.336;  421.000;  773.000;  579.000
451.457;   53.350;  264.000;  393.000
451.578;  -34.550; -118.000;  -74.000
451.699; -121.825; -546.000; -540.000
451.821;  -64.700; -284.000;  -50.000
451.942;   -7.750;  278.000;  285.000
452.063;   29.675;  228.000;  419.000
452.184;  563.900;  -54.000;  -49.000
452.305; 1147.600;  103.000;  170.000
452.427;  139.750; -549.000; -301.000
452.548;  -16.750;   23.000;   79.000
452.669;  -61.900; -257.000;  -89.000
452.790;  -54.500;    3.000;  -18.000
452.911;  -16.475;  195.000;  259.000
453.032;  -65.275; -289.000;  -60.000
453.153;  -44.575;  -29.000;   81.000
453.274;   51.450;  737.000;  868.000
453.395;  -56.275;  -51.000;  175.000
453.516;  113.000; 1317.000; 1388.000
453.637;  -77.500; -205.000; -150.000
453.758;  -74.525;   15.000;   69.000
453.879; -131.275; -462.000; -250.000
454.000;   57.300; 1086.000;  948.000
454.121; -114.450; -554.000; -326.000
454.242; -125.175; -599.000; -383.000
454.362;  -64.375;  -99.000;  114.000
454.483;  -45.900; -309.000; -229.000
454.604;   33.850;  512.000;  580.000
454.725; -128.800; -627.000; -555.000
454.846; -135.950; -474.000; -406.000
454.967;  -31.300;  230.000;  539.000
455.087;  -49.325;  179.000;  153.000
455.208;   13.100;  554.000;  856.000
455.329;  -73.200;  -22.000;   82.000
455.450;   39.200;  473.000;  633.000
455.570;  -81.775; -234.000; -211.000
455.691;  -46.075;  201.000;  407.000
455.812; -116.775; -270.000;  -92.000
455.932;  -67.075;  107.000;  -97.000
456.053;  -91.800;   36.000;   24.000
456.173; -128.125; -433.000; -355.000
456.294; -142.800; -476.000; -303.000
456.415;  -70.100;  -73.000;   70.000
456.535;  -42.725;  297.000;  273.000
456.656;  -46.350;  132.000;  240.000
456.776;  -75.525;    3.000;  298.000
456.897;  -11.450;  308.000;  513.000
457.017;  -82.875; -153.000;   -3.000
457.138; -110.200; -402.000; -249.000
457.258;  -45.375;  263.000;  224.000
457.379;  -12.075;  509.000;  521.000
457.499;  -20.600;  443.000;  432.000
457.620; -111.050; -407.000; -231.000
457.740; -108.975; -132.000;  -11.000
457.860;  -70.150;   87.000;   44.000
457.981;  -68.900;  132.000;  124.000
458.101;  -67.675;  -89.000;   40.000
458.221;  -22.525;  336.000;  402.000
458.342;  -72.675;   -4.000;  -37.000
458.462;   22.075;  617.000;  352.000
458.582;  -37.300; -302.000; -294.000
458.703;   -3.075;  303.000;  154.000
458.823;  -27.950;   22.000;  163.000
458.943;   14.175;  341.000;  467.000
459.063;  -19.650; 1124.000;  192.000
459.183;  -22.250;  328.000;  313.000
459.304;   24.250;  315.000;  517.000
459.424;  -73.475; -246.000;  -89.000
459.544;  315.775;  388.000;  764.000
459.664;  874.675;  499.000;  506.000
459.784;  321.525; 1004.000; 1175.000
459.904;   49.625;  867.000;  744.000
460.024;   72.200;  867.000;  684.000
460.144;    4.900;  449.000;  554.000
460.264;   -6.275;  515.000;  327.000
460.385;  -89.950; -145.000; -119.000
460.505;   32.250;  905.000;  858.000
460.625;  -89.550;  -17.000;  -68.000
460.745;  -22.100;  396.000;  541.000
460.864;  -51.275;  153.000;  469.000
460.984;    5.075;  499.000;  573.000
461.104;  121.050; 1656.000; 1775.000
461.224;    6.525;  657.000;  650.000
461.344;  -38.400;  431.000;  360.000
461.464;  -29.475;  258.000;  513.000
461.584;  -36.075;  283.000;  466.000
461.704;  -47.375;   58.000;  108.000
461.824;  -64.800;  238.000;  259.000
461.943;  -41.675;  191.000;  130.000
462.063;  -78.425;    2.000;  324.000
462.183;   32.075;  639.000;  717.000
462.303;   82.575; 1678.000; 1230.000
462.422;   29.800;  781.000;  840.000
462.542;  -39.150;  271.000;  391.000
462.662;   27.825;  353.000;  380.000
462.782;  239.425;  833.000;  572.000
462.901;  494.150;  545.000;  717.000
463.021;  271.050; 1702.000; 1638.000
463.141;   -4.200;  337.000;  770.000
463.260;  -19.675;  614.000;  474.000
463.380;   11.950;  902.000;  884.000
463.499;  -49.925;  342.000;  332.000
463.619;  -40.525;  581.000;  559.000
463.738;  109.950; 1644.000;  903.000
463.858;    8.700;  657.000;  811.000
463.978;  -42.975;  542.000;  396.000
464.097;   50.075;  921.000; 1114.000
464.217;  107.700; 1196.000; 1143.000
464.336;  103.325; 1068.000; 1130.000
464.455;  -36.325;  328.000;  659.000
464.575;   26.250;  597.000;  602.000
464.694;  150.100; 1204.000; 1179.000
464.814;  122.875; 1190.000; 1138.000
464.933;   62.050; 1095.000; 1027.000
465.052;   88.475; 1412.000; 1054.000
465.172;   75.475;  922.000;  799.000
465.291;  123.850; 1376.000; 1320.000
465.410;   15.725;  462.000;  735.000
465.530;   86.600; 1355.000; 1310.000
465.649;   64.825; 1209.000; 1273.000
465.768;  131.925; 1673.000; 1508.000
465.888;   22.775;  941.000; 1174.000
466.007;   87.450; 1335.000; 1440.000
466.126;   -7.975;  721.000;  641.000
466.245;   43.800; 1176.000; 1187.000
466.364;   15.800;  950.000; 1060.000
466.484;   63.075; 1024.000; 1213.000
466.603;   33.900; 1101.000; 1222.000
466.722;  121.175; 1490.000; 1769.000
466.841;   56.250; 1151.000; 1401.000
466.960;   34.100; 1069.000;  972.000
467.079;  125.000; 1971.000; 1786.000
467.198;   39.750; 1238.000; 1181.000
467.317;   82.625; 1768.000; 1162.000
467.436;   68.500; 1709.000; 1261.000
467.555;  120.550; 1796.000; 1746.000
467.674;   62.225; 1227.000; 1329.000
467.793;   42.750; 1376.000; 1374.000
467.912;   82.550; 1658.000; 1539.000
468.031;  135.900; 2038.000; 1930.000
468.150;  147.925; 1842.000; 1837.000
468.269;  174.825; 2313.000; 2090.000
468.388;  181.250; 2168.000; 2339.000
468.507;  235.625; 2884.000; 2903.000
468.626;  239.925; 2555.000; 2541.000
468.744;  134.400; 2018.000; 2174.000
468.863;  197.375; 2312.000; 2523.000
468.982;   96.800; 1503.000; 1555.000
469.101;  218.650; 2788.000; 2692.000
469.220;  126.950; 2333.000; 2176.000
469.338;  248.875; 2935.000; 3051.000
469.457;  191.575; 2719.000; 2545.000
469.576;  342.750; 3953.000; 3784.000
469.695;  226.775; 2877.000; 3066.000
469.813;  421.150; 4148.000; 4192.000
469.932;  408.425; 4255.000; 4485.000
470.051;  432.800; 4075.000; 4161.000
470.169;  847.750; 4470.000; 4338.000
470.288; 1520.850; 4700.000; 4809.000
470.406;  894.300; 5059.000; 5194.000
470.525;  634.100; 6101.000; 5787.000
470.644;  647.525; 6847.000; 6794.000
470.762;  814.075; 8397.000; 7873.000
470.881;  891.025; 8651.000; 8464.000
470.999; 1064.200; 9685.000; 9151.000
471.118; 1105.200;11174.000;10711.000

