
Integration time [ms]: 200.000
Averaging Nr. [scans]: 10
Smoothing Nr. [pixels]: 0
Data measured with spectrometer [name]: 2101012U2
Wave   ;Sample   ;Dark     ;Reference
[nm]   ;[counts] ;[counts] ;[counts] 

197.733;  103.500;  516.000;  404.000
197.879; -166.300; -610.000; -634.000
198.025;  -75.600; -475.000; -420.000
198.171; -153.000; -602.000; -612.000
198.317;  -76.100; -401.000; -316.000
198.463; -101.700; -655.000; -404.000
198.609;   48.100;  181.000; -137.000
198.755; -157.200; -644.000; -410.000
198.901; -135.400; -505.000; -424.000
199.047; -117.700; -615.000; -488.000
199.193;  -89.300; -230.000; -468.000
199.339;  -78.400; -222.000; -369.000
199.485;  107.000;  330.000;  271.000
199.631;   62.500;  227.000;  310.000
199.777; -128.900; -466.000; -398.000
199.923; -111.500; -610.000; -424.000
200.069;   -9.000; -141.000;  -58.000
200.215;  135.900;  128.000;  453.000
200.361;  100.000;  243.000;  477.000
200.507; -124.600; -600.000; -373.000
200.653;  -53.000; -371.000; -194.000
200.798;  -59.600; -215.000; -125.000
200.944;   19.700; -146.000;  -41.000
201.090;   81.000;   61.000;  222.000
201.236;   20.000; -116.000; -158.000
201.382;  261.000;  874.000;  903.000
201.528;  -18.700;  -58.000;  -48.000
201.674;  -89.800; -386.000; -293.000
201.819; -143.000; -540.000; -439.000
201.965; -165.200; -699.000; -447.000
202.111;  -57.800; -273.000; -226.000
202.257;  -54.100; -250.000; -238.000
202.402;    8.000;   13.000;  -36.000
202.548;  -48.900; -169.000; -116.000
202.694;  145.000;  410.000; -183.000
202.840; -139.300; -603.000; -531.000
202.985; -162.600; -681.000; -639.000
203.131; -221.000; -832.000; -666.000
203.277;  -61.800; -199.000; -262.000
203.423; -110.100; -434.000; -520.000
203.568;  -90.600; -462.000; -237.000
203.714; -126.100; -535.000; -542.000
203.860; -151.600; -682.000; -641.000
204.005;   32.500;  112.000;  167.000
204.151;  162.800;  561.000;  556.000
204.296; -104.700; -354.000; -221.000
204.442; -165.900; -600.000; -547.000
204.588; -150.800; -592.000; -579.000
204.733;   51.200;  178.000;  168.000
204.879; -272.700;-1018.000; -822.000
205.025;   40.100;  -99.000;  126.000
205.170;   37.200;  -17.000;   94.000
205.316;  167.900;  438.000;  661.000
205.461; -172.000; -698.000; -554.000
205.607;  150.500;  609.000;  665.000
205.752; -167.000; -626.000; -551.000
205.898;  -99.000; -501.000; -391.000
206.043; -130.600; -578.000; -506.000
206.189;  -80.000; -243.000; -285.000
206.334;  166.300;  554.000;  606.000
206.480;  179.200;  409.000;  239.000
206.625; -159.800; -529.000; -552.000
206.771;  -84.900; -451.000; -373.000
206.916;  -60.000; -210.000; -537.000
207.062; -152.600; -545.000; -591.000
207.207; -108.800; -546.000; -443.000
207.353;  113.600;  185.000;  460.000
207.498;   51.800;  196.000;   85.000
207.643; -108.900; -501.000; -370.000
207.789; -251.700;-1069.000; -910.000
207.934; -181.400; -665.000; -713.000
208.080;  -66.900; -154.000;   66.000
208.225;    7.000;  -22.000;  -57.000
208.370; -164.100; -727.000; -619.000
208.516; -129.700; -741.000; -487.000
208.661;  -47.000; -127.000;  -69.000
208.806;  -32.600; -165.000; -171.000
208.952; -257.000;-1044.000; -731.000
209.097;  143.500;  378.000;  349.000
209.242;  -92.400; -307.000; -382.000
209.387;  137.100;  392.000;  350.000
209.533; -102.800; -321.000; -350.000
209.678;  187.300;  472.000;  543.000
209.823; -101.700; -408.000; -310.000
209.969; -237.900; -860.000; -757.000
210.114; -233.900; -907.000; -719.000
210.259; -216.300; -939.000; -889.000
210.404;    2.400; -171.000;  103.000
210.549;   29.900;  108.000;    3.000
210.695;   -9.700;   -3.000;  -95.000
210.840;   69.400;   94.000;   67.000
210.985; -113.200; -484.000; -303.000
211.130;  162.500;  268.000;  406.000
211.275;   19.500;  207.000;  199.000
211.420;  -94.800; -300.000; -289.000
211.566; -131.800; -536.000; -489.000
211.711;   77.700;  218.000;  157.000
211.856; -111.100; -545.000; -519.000
212.001;   56.800;  151.000;   44.000
212.146;   42.000;  153.000;   49.000
212.291;  -44.400; -210.000; -186.000
212.436;  -31.500; -280.000;   -6.000
212.581; -174.600; -685.000; -653.000
212.726; -152.800; -487.000; -538.000
212.871; -124.600; -552.000; -217.000
213.016; -301.900;-1172.000;-1029.000
213.161;  158.000;  406.000;  291.000
213.306; -147.500; -435.000; -577.000
213.451; -202.700; -778.000; -689.000
213.596;  -73.600; -455.000; -347.000
213.741;  -89.500; -448.000; -538.000
213.886; -114.500; -498.000; -517.000
214.031;  -40.700; -294.000; -124.000
214.176;  -96.400; -408.000; -341.000
214.321;   -2.900; -296.000; -157.000
214.466;  -41.600; -163.000;  -43.000
214.611;    8.100;  -61.000;  -10.000
214.756; -240.600; -948.000; -858.000
214.901;  -34.100; -388.000; -226.000
215.046; -258.000; -797.000; -825.000
215.191;   50.900;  128.000;   35.000
215.336;  -23.400; -157.000;  -19.000
215.480; -156.400; -684.000; -505.000
215.625;  -20.400; -175.000;  -19.000
215.770; -160.300; -757.000; -662.000
215.915;  -17.900;   -5.000;  -97.000
216.060;   18.600; -113.000;  -21.000
216.205; -220.000; -731.000; -779.000
216.349; -138.700; -470.000; -533.000
216.494; -269.600; -939.000; -867.000
216.639; -229.500; -823.000; -888.000
216.784; -187.100; -577.000; -525.000
216.929;  115.100;  392.000;  281.000
217.073;  -23.700; -244.000;  -31.000
217.218;   41.400;   78.000;  -47.000
217.363; -174.000; -656.000; -618.000
217.507; -170.100; -623.000; -588.000
217.652; -248.000; -845.000; -874.000
217.797; -173.200; -708.000; -659.000
217.942; -227.400; -856.000; -720.000
218.086;  175.800;  608.000;  539.000
218.231;  -40.800; -174.000;  -26.000
218.376;  -78.200; -337.000; -229.000
218.520;   27.200;  -41.000;   96.000
218.665;  -56.500; -338.000; -204.000
218.810;  -81.000; -275.000; -233.000
218.954;   72.000;  201.000;   35.000
219.099; -254.200; -713.000; -963.000
219.243; -137.500; -589.000; -554.000
219.388;  -42.000; -264.000; -136.000
219.532;  -42.700; -116.000; -116.000
219.677; -160.100; -564.000; -521.000
219.822;    6.000;   33.000;   89.000
219.966;   29.500;   17.000;  -99.000
220.111;  -44.800; -328.000;  -40.000
220.255; -169.700; -797.000; -750.000
220.400;  -36.400; -180.000; -146.000
220.544; -128.800; -516.000; -450.000
220.689;  -83.300; -422.000; -451.000
220.833;  -62.500; -123.000;  -58.000
220.978;  -88.700; -393.000; -563.000
221.122;   79.400;  319.000;  307.000
221.267; -224.300; -906.000; -837.000
221.411; -118.100; -478.000; -394.000
221.555;   10.900; -104.000;  -23.000
221.700; -103.700; -329.000; -222.000
221.844;   62.400;  255.000;  272.000
221.989;  -92.300; -328.000; -311.000
222.133;  -74.300; -289.000; -307.000
222.277;  -39.200;    5.000;   78.000
222.422;   51.400;  227.000;  113.000
222.566;  -54.700; -381.000; -214.000
222.711; -107.200; -414.000; -479.000
222.855; -155.700; -643.000; -586.000
222.999; -152.100; -642.000; -717.000
223.144;  -70.100; -195.000; -194.000
223.288;  111.800;  423.000;  251.000
223.432;   62.400;  184.000;  230.000
223.576;   67.000;  152.000;  -21.000
223.721;   92.900;  364.000;  273.000
223.865; -121.100; -472.000; -475.000
224.009;  490.200; 1673.000; 1631.000
224.153; -141.800; -660.000; -671.000
224.298; -134.000; -531.000; -489.000
224.442;  -38.500;  -74.000;  -33.000
224.586;   -9.500; -169.000; -106.000
224.730; -174.200; -858.000; -670.000
224.875; -211.500; -739.000; -688.000
225.019;   21.000;  102.000;  188.000
225.163;  133.700;  208.000;  341.000
225.307;   18.900;   97.000;  -91.000
225.451;   99.700;  360.000;  481.000
225.595;  123.200;  264.000;  176.000
225.739;  -20.500; -170.000;  -94.000
225.884;   21.700;   86.000;    5.000
226.028; -194.200; -760.000; -626.000
226.172;  -93.700; -260.000; -273.000
226.316; -238.400; -941.000; -902.000
226.460; -128.800; -645.000; -493.000
226.604;  -94.000; -406.000; -400.000
226.748; -195.400; -836.000; -733.000
226.892;  -43.800; -227.000; -181.000
227.036;  -74.600; -537.000; -447.000
227.180;  -97.700; -551.000; -375.000
227.324; -116.400; -561.000; -580.000
227.468; -218.600; -819.000; -717.000
227.612;   52.800;  242.000;  -28.000
227.756; -164.000; -845.000; -698.000
227.900;  114.300;  342.000;  441.000
228.044; -130.500; -509.000; -290.000
228.188;  142.200;  448.000;  568.000
228.332; -158.000; -546.000; -472.000
228.476;  -53.300; -223.000; -149.000
228.620;  -54.000; -210.000; -150.000
228.764;  168.400;  431.000;  349.000
228.908;  -20.900; -155.000;   30.000
229.052; -108.500; -615.000; -528.000
229.195;    7.100; -172.000;   13.000
229.339;  -29.700; -235.000; -305.000
229.483;  -44.800;    5.000; -162.000
229.627;   12.300; -156.000;  139.000
229.771;  -68.600; -218.000; -294.000
229.915;   34.700;  230.000;   79.000
230.059; -172.700; -648.000; -663.000
230.202;  -48.300; -370.000; -317.000
230.346;  -27.200; -107.000;  107.000
230.490; -115.100; -489.000; -521.000
230.634; -213.300; -736.000; -553.000
230.777;  164.200;  478.000;  509.000
230.921;  -91.500; -450.000; -359.000
231.065;  -77.400; -246.000; -286.000
231.209;   92.400;  261.000;  265.000
231.352;   58.500;   54.000;   40.000
231.496;   38.000;  568.000;  188.000
231.640; -176.100; -693.000; -621.000
231.783;  131.100;  546.000;  525.000
231.927;  -84.900; -294.000; -365.000
232.071; -237.900; -962.000; -736.000
232.214; -208.800; -980.000; -764.000
232.358; -207.000; -683.000; -599.000
232.502;   32.100;  -19.000;    7.000
232.645; -256.600;-1090.000; -927.000
232.789;  -42.900; -257.000; -218.000
232.933;  -95.400; -407.000; -224.000
233.076; -249.000;-1038.000; -897.000
233.220; -238.500; -752.000; -777.000
233.363; -143.200; -669.000; -477.000
233.507;  158.200;  371.000;  129.000
233.650; -167.700; -764.000; -834.000
233.794;  118.700;  438.000;  461.000
233.938; -102.300; -530.000; -362.000
234.081;   -3.100;  -93.000;   31.000
234.225; -145.600; -631.000; -539.000
234.368; -214.300; -773.000; -723.000
234.512;  -67.100; -385.000; -299.000
234.655; -159.300; -582.000; -555.000
234.798; -128.200; -493.000; -466.000
234.942; -259.500; -884.000;-1002.000
235.085; -144.200; -651.000; -443.000
235.229; -155.700; -405.000; -410.000
235.372; -106.800; -247.000; -191.000
235.516; -108.800; -397.000; -321.000
235.659;   60.300;   92.000;  121.000
235.802;  -10.100;  -38.000;  -22.000
235.946;   76.600;  335.000;  215.000
236.089;   68.800;  126.000;  250.000
236.233;  154.500;  275.000;  298.000
236.376;  -64.500; -235.000; -378.000
236.519;  -99.900; -297.000; -319.000
236.663;  -14.700; -215.000; -117.000
236.806; -266.900;-1029.000; -999.000
236.949;  153.000;  543.000;  431.000
237.092;  142.600;  412.000;  391.000
237.236; -170.100; -589.000; -502.000
237.379;  158.000;  352.000;  428.000
237.522; -221.700; -879.000; -768.000
237.666;    8.500; -271.000;   18.000
237.809; -277.400; -851.000; -823.000
237.952;   98.200;  469.000;  271.000
238.095; -119.300; -447.000; -442.000
238.238;  210.800;  688.000;  700.000
238.382;    7.800;  166.000;  103.000
238.525; -125.600; -598.000; -511.000
238.668; -266.300;-1060.000; -985.000
238.811; -140.700; -638.000; -643.000
238.954; -120.200; -483.000; -334.000
239.097;  202.700;  617.000;  664.000
239.241;   65.600;  394.000;  326.000
239.384;  -62.100; -254.000; -214.000
239.527; -101.800; -424.000; -224.000
239.670; -290.200; -994.000;-1091.000
239.813; -204.700; -696.000; -658.000
239.956;  209.900;  579.000;  473.000
240.099; -200.400; -778.000; -725.000
240.242;  167.800;  428.000;  432.000
240.385;  142.500;  466.000;  450.000
240.528; -144.300; -706.000; -473.000
240.671;   54.800;  189.000;  134.000
240.814;  -32.300; -441.000; -158.000
240.957; -182.500; -767.000; -578.000
241.100; -179.200; -779.000; -755.000
241.243; -310.300;-1234.000; -893.000
241.386; -131.900; -508.000; -379.000
241.529; -170.100; -735.000; -547.000
241.672; -114.600; -566.000; -495.000
241.815; -235.600; -832.000; -808.000
241.958;  -42.400; -125.000; -182.000
242.101; -145.900; -545.000; -390.000
242.244;  -64.900; -270.000; -325.000
242.387;  -70.000; -304.000; -246.000
242.530;   98.600;  470.000;  134.000
242.673;  -66.800; -381.000; -309.000
242.815; -247.500; -925.000; -899.000
242.958; -112.500; -482.000; -381.000
243.101;   69.800;  132.000;  187.000
243.244; -137.300; -564.000; -521.000
243.387; -120.800; -313.000; -316.000
243.530; -195.100; -657.000; -674.000
243.672;   52.400;   43.000;  -92.000
243.815; -103.700; -355.000; -283.000
243.958;   60.700;   98.000;  -26.000
244.101;   22.500;   59.000;  -16.000
244.243;   -4.900;  -47.000;  101.000
244.386; -210.500; -761.000; -630.000
244.529;  -27.100; -132.000; -139.000
244.672; -318.600;-1154.000; -951.000
244.814; -216.200; -621.000; -794.000
244.957;  -86.400; -380.000; -304.000
245.100; -135.400; -489.000; -489.000
245.242; -102.400; -387.000; -374.000
245.385;   27.000;  -59.000;  -39.000
245.528; -230.700; -871.000; -705.000
245.670;  218.800;  612.000;  634.000
245.813; -181.800; -599.000; -547.000
245.956;  -39.200; -324.000; -275.000
246.098; -156.600; -508.000; -650.000
246.241;   58.900;  194.000;   48.000
246.383;  -23.900; -119.000;  -73.000
246.526; -156.800; -454.000; -525.000
246.669; -256.200; -889.000; -780.000
246.811;   53.200;  172.000;   -1.000
246.954; -103.600; -512.000; -426.000
247.096;   -9.900;  -84.000;   -6.000
247.239; -119.400; -482.000; -445.000
247.381; -154.300; -647.000; -488.000
247.524;  181.300;  645.000;  679.000
247.666;  -12.700;   58.000;   11.000
247.809; -240.800; -887.000; -691.000
247.951;  -13.000;  -75.000;  138.000
248.094;   86.400;  432.000;  308.000
248.236; -311.300;-1262.000;-1238.000
248.378;   34.700; -356.000;  -81.000
248.521;    3.900; -334.000; -337.000
248.663;  -69.200; -236.000; -267.000
248.806;  -47.500; -300.000; -266.000
248.948; -178.500; -886.000; -763.000
249.090;  -97.600; -428.000; -398.000
249.233;  -79.100; -344.000; -381.000
249.375; -137.400; -474.000; -451.000
249.518;  -48.000;  -83.000; -133.000
249.660;   -0.300; -103.000;    3.000
249.802; -342.200;-1303.000;-1189.000
249.945; -109.000; -612.000; -540.000
250.087; -199.100; -834.000; -768.000
250.229; -103.000; -362.000; -480.000
250.371; -131.300; -494.000; -439.000
250.514;  -70.400; -310.000; -244.000
250.656;    1.100;   69.000;  102.000
250.798; -207.200; -849.000; -800.000
250.940; -105.600; -322.000; -322.000
251.083;  -42.400; -335.000; -111.000
251.225;  175.600;  338.000;  310.000
251.367;  -57.600; -274.000; -373.000
251.509;  -57.600; -265.000; -210.000
251.651; -191.400; -731.000; -671.000
251.794;  111.200;  538.000;  632.000
251.936; -188.700; -821.000; -747.000
252.078; -143.100; -540.000; -461.000
252.220; -102.100; -645.000; -477.000
252.362;  204.500;  344.000;  462.000
252.504; -148.400; -677.000; -584.000
252.646; -218.500; -875.000; -722.000
252.788;  -13.700;   14.000; -128.000
252.931;  -32.900; -257.000; -253.000
253.073;  -47.700; -376.000; -317.000
253.215;  -24.900;  141.000;  122.000
253.357;   -1.700;   82.000; -153.000
253.499;  -78.000; -374.000; -234.000
253.641; -161.600; -749.000; -594.000
253.783; -165.400; -609.000; -527.000
253.925; -154.000; -586.000; -591.000
254.067; -226.900; -744.000; -667.000
254.209;  -63.600; -391.000; -259.000
254.351; -287.100; -865.000; -883.000
254.493;  -98.300; -441.000; -417.000
254.635; -222.900; -936.000; -818.000
254.777; -151.500; -752.000; -687.000
254.918; -138.300; -512.000; -430.000
255.060; -100.000; -551.000; -395.000
255.202; -105.800; -473.000; -261.000
255.344; -163.200; -658.000; -455.000
255.486; -116.300; -471.000; -406.000
255.628; -199.600; -780.000; -781.000
255.770; -192.500; -676.000; -536.000
255.912;  -90.700; -559.000; -468.000
256.053; -133.800; -730.000; -508.000
256.195;  369.100; 1008.000;  903.000
256.337; -176.700; -861.000; -595.000
256.479;  158.700;  532.000;  416.000
256.621;  -58.600; -394.000; -212.000
256.762; -161.400; -789.000; -742.000
256.904;  163.400;  485.000;  487.000
257.046;  -49.900; -381.000; -271.000
257.188;  -69.400; -351.000; -264.000
257.329; -105.300; -525.000; -464.000
257.471; -217.200; -939.000; -807.000
257.613;  -79.300; -584.000; -498.000
257.755; -298.400;-1073.000; -982.000
257.896;  106.100;  286.000;  392.000
258.038; -128.100; -403.000; -352.000
258.180;  -59.400; -354.000; -279.000
258.321; -156.600; -581.000; -457.000
258.463;   13.000;  -71.000;  133.000
258.605; -158.800; -562.000; -570.000
258.746; -204.300; -886.000; -772.000
258.888; -289.600;-1026.000;-1020.000
259.029;   79.500;  121.000;   -8.000
259.171; -147.900; -614.000; -550.000
259.313;   10.500;  -49.000;  -47.000
259.454; -167.700; -536.000; -414.000
259.596; -127.000; -483.000; -390.000
259.737; -130.400; -590.000; -474.000
259.879;  116.400;  217.000;  311.000
260.020;  213.600;  901.000;  636.000
260.162;   -9.600; -146.000; -253.000
260.303; -208.500; -768.000; -687.000
260.445; -155.800; -609.000; -613.000
260.586;  106.000;  392.000;  157.000
260.728;  -82.800; -360.000; -248.000
260.869; -141.400; -350.000; -343.000
261.011;  187.000;  706.000;  537.000
261.152; -127.900; -479.000; -319.000
261.293; -168.700; -576.000; -595.000
261.435;  -73.400; -219.000; -184.000
261.576; -104.400; -455.000; -325.000
261.718;  135.100;  420.000;  470.000
261.859; -256.400; -940.000; -949.000
262.000; -279.500; -951.000;-1016.000
262.142;  -29.200;  -52.000;  -60.000
262.283; -225.300; -808.000; -691.000
262.424; -154.000; -666.000; -625.000
262.566; -305.900;-1161.000; -983.000
262.707; -223.200; -840.000; -830.000
262.848; -237.200; -769.000; -726.000
262.990;  -93.400; -362.000; -345.000
263.131;  212.100;  650.000;  681.000
263.272;   34.700;  -61.000;  -41.000
263.413; -160.000; -589.000; -561.000
263.555; -115.700; -669.000; -143.000
263.696; -129.700; -550.000; -641.000
263.837; -108.800; -449.000; -551.000
263.978;   11.500;   -5.000;  -77.000
264.119;  -62.300; -283.000; -264.000
264.261; -194.600; -847.000; -630.000
264.402;   40.200;   33.000;   40.000
264.543; -148.500; -509.000; -524.000
264.684;   -3.400;   61.000;  -50.000
264.825; -104.300; -816.000; -538.000
264.966;   26.300;  -84.000;  -67.000
265.107; -226.200; -646.000; -670.000
265.248; -232.600; -825.000; -812.000
265.390;   14.600;  152.000;   -9.000
265.531;  -20.800; -238.000; -107.000
265.672; -153.400; -557.000; -630.000
265.813;  191.200;  563.000;  439.000
265.954; -245.500; -959.000; -940.000
266.095;    5.400; -372.000; -322.000
266.236; -170.000; -686.000; -548.000
266.377;  -50.800; -243.000; -297.000
266.518; -125.900; -619.000; -547.000
266.659;   83.700;  170.000;  268.000
266.800;   47.300;   83.000;   85.000
266.941; -135.500; -487.000; -478.000
267.082;   79.100;  354.000;   99.000
267.223;  -75.300; -344.000; -273.000
267.364; -206.700; -892.000; -686.000
267.504;   -3.600;    3.000;  135.000
267.645;    7.500;  160.000;   67.000
267.786;  -50.500; -147.000;  -86.000
267.927; -117.200; -473.000; -379.000
268.068;  -17.500; -186.000;  -61.000
268.209;  -82.700; -175.000; -413.000
268.350; -106.400; -388.000; -532.000
268.490; -143.600; -648.000; -521.000
268.631;   76.300;  127.000;  225.000
268.772; -228.700; -874.000; -647.000
268.913;  -80.700; -328.000; -476.000
269.054;  -30.800; -117.000;   12.000
269.194;  -77.900; -418.000; -402.000
269.335; -263.300;-1137.000;-1074.000
269.476;    7.400;   33.000;  -35.000
269.617;  -91.400; -347.000; -392.000
269.757; -146.400; -713.000; -646.000
269.898; -195.000; -856.000; -613.000
270.039; -103.300; -415.000; -405.000
270.180; -221.500; -952.000; -816.000
270.320;    7.900; -190.000; -250.000
270.461;  -43.700; -277.000; -249.000
270.602;  -25.800; -186.000; -156.000
270.742; -218.900; -868.000; -943.000
270.883;  -96.500; -442.000; -390.000
271.023;  -98.500; -358.000; -357.000
271.164; -145.500; -607.000; -528.000
271.305; -182.300; -666.000; -654.000
271.445; -172.500; -722.000; -683.000
271.586; -113.800; -462.000; -283.000
271.726;  -99.900; -397.000; -322.000
271.867; -106.000; -594.000; -534.000
272.008;  364.400; -473.000; -285.000
272.148;  262.600;  462.000;  468.000
272.289;   57.900; -113.000; -181.000
272.429;   71.700;   19.000;  185.000
272.570; -161.700; -633.000; -737.000
272.710; -180.600; -825.000; -775.000
272.851;  -11.600;  113.000; -130.000
272.991; -314.100;-1173.000;-1077.000
273.131; -117.400; -419.000; -459.000
273.272; -178.400; -683.000; -723.000
273.412;   40.000; -143.000;  -31.000
273.553; -103.700; -488.000; -507.000
273.693;  326.600;  913.000;  858.000
273.834; -172.700; -894.000; -692.000
273.974; -137.100; -664.000; -615.000
274.114; -176.600; -772.000; -560.000
274.255;  172.900;  414.000;  373.000
274.395;   34.900; -180.000; -125.000
274.535;  116.500;  199.000;  350.000
274.676;   96.600;  225.000;   94.000
274.816;   20.300;  110.000;   34.000
274.956; -135.400; -624.000; -690.000
275.097; -130.100;-1014.000; -922.000
275.237; -213.200; -913.000; -803.000
275.377; -184.000; -778.000; -689.000
275.517; -269.600; -878.000; -937.000
275.658; -129.200; -590.000; -555.000
275.798;  -95.000; -606.000; -413.000
275.938;   20.000;  215.000;  323.000
276.078; -140.700; -626.000; -395.000
276.218;   48.100;   99.000;  104.000
276.359; -231.500;-1026.000;-1024.000
276.499; -146.200; -605.000; -446.000
276.639;  -45.800; -305.000; -151.000
276.779;  -76.500; -475.000; -357.000
276.919; -206.800; -783.000; -624.000
277.059;  -13.500; -261.000; -212.000
277.199;  -65.900; -357.000; -259.000
277.340;  122.100;  287.000;  175.000
277.480; -186.700; -840.000; -693.000
277.620;   81.600;  192.000;   16.000
277.760; -376.400;-1533.000;-1294.000
277.900;   40.100;  113.000;   33.000
278.040;   59.200;  137.000;  159.000
278.180;  131.800;  270.000;  170.000
278.320;   35.600;   21.000;   56.000
278.460; -113.700; -443.000; -469.000
278.600; -131.800; -708.000; -598.000
278.740;  176.900;  448.000;  224.000
278.880; -115.300; -768.000; -791.000
279.020;   59.700; -194.000; -144.000
279.160; -176.600; -672.000; -595.000
279.300; -221.600; -926.000; -873.000
279.440; -163.000; -709.000; -622.000
279.579;  -73.800;-1014.000; -929.000
279.719;  -89.000; -410.000; -394.000
279.859;  161.100;   -4.000;   41.000
279.999;   69.500; -208.000;  101.000
280.139;  -51.600; -435.000; -387.000
280.279; -132.300; -708.000; -745.000
280.419;   27.400; -229.000; -147.000
280.559;  -33.700; -259.000; -180.000
280.698; -128.400; -790.000; -639.000
280.838; -164.800; -778.000; -800.000
280.978; -200.500; -846.000; -790.000
281.118; -223.900; -811.000; -704.000
281.257;   46.300;   24.000;    6.000
281.397; -233.000;-1094.000; -960.000
281.537; -129.400; -599.000; -712.000
281.677;  -12.500; -150.000; -101.000
281.816; -173.000; -700.000; -630.000
281.956;  -50.700; -193.000; -257.000
282.096;  -81.800; -539.000; -396.000
282.235; -163.200; -672.000; -638.000
282.375;  -11.600; -243.000;  -98.000
282.515; -198.400; -715.000; -707.000
282.654;   68.100;   29.000;  106.000
282.794;   94.100;  388.000;  244.000
282.934;  -82.200; -530.000; -491.000
283.073; -254.200;-1030.000; -857.000
283.213;  -89.300; -460.000; -467.000
283.353;  -62.900; -408.000; -349.000
283.492;  -33.000; -264.000; -296.000
283.632;  -85.200; -254.000; -168.000
283.771; -177.600; -859.000; -730.000
283.911;  -74.900; -369.000; -260.000
284.050; -188.100; -794.000; -748.000
284.190; -292.600;-1229.000;-1096.000
284.329; -274.400;-1055.000; -964.000
284.469; -121.000; -516.000; -591.000
284.608;  -97.200; -559.000; -598.000
284.748; -141.300; -614.000; -570.000
284.887;   54.900;  -87.000;  -20.000
285.027; -226.000; -844.000; -892.000
285.166;  -27.800; -192.000; -249.000
285.306;   56.700; -116.000;  -33.000
285.445;  -50.600; -229.000; -343.000
285.584; -177.900; -630.000; -494.000
285.724;  -53.600; -282.000; -322.000
285.863; -195.400; -857.000; -507.000
286.002;  -57.300; -366.000; -276.000
286.142; -187.000; -715.000; -622.000
286.281; -121.500; -525.000; -493.000
286.420; -141.600; -554.000; -417.000
286.560;  241.100;  653.000;  623.000
286.699; -242.400; -958.000; -912.000
286.838; -141.400; -590.000; -591.000
286.978; -153.000; -533.000; -537.000
287.117; -230.200;-1085.000; -950.000
287.256;   -4.500; -228.000; -211.000
287.395;  -63.000; -197.000; -378.000
287.535;  -83.600; -370.000; -298.000
287.674; -134.900; -509.000; -484.000
287.813;  159.000;  661.000;  533.000
287.952; -214.400;-1010.000; -871.000
288.091; -301.300;-1049.000; -915.000
288.231;   66.000;   13.000;   15.000
288.370; -311.500;-1217.000;-1200.000
288.509; -149.700; -728.000; -645.000
288.648; -173.000; -770.000; -548.000
288.787;  -17.400; -243.000;  -87.000
288.926;  -79.900; -454.000; -475.000
289.065;  311.100;  859.000;  672.000
289.204;  -79.700; -377.000; -217.000
289.344; -181.800; -791.000; -690.000
289.483;   95.800;  416.000;  304.000
289.622;    5.800; -291.000; -149.000
289.761;   19.200; -309.000; -166.000
289.900; -208.100; -785.000; -626.000
290.039;   20.000;  -12.000;  -95.000
290.178;  -70.300; -274.000; -180.000
290.317; -118.800; -618.000; -479.000
290.456; -103.300; -463.000; -451.000
290.595; -247.100; -961.000; -833.000
290.734; -238.900; -904.000; -891.000
290.873; -114.700; -456.000; -420.000
291.011; -171.900; -833.000; -843.000
291.150; -213.500; -770.000; -682.000
291.289;  -29.100; -343.000; -110.000
291.428; -167.600; -599.000; -480.000
291.567;  -66.500; -370.000; -442.000
291.706;   25.300;  109.000;  154.000
291.845; -180.000; -597.000; -505.000
291.984; -313.100;-1234.000;-1061.000
292.122;  204.400;  602.000;  582.000
292.261;  123.200;  620.000;  463.000
292.400;   60.800; -144.000;  211.000
292.539; -247.600; -959.000; -813.000
292.678;  -45.200; -325.000; -300.000
292.816; -284.900;-1136.000; -965.000
292.955; -170.400; -844.000; -684.000
293.094;   -0.300; -173.000; -337.000
293.233;  -94.200; -556.000; -400.000
293.371;  -28.200; -225.000;  -84.000
293.510; -210.800; -866.000; -780.000
293.649; -217.700; -959.000; -924.000
293.787; -100.400;-1083.000;-1012.000
293.926;   24.100; -113.000;  -32.000
294.065;  -63.100; -379.000; -290.000
294.203;  132.500;  298.000;  406.000
294.342;   57.500;   74.000;  156.000
294.481;12141.800;51180.000; -836.000
294.619;  -26.300; -425.000; -582.000
294.758; -293.500;-1230.000;-1137.000
294.896;  194.700; -125.000;    5.000
295.035; -233.700;-1040.000;-1006.000
295.174; -246.200;-1082.000; -954.000
295.312;  -53.300; -323.000; -203.000
295.451;    3.600; -307.000; -428.000
295.589;  -71.700; -389.000; -518.000
295.728;   98.100; -292.000; -165.000
295.866;   14.400;  -36.000;  -51.000
296.005;  -88.100; -584.000; -341.000
296.143; -100.400; -558.000; -596.000
296.282; -182.000; -957.000; -881.000
296.420; -149.500; -657.000; -557.000
296.559; -138.200; -892.000; -633.000
296.697;   45.600; -847.000; -665.000
296.835;  135.300;-1141.000;-1002.000
296.974;  135.600;  -23.000;   39.000
297.112;   46.700; -443.000; -504.000
297.251; -105.400; -815.000; -755.000
297.389;  206.500; -576.000; -438.000
297.527;   99.200; -145.000;  -83.000
297.666;  -82.300; -486.000; -438.000
297.804;  -53.900; -404.000; -264.000
297.942;    3.600; -136.000; -161.000
298.081;    9.500; -183.000;   63.000
298.219;  172.000;  -17.000;  -19.000
298.357;  106.700; -144.000;  -71.000
298.495;  117.600; -810.000; -812.000
298.634;  185.800;  245.000;  219.000
298.772;  186.300; -220.000; -338.000
298.910;  -55.500; -309.000; -182.000
299.048;   10.300; -130.000; -153.000
299.187;  -15.400; -350.000; -250.000
299.325;   87.900;   52.000;  122.000
299.463;  105.100; -389.000; -299.000
299.601;  238.700; -327.000; -271.000
299.739; -179.700; -908.000; -883.000
299.877; -120.300; -791.000; -703.000
300.016;  -81.500;-1095.000; -935.000
300.154;  344.200;  -19.000; -161.000
300.292;  117.600; -428.000; -348.000
300.430;  117.600; -408.000; -291.000
300.568; -161.800; -940.000; -874.000
300.706;  -46.400; -366.000; -469.000
300.844; -143.300;-1108.000; -979.000
300.982;  267.300;  246.000;  282.000
301.120; -182.700; -965.000; -866.000
301.258;  -93.000; -812.000; -705.000
301.396;   96.400;  104.000;  -41.000
301.534;  166.200; -218.000; -293.000
301.672;   19.300; -664.000; -521.000
301.810;   65.100; -613.000; -545.000
301.948;  297.800;   53.000;  149.000
302.086; 1108.200; -250.000;  -32.000
302.224; 1798.000; -610.000; -585.000
302.362;  114.900; -558.000; -622.000
302.500;  -35.500; -923.000; -893.000
302.638;  221.200;  128.000;  245.000
302.776;   60.700; -352.000; -408.000
302.913;  139.100;  447.000;  236.000
303.051;   20.300;  -86.000;  -23.000
303.189;  146.000;   90.000;  118.000
303.327;  -44.200; -341.000; -256.000
303.465; -131.200; -832.000; -588.000
303.603; -138.300; -805.000; -604.000
303.740;  257.700;  417.000;  241.000
303.878;   63.800; -800.000; -759.000
304.016; -148.600; -915.000; -790.000
304.154; -228.600;-1123.000;-1152.000
304.291;  -57.800; -505.000; -554.000
304.429;   51.600;  102.000;   74.000
304.567; -223.600; -908.000; -893.000
304.705;  -54.200; -408.000; -515.000
304.842;  211.600; -616.000; -540.000
304.980;  155.700;  215.000;   35.000
305.118;  125.000; -367.000; -365.000
305.255; -124.200; -945.000; -927.000
305.393;  178.400;  178.000;  239.000
305.531; -191.600;-1173.000; -956.000
305.668; -107.500; -663.000; -582.000
305.806;  205.100; -358.000; -439.000
305.943;  179.700; -629.000; -637.000
306.081;  121.800; -378.000; -267.000
306.219; -199.800; -863.000; -748.000
306.356;   22.000;  158.000;   27.000
306.494;  300.600;  981.000;  761.000
306.631;   26.400;  -11.000;  -55.000
306.769;   51.000; -613.000; -485.000
306.906;   20.900; -284.000; -258.000
307.044;  -69.000; -473.000; -488.000
307.181;  -73.800; -410.000; -332.000
307.319;   81.900;  112.000;   87.000
307.456; -324.300;-1191.000;-1153.000
307.594; -181.300; -980.000; -727.000
307.731;   -7.900; -371.000; -164.000
307.868;   57.500;  -15.000;   20.000
308.006; -254.200; -961.000; -847.000
308.143; -115.700; -618.000; -330.000
308.281;  465.900;  -37.000; -254.000
308.418;   55.000; -748.000; -640.000
308.555; -105.500; -400.000; -250.000
308.693;  -88.200; -577.000; -573.000
308.830; -168.200; -712.000; -657.000
308.967;   37.400; -215.000;  -95.000
309.105;  -23.000; -507.000; -396.000
309.242;  130.400; -468.000; -367.000
309.379;  893.000; -577.000; -655.000
309.517;  -58.700; -936.000; -948.000
309.654; -158.900; -910.000; -734.000
309.791; -117.100; -662.000; -580.000
309.928; -222.200; -977.000; -914.000
310.065;  415.700;  819.000;  697.000
310.203;   20.900; -825.000; -850.000
310.340;   32.100; -465.000; -321.000
310.477;  -99.200; -412.000; -516.000
310.614;  -63.600; -383.000; -473.000
310.751;  -99.100; -427.000; -518.000
310.889;    1.300;    1.000;   11.000
311.026; -260.600;-1161.000; -939.000
311.163;  -46.500; -386.000; -380.000
311.300;  -86.300; -512.000; -479.000
311.437;  -95.300; -658.000; -619.000
311.574; -253.900;-1226.000; -985.000
311.711; -102.000; -595.000; -433.000
311.848;  -43.900; -380.000; -388.000
311.985;   44.800;  270.000;   93.000
312.122; -216.900; -932.000; -762.000
312.259; -168.900; -941.000; -994.000
312.396; -111.300; -508.000; -551.000
312.533; -145.600; -812.000; -790.000
312.670; -245.800;-1070.000; -898.000
312.807;  -21.200; -352.000; -367.000
312.944; -124.800; -513.000; -611.000
313.081;  -27.700; -150.000; -415.000
313.218; -180.300;-1111.000; -867.000
313.355;   45.000; -531.000; -449.000
313.492;   41.400; -455.000; -292.000
313.629;  339.000;  815.000;  735.000
313.766; -270.900;-1176.000;-1008.000
313.902;   36.800; -186.000;   21.000
314.039;  -26.300; -372.000; -289.000
314.176;  126.700;  286.000;  192.000
314.313; -101.500; -569.000; -473.000
314.450;  -84.200; -788.000; -684.000
314.587;  -90.300; -468.000; -480.000
314.723;   75.200;  -78.000;  130.000
314.860;  124.900;  318.000;  332.000
314.997;   99.000;  223.000;  142.000
315.134;  -60.000; -385.000; -368.000
315.270;   14.500; -480.000; -496.000
315.407; -201.800;-1094.000; -967.000
315.544;  -46.600; -657.000; -538.000
315.681;  -82.200; -681.000; -565.000
315.817;   72.800; -133.000; -176.000
315.954;   64.100; -613.000; -392.000
316.091; -204.400;-1045.000;-1023.000
316.227;   -8.200;  -71.000; -179.000
316.364;   35.500;   23.000;    6.000
316.500;  -27.400; -113.000; -300.000
316.637;  -58.200; -181.000; -302.000
316.774; -150.600; -625.000; -358.000
316.910; -124.900; -598.000; -629.000
317.047;  -93.200; -487.000; -351.000
317.183;  -52.500; -435.000; -566.000
317.320;   -4.200; -367.000; -321.000
317.456; -135.800; -733.000; -805.000
317.593; -148.700; -598.000; -641.000
317.729;   83.600;  168.000;  -67.000
317.866; -339.400;-1434.000;-1285.000
318.002; -150.400; -708.000; -948.000
318.139; -176.500; -883.000; -867.000
318.275; -182.900;-1003.000; -738.000
318.412;  -76.700; -517.000; -336.000
318.548;  -16.100; -751.000; -720.000
318.685; -189.400; -985.000; -888.000
318.821; -155.300; -762.000; -735.000
318.957;   32.600;   34.000;  -23.000
319.094;  144.500;  297.000;  154.000
319.230;  -99.500; -756.000; -742.000
319.367;  277.700; -471.000; -520.000
319.503;  117.500; -538.000; -436.000
319.639; -154.700; -877.000; -793.000
319.775; -100.200; -750.000; -685.000
319.912;  -53.000; -424.000; -519.000
320.048; -149.900;-1184.000;-1184.000
320.184;  183.200;   59.000;   70.000
320.321;  -99.800; -497.000; -467.000
320.457;  177.500;  475.000;  662.000
320.593; -124.300; -375.000; -382.000
320.729; -176.700; -732.000; -734.000
320.866;  -82.300; -577.000; -635.000
321.002; -138.200; -759.000; -809.000
321.138;   -5.600; -135.000; -211.000
321.274;  165.800; -148.000; -115.000
321.410;  -34.800; -585.000; -353.000
321.546;  -34.300;-1011.000; -911.000
321.683;  171.200;  400.000;  185.000
321.819;   60.700;  -48.000; -117.000
321.955; -165.600; -743.000; -722.000
322.091;  -71.400; -585.000; -540.000
322.227;   32.300; -382.000; -202.000
322.363;    0.200; -320.000; -215.000
322.499;  -90.700; -343.000; -331.000
322.635;  381.100;  636.000;  443.000
322.771;   87.200; -139.000;   12.000
322.907;  215.600;  129.000;  327.000
323.043;   -2.500; -115.000; -206.000
323.179;  -24.300; -394.000; -363.000
323.315;   49.300; -401.000; -371.000
323.451;  196.100; -328.000; -236.000
323.587;  169.400;  -60.000;  -77.000
323.723;   35.000; -682.000; -601.000
323.859;    9.900; -258.000;  -76.000
323.995;  -11.400; -467.000; -409.000
324.131; -213.800; -967.000; -892.000
324.267;  -53.800; -254.000; -276.000
324.402; -216.700; -960.000; -983.000
324.538;   -0.800; -279.000; -104.000
324.674;   74.300;  164.000;   77.000
324.810;  317.800;  226.000;  308.000
324.946;   98.400; -810.000; -658.000
325.082; -115.100; -568.000; -475.000
325.217;   49.500;  -62.000;   16.000
325.353; -153.300; -764.000; -659.000
325.489; -100.800; -540.000; -506.000
325.625; -105.900; -579.000; -525.000
325.760;  166.900;  517.000;  376.000
325.896;  -18.000; -515.000; -702.000
326.032;  -55.300; -403.000; -352.000
326.168; -116.000; -462.000; -369.000
326.303;  -79.400; -352.000; -461.000
326.439;  -22.300; -336.000; -276.000
326.575;   49.800; -190.000;  -29.000
326.710;   66.400; -156.000;  -30.000
326.846;   60.100;  146.000;  103.000
326.982; -148.500; -530.000; -548.000
327.117;  -55.900; -481.000; -442.000
327.253; -152.000; -745.000; -742.000
327.388; -197.000;-1137.000;-1153.000
327.524;  -49.900; -811.000; -578.000
327.659;  -21.600;  -58.000;  -22.000
327.795;   -4.400;   69.000;   45.000
327.931; -146.900; -723.000; -499.000
328.066;  -12.300; -417.000; -276.000
328.202;   48.800;   12.000; -129.000
328.337;  221.400;  957.000;  713.000
328.473;   69.400;  -12.000;  -74.000
328.608;  -40.100; -256.000; -267.000
328.743; -132.300; -799.000; -664.000
328.879;   88.500;  214.000;  114.000
329.014;  -75.700; -102.000; -122.000
329.150; -140.000; -358.000; -483.000
329.285; -117.100; -465.000; -466.000
329.421;  -77.900; -548.000; -246.000
329.556;  -10.300;  -36.000;   85.000
329.691; -123.300; -633.000; -615.000
329.827; -138.900; -626.000; -480.000
329.962;  -51.000;  131.000; -301.000
330.097; -154.600; -673.000; -585.000
330.233;  -50.400; -410.000; -223.000
330.368; -227.800; -839.000; -628.000
330.503;    7.500;    3.000;   98.000
330.638;   75.300;  -93.000; -125.000
330.774;  -65.300; -609.000; -530.000
330.909;  -44.900; -434.000; -244.000
331.044; -152.600; -714.000; -708.000
331.179; -335.100;-1217.000;-1109.000
331.315;   54.000;   77.000;   20.000
331.450;   95.800;  157.000;  285.000
331.585; -146.400; -805.000; -706.000
331.720; -140.600; -510.000; -460.000
331.855;   39.600;  -35.000; -102.000
331.990;  452.500;   62.000;  138.000
332.126;  276.800; -110.000;   71.000
332.261;  -12.700; -379.000; -265.000
332.396;   23.900; -135.000; -242.000
332.531; -171.800;-1074.000;-1031.000
332.666;   98.500; -519.000; -363.000
332.801; -170.300; -726.000; -807.000
332.936;   14.600; -192.000; -122.000
333.071; -271.400; -870.000; -817.000
333.206;   92.400;  307.000;  379.000
333.341;  107.100;  344.000;  418.000
333.476; -137.600; -627.000; -623.000
333.611;  -49.000; -251.000; -173.000
333.746;  -49.800; -381.000; -464.000
333.881; -209.100; -973.000; -935.000
334.016; -196.800; -936.000; -917.000
334.151; -215.700; -746.000; -702.000
334.286;   98.600;  152.000;  186.000
334.421;   31.500; -125.000; -178.000
334.556; -149.800; -611.000; -567.000
334.690; -158.900; -631.000; -577.000
334.825;  172.700;  381.000;   83.000
334.960; -100.400; -285.000; -413.000
335.095;   59.700;  135.000;  -91.000
335.230; -155.800; -722.000; -738.000
335.365; -256.100;-1084.000; -990.000
335.499; -205.500;-1108.000;-1037.000
335.634;   97.100;    9.000;  534.000
335.769; -164.700; -755.000; -720.000
335.904;  -73.300; -603.000; -561.000
336.038; -121.400; -735.000; -657.000
336.173; -205.400;-1206.000;-1194.000
336.308;   64.400; -116.000; -189.000
336.443;   80.700; -544.000; -634.000
336.577; -156.100; -936.000; -787.000
336.712;  174.600;   -4.000;  -12.000
336.847;  -45.600; -724.000; -607.000
336.981;  165.100; -272.000; -208.000
337.116;  591.000;  615.000;  501.000
337.250;  308.000; -434.000; -421.000
337.385;  473.000; -297.000; -208.000
337.520;  168.600; -632.000; -603.000
337.654;  -30.400; -215.000; -126.000
337.789; -241.700; -989.000; -933.000
337.923;   10.500; -104.000; -205.000
338.058; -122.900; -673.000; -738.000
338.192;  -52.200; -611.000; -488.000
338.327;   31.000;  -18.000; -155.000
338.461;  -94.700; -299.000; -469.000
338.596; -156.000; -780.000; -638.000
338.730; -154.500; -767.000; -803.000
338.865;  213.500;  -46.000; -140.000
338.999;  -86.200; -846.000; -702.000
339.134;  -35.600; -634.000; -536.000
339.268;   26.800; -741.000; -603.000
339.403;  665.400; -740.000; -775.000
339.537;  242.200; -894.000; -820.000
339.671; -191.500; -829.000; -813.000
339.806;  -47.800; -556.000; -512.000
339.940;   63.300; -261.000; -235.000
340.074; -124.500; -685.000; -510.000
340.209;  -24.500; -351.000; -230.000
340.343; -134.800; -517.000; -573.000
340.477;  390.900;  998.000; 1036.000
340.612;  -85.900;-1033.000; -900.000
340.746;  254.800; -199.000; -243.000
340.880;  -84.400; -924.000; -785.000
341.014;   14.200;  -45.000; -154.000
341.149; -158.000; -756.000; -718.000
341.283; -162.200; -839.000; -754.000
341.417; -153.300;-1124.000; -938.000
341.551;  282.300; -768.000; -708.000
341.685;  -39.800; -633.000; -611.000
341.820;  -79.100; -562.000; -493.000
341.954;  -62.700; -218.000; -349.000
342.088; -248.600;-1102.000;-1019.000
342.222;  127.400;  565.000;  618.000
342.356;  -99.100; -395.000; -335.000
342.490; -154.100; -880.000; -841.000
342.624;  -42.800; -339.000; -242.000
342.758;   33.100; -364.000; -312.000
342.892; -114.200; -710.000; -585.000
343.026;    1.900;  -58.000; -116.000
343.160;  -96.800; -426.000; -376.000
343.294; -132.400; -474.000; -337.000
343.428;   -2.300; -488.000; -448.000
343.562;  -15.300; -172.000;  -23.000
343.696;    9.100; -385.000; -314.000
343.830;    7.400; -362.000; -356.000
343.964;   64.600; -231.000; -168.000
344.098; 1685.500;  199.000;   70.000
344.232; 1410.900; -266.000; -127.000
344.366;  206.200; -567.000; -453.000
344.500;  138.000; -665.000; -744.000
344.634;  102.900; -324.000; -164.000
344.768;    1.700; -531.000; -341.000
344.902;   71.100;  278.000;  256.000
345.035; -107.100; -556.000; -496.000
345.169; -225.200; -933.000; -656.000
345.303;   -9.900; -308.000; -482.000
345.437;  -97.400; -826.000; -717.000
345.571;  -95.900; -675.000; -594.000
345.704;  -78.100; -309.000; -532.000
345.838;    6.400; -331.000; -284.000
345.972;  -12.800; -543.000; -495.000
346.106;  325.600; -179.000; -190.000
346.239;  793.100; -312.000; -243.000
346.373;   35.100; -343.000; -302.000
346.507; -240.600; -950.000; -962.000
346.640;  326.800;  -30.000;   13.000
346.774;  -59.000; -650.000; -797.000
346.908;   19.000; -138.000;  -11.000
347.041; -147.300; -646.000; -593.000
347.175;   75.600;  259.000;   27.000
347.309; -108.100; -698.000; -628.000
347.442; -172.000; -883.000; -732.000
347.576;  568.100;  670.000;  668.000
347.709;  437.600; -123.000;  -52.000
347.843; -161.200; -933.000; -825.000
347.976;  101.700;  235.000;  294.000
348.110; -337.200;-1268.000;-1186.000
348.243; -152.700; -679.000; -772.000
348.377;   76.000;  -26.000;   60.000
348.510;  170.800;  403.000;  540.000
348.644;  -29.900;  -37.000; -159.000
348.777;   82.900;  180.000;  191.000
348.911;  -57.600; -142.000; -112.000
349.044;  350.000;  471.000;  448.000
349.178;  293.800;-1069.000;-1006.000
349.311;  310.000;  141.000;  255.000
349.444;   -0.900; -927.000; -813.000
349.578;    6.800; -347.000; -200.000
349.711; -192.800; -959.000; -862.000
349.845;   38.700; -661.000; -591.000
349.978; -261.000;-1224.000;-1137.000
350.111;  -99.500; -546.000; -612.000
350.244; -112.000; -596.000; -700.000
350.378;   72.400; -392.000; -393.000
350.511;  -77.600; -393.000; -426.000
350.644; -181.600; -808.000; -806.000
350.778;  103.500;  168.000;  104.000
350.911;   22.500;  134.000;  140.000
351.044; -132.700; -685.000; -615.000
351.177;  -25.000; -321.000; -281.000
351.310;   28.600;    3.000; -131.000
351.444; -126.900; -888.000; -788.000
351.577;  283.100;  140.000;   90.000
351.710;  246.400;  593.000;  417.000
351.843;   -7.300; -165.000;  -77.000
351.976;   51.200;  149.000;  -79.000
352.109; -133.200; -621.000; -612.000
352.242;   26.100; -464.000; -419.000
352.376;  -53.200; -580.000; -636.000
352.509;  337.700; -437.000; -356.000
352.642;   22.300; -654.000; -604.000
352.775;  166.100; -141.000;  -98.000
352.908; -164.900; -933.000; -904.000
353.041; -156.400; -814.000; -824.000
353.174;  -56.200; -551.000; -424.000
353.307; -148.900; -753.000; -764.000
353.440;  225.400;  541.000;  453.000
353.573; -206.900; -957.000;-1008.000
353.706; -110.200; -384.000; -558.000
353.839;  -11.600; -264.000; -220.000
353.971; -127.400; -657.000; -512.000
354.104; -143.000; -896.000; -835.000
354.237;  -30.800; -627.000; -662.000
354.370; -146.300; -846.000; -879.000
354.503; -341.400;-1231.000;-1308.000
354.636;  -17.700; -529.000; -348.000
354.769; -215.100; -937.000; -860.000
354.902;    2.600; -230.000; -139.000
355.034;   23.700; -164.000; -220.000
355.167;   19.900; -262.000; -162.000
355.300; -168.100;-1061.000; -880.000
355.433; 1843.000;  -71.000;  -14.000
355.565; 2785.300; -402.000; -384.000
355.698;  720.400; -356.000; -296.000
355.831;   -2.500; -882.000; -801.000
355.964;  227.200; -285.000; -170.000
356.096; -120.200; -856.000; -843.000
356.229;   47.500; -523.000; -530.000
356.362;  643.100; -373.000; -266.000
356.494; 1130.400; -229.000; -162.000
356.627;  978.600;  269.000;  377.000
356.760; 1272.100;  120.000;   53.000
356.892; 1741.600; -286.000; -601.000
357.025; 1257.500;  403.000;  389.000
357.157; 1178.300; -167.000; -179.000
357.290; 1197.600; -856.000; -713.000
357.423;  346.700; -667.000; -556.000
357.555;  290.000; -217.000; -228.000
357.688;  246.100; -483.000; -364.000
357.820;  841.500; -870.000; -877.000
357.953; 6617.500; -563.000; -589.000
358.085; 1459.500; -632.000; -612.000
358.218; 2171.200;-1131.000; -932.000
358.350;  447.400;  -58.000;  312.000
358.483; -193.900;-1300.000;-1187.000
358.615;   14.800;-1182.000;-1078.000
358.747;  -70.200;-1187.000;-1058.000
358.880;   80.200; -810.000; -744.000
359.012;   45.900; -376.000; -202.000
359.145;  -36.100; -480.000; -511.000
359.277;  105.600; -962.000; -913.000
359.409; 5581.700;  536.000;  231.000
359.542; 1427.800; -738.000; -688.000
359.674;  174.100;   46.000;   13.000
359.806; -106.900; -565.000; -438.000
359.939;  -44.600; -617.000; -516.000
360.071;   23.700; -583.000; -579.000
360.203;   -5.900; -411.000; -364.000
360.335;  154.500;  164.000;  -16.000
360.468;  396.000; -249.000; -307.000
360.600; 4435.200; -547.000; -454.000
360.732; 5016.500; -546.000; -423.000
360.864;  666.000;-1216.000;-1044.000
360.996;  616.300; -516.000; -554.000
361.129;  115.800; -389.000; -598.000
361.261;  100.600;  110.000; -113.000
361.393;  -19.100; -252.000; -214.000
361.525;  124.300;   94.000;  244.000
361.657;  -35.900; -821.000; -703.000
361.789;  105.400; -139.000; -155.000
361.921;  474.000; -642.000; -593.000
362.053;  537.400;  524.000;  541.000
362.185;  150.100;  288.000;   72.000
362.318; -122.300; -709.000; -705.000
362.450;  306.600;  294.000;  444.000
362.582;  229.800; -913.000; -870.000
362.714;   -5.100; -353.000; -332.000
362.846; -138.300; -606.000; -490.000
362.978; -205.100; -941.000; -811.000
363.109;  147.500; -161.000; -260.000
363.241;  832.800; -739.000; -749.000
363.373;  817.200; -649.000; -564.000
363.505; 1243.200; -186.000;  -91.000
363.637;  316.100; -787.000; -601.000
363.769; -175.100;-1067.000;-1080.000
363.901;  -89.200; -596.000; -654.000
364.033; -203.000;-1103.000;-1062.000
364.165;   23.900; -283.000; -283.000
364.296;  196.700; -316.000; -177.000
364.428;  138.800;-1344.000;-1220.000
364.560;  -85.600; -679.000; -661.000
364.692;  -78.800; -738.000; -835.000
364.824;  540.000; -588.000; -456.000
364.955;  837.400; -402.000; -564.000
365.087; 1640.000;-1097.000; -852.000
365.219;   89.200; -686.000; -816.000
365.351;  -93.700; -526.000; -572.000
365.482;  183.200;  300.000;  240.000
365.614;  -62.900; -402.000; -314.000
365.746; -144.600; -729.000; -752.000
365.877; -152.400; -706.000; -672.000
366.009;  518.300;  -35.000;  -62.000
366.141; -157.600;-1249.000;-1134.000
366.272; -192.000; -803.000; -719.000
366.404; -183.800;-1005.000; -874.000
366.535;   65.600; -139.000;  -12.000
366.667; -169.400; -644.000; -649.000
366.799;  135.100;  353.000;  203.000
366.930; -193.000; -862.000; -996.000
367.062;  255.500; -639.000; -613.000
367.193;  271.400; -872.000; -842.000
367.325;  -60.500; -580.000; -684.000
367.456;  184.800; -246.000;   31.000
367.588;  340.600; -371.000; -318.000
367.719;   97.500;  -44.000;  -45.000
367.851;   32.900; -222.000; -241.000
367.982;  -51.900; -875.000; -732.000
368.113;  247.300; -475.000; -358.000
368.245; -179.600; -960.000; -841.000
368.376;   24.100; -254.000; -302.000
368.508;  -21.000; -188.000; -263.000
368.639; -240.200;-1166.000;-1034.000
368.770;   18.700; -670.000; -589.000
368.902;  -90.300; -836.000; -926.000
369.033; -148.500; -906.000; -855.000
369.164;  -26.500; -720.000; -653.000
369.296; -182.800; -452.000; -601.000
369.427;   48.500; -209.000; -144.000
369.558;  -19.700; -593.000; -377.000
369.689;  -88.200; -721.000; -569.000
369.821; -206.300; -951.000; -845.000
369.952;   25.200;   42.000; -108.000
370.083;  -16.000; -229.000; -108.000
370.214; -110.600; -735.000; -650.000
370.345;   56.600;   65.000;   81.000
370.477; -121.500; -810.000; -790.000
370.608;  478.900; -328.000; -264.000
370.739;  -55.800;-1233.000;-1292.000
370.870;  -39.600;-1102.000; -923.000
371.001;  216.700; -378.000; -467.000
371.132; -120.800; -754.000; -735.000
371.263;   10.900;  -42.000; -148.000
371.394; -217.000; -841.000; -748.000
371.525;  102.700;  345.000;  225.000
371.657; -110.500; -808.000; -670.000
371.788;  243.800;  103.000;  199.000
371.919;  325.400; -384.000; -304.000
372.050; 6700.700;  -91.000; -156.000
372.181; 1906.600; -188.000; -294.000
372.311;  732.300;   42.000; -127.000
372.442;  119.500; -457.000; -451.000
372.573;    0.300; -444.000; -340.000
372.704; -187.300;-1008.000; -980.000
372.835;  197.600; -228.000; -289.000
372.966;  -69.100; -646.000; -554.000
373.097;  -92.200; -575.000; -711.000
373.228;  -45.100; -717.000; -542.000
373.359;  275.800; -824.000; -536.000
373.490; 1784.200; -881.000; -727.000
373.620; 2082.300;-1001.000; -803.000
373.751; 3364.800; -332.000; -396.000
373.882; 1412.100; -663.000; -733.000
374.013;  199.100; -449.000; -262.000
374.143;  -30.000; -581.000; -659.000
374.274; -164.800; -987.000; -908.000
374.405;  390.200; -388.000; -276.000
374.536;  878.100; -526.000; -387.000
374.666; 2082.100; -759.000; -807.000
374.797;  415.800; -817.000; -868.000
374.928; 1686.500; -710.000; -560.000
375.058; 1611.100; -535.000; -500.000
375.189;  185.800;  -59.000;  -93.000
375.320; -184.900; -928.000;-1034.000
375.450;  -13.600; -625.000; -616.000
375.581;  -24.100; -526.000; -436.000
375.712;   21.800; -574.000; -250.000
375.842;  662.100; -438.000; -415.000
375.973;  450.400; -554.000; -513.000
376.103;  -41.800; -665.000; -648.000
376.234; -103.600; -531.000; -552.000
376.364;  -30.100; -944.000; -867.000
376.495;  662.100;  925.000;  529.000
376.625;   38.300; -472.000; -485.000
376.756;  149.200; -709.000; -678.000
376.886; -100.100;-1178.000;-1026.000
377.017;  119.300;-1048.000;-1061.000
377.147;  678.600; -786.000; -782.000
377.278;  163.000;  174.000;  228.000
377.408; -205.200; -801.000; -815.000
377.538; -177.000; -707.000; -693.000
377.669;  -79.900; -537.000; -613.000
377.799; -140.900; -645.000; -635.000
377.929;  -77.300; -610.000; -428.000
378.060; -206.100; -781.000; -847.000
378.190;  -60.700; -726.000; -531.000
378.320;  -75.400; -401.000; -406.000
378.451;   22.200; -131.000;  -22.000
378.581;   37.600;  -67.000; -110.000
378.711;  389.000; 1035.000;  866.000
378.841;   11.400; -533.000; -675.000
378.972; -106.500; -871.000; -751.000
379.102;   32.400; -652.000; -579.000
379.232;   13.200; -126.000;  -73.000
379.362; -144.400;-1001.000; -885.000
379.492;   78.200; -373.000; -424.000
379.623;  275.000;    0.000;  111.000
379.753; -145.100;-1107.000; -974.000
379.883;  412.100;   59.000;  156.000
380.013;    1.500;-1081.000;-1017.000
380.143; -155.000;-1097.000;-1056.000
380.273; -156.400; -985.000; -861.000
380.403;   53.900; -344.000; -257.000
380.533;  -11.000; -651.000; -664.000
380.663;  189.600;  173.000;  128.000
380.793; -141.600;-1027.000;-1074.000
380.923;    8.500; -103.000;  -34.000
381.053; -147.100; -613.000; -623.000
381.183;  -33.200; -106.000; -248.000
381.313;  115.600; -656.000; -470.000
381.443;  111.600; -692.000; -473.000
381.573;  422.300; -402.000; -409.000
381.703;  584.900;-1249.000;-1095.000
381.833; -221.800;-1454.000;-1336.000
381.963;  262.300; -134.000;  -87.000
382.093; 2606.900; -925.000; -909.000
382.223;  790.200; -713.000; -602.000
382.353;   20.500; -801.000; -608.000
382.482;  725.500;-1091.000; -964.000
382.612; 1471.800; -872.000; -644.000
382.742;  799.400; -695.000; -622.000
382.872;  562.000; -565.000; -551.000
383.002;  211.800;  347.000; -132.000
383.131;    6.800; -226.000; -160.000
383.261;  -37.300; -706.000; -768.000
383.391;  555.700; -552.000; -377.000
383.521; 5873.900;  451.000;  263.000
383.650; 1262.400; -947.000; -904.000
383.780;   24.000; -783.000; -656.000
383.910;  295.000;  880.000;  802.000
384.039;   76.100; -794.000; -656.000
384.169;  406.400;-1205.000;-1017.000
384.299;   -7.400; -650.000; -662.000
384.428; -124.000; -764.000; -680.000
384.558;   11.600; -308.000; -275.000
384.687;  -37.500; -414.000; -334.000
384.817;  116.700;   75.000;   -2.000
384.947;  115.300; -234.000; -141.000
385.076;  669.300;  982.000;  912.000
385.206;  307.700;  369.000;  480.000
385.335;  -33.300; -549.000; -417.000
385.465;  -88.700; -655.000; -663.000
385.594;  344.200;  -53.000;  -44.000
385.724;  792.600; -868.000; -838.000
385.853;  285.500; -296.000; -270.000
385.982; 2628.500; -743.000; -787.000
386.112; 3817.200;-1052.000; -871.000
386.241;  330.400; -307.000; -312.000
386.371;  117.000; -174.000;  -87.000
386.500;   61.800; -825.000; -789.000
386.629;   92.400; -874.000; -817.000
386.759;  197.800;  -43.000;   68.000
386.888;   96.800; -170.000; -250.000
387.017;  -57.300; -648.000; -620.000
387.147; -113.100; -771.000; -798.000
387.276;   81.000; -410.000; -397.000
387.405;   46.700; -398.000; -342.000
387.535;  -13.200; -452.000; -361.000
387.664;  -79.600; -692.000; -620.000
387.793;  210.400; -198.000; -113.000
387.922; 1020.100;  255.000;  200.000
388.052;   72.300; -576.000; -423.000
388.181;  108.300; -342.000; -472.000
388.310;   50.700; -889.000; -710.000
388.439;  -30.600; -749.000; -742.000
388.568;  405.400;  365.000;  244.000
388.697; 1960.100; -756.000; -653.000
388.826;  426.400; -768.000; -666.000
388.956;  162.900; -285.000; -307.000
389.085;  -18.200; -347.000; -287.000
389.214; -153.000; -842.000; -872.000
389.343;  -96.300; -645.000; -413.000
389.472;  833.300;  126.000;  149.000
389.601;  991.100;   91.000;    0.000
389.730;   27.900; -568.000; -687.000
389.859;  223.800;  226.000;   46.000
389.988;  377.800; -423.000; -408.000
390.117;  298.700; -168.000; -146.000
390.246;   41.900; -331.000; -320.000
390.375;  207.600; -673.000; -626.000
390.504; -103.900; -703.000; -621.000
390.633; -132.000; -672.000; -726.000
390.761;  -56.400; -732.000; -645.000
390.890;   91.200;   -4.000; -130.000
391.019;  -16.600; -421.000; -441.000
391.148; -188.900; -826.000; -855.000
391.277;  -76.200; -576.000; -493.000
391.406; -132.600; -821.000; -805.000
391.534;   63.500;  574.000; -301.000
391.663;  -89.900; -583.000; -645.000
391.792; -118.000; -673.000; -701.000
391.921;  256.400;   -3.000;   15.000
392.050;  374.300; -287.000; -228.000
392.178;  -68.100;-1206.000;-1061.000
392.307;  296.600; -758.000; -712.000
392.436;  146.600; -427.000; -641.000
392.564;  110.100;  166.000;   -6.000
392.693; -146.000; -860.000; -682.000
392.822;  446.400; -529.000; -534.000
392.950;  168.500; -880.000; -714.000
393.079;  636.000; -188.000; -328.000
393.208;   77.900; -488.000; -511.000
393.336;   61.500; -170.000; -145.000
393.465;  -61.600; -317.000; -199.000
393.593;   89.900;   62.000;   79.000
393.722; -259.400;-1121.000; -916.000
393.850;   39.500; -188.000;  -61.000
393.979; -198.800; -926.000; -805.000
394.107;  -70.100; -517.000; -537.000
394.236;   19.900; -570.000; -507.000
394.364;  561.500;  383.000;  206.000
394.493;  913.600; -911.000; -767.000
394.621;   49.300; -955.000; -916.000
394.750; 1399.600; -873.000; -923.000
394.878; 5654.700; -247.000; -149.000
395.007; 7229.600; -721.000; -807.000
395.135;  557.500; -790.000; -721.000
395.263; -188.000;-1038.000;-1040.000
395.392;   78.300;  -25.000; -107.000
395.520; -217.900; -818.000; -679.000
395.648; -151.100; -865.000; -915.000
395.777;   38.300; -366.000; -405.000
395.905;  -14.900; -449.000; -564.000
396.033;   94.600;  217.000;  172.000
396.162; 1558.500; -399.000; -453.000
396.290; 1350.900;  -17.000;   -2.000
396.418;  252.300; -555.000; -514.000
396.546; -110.800; -571.000; -466.000
396.674; -136.800; -850.000; -878.000
396.803;   78.000;  -72.000;  -23.000
396.931;  264.200; -179.000; -199.000
397.059;  111.300;-1026.000; -989.000
397.187; -185.400;-1026.000; -975.000
397.315; -222.600; -884.000; -649.000
397.443; -112.900; -592.000; -443.000
397.572;  -85.800; -578.000; -424.000
397.700;    9.200; -607.000; -614.000
397.828;   27.200;  120.000;  -90.000
397.956;  -40.400; -508.000; -478.000
398.084;  -78.800; -767.000; -626.000
398.212;  138.400;  137.000;  124.000
398.340;   84.700;  -56.000;  159.000
398.468;  132.800; -390.000; -169.000
398.596; -202.300; -993.000; -953.000
398.724; -191.900; -762.000; -767.000
398.852; -286.200;-1024.000; -976.000
398.980;  -62.900; -560.000; -560.000
399.108;  -37.900; -982.000; -735.000
399.236;  125.200;   13.000;    8.000
399.363;  111.200;  222.000;  196.000
399.491;  -99.000; -404.000; -398.000
399.619; -201.400; -829.000; -800.000
399.747; -155.500; -859.000; -771.000
399.875;  251.200;  220.000;  234.000
400.003;  -48.300; -359.000; -284.000
400.130; -112.900; -421.000; -341.000
400.258;   22.900;  -83.000;   38.000
400.386;  -39.100; -352.000; -168.000
400.514;  -23.700; -526.000; -587.000
400.641; -118.000; -928.000; -802.000
400.769; -236.300; -979.000; -888.000
400.897; -135.500; -838.000; -793.000
401.025;   38.500; -166.000; -152.000
401.152;   53.000;  220.000;   38.000
401.280;  -92.100; -430.000; -429.000
401.408; -159.400; -712.000; -576.000
401.535; -159.700; -735.000; -758.000
401.663; -343.900;-1134.000;-1054.000
401.790; -113.500; -514.000; -525.000
401.918;  139.100;  436.000;  405.000
402.046;   36.300;  134.000;  122.000
402.173;  -12.000;  -18.000;    7.000
402.301;  -46.200; -519.000; -397.000
402.428;  166.300;  528.000;  383.000
402.556; -241.600;-1188.000; -913.000
402.683;    9.500;  -20.000;   -1.000
402.811;   58.400;  -37.000; -206.000
402.938;   47.700;   20.000;   27.000
403.066;  423.800; -574.000; -558.000
403.193;  601.900;  299.000;  239.000
403.321;  523.500; -396.000; -574.000
403.448;  623.200;   83.000;   27.000
403.575;  335.300;  -90.000;  -46.000
403.703; -142.100; -732.000; -557.000
403.830;  -89.800; -531.000; -496.000
403.957; -217.800;-1117.000;-1023.000
404.085;  100.100;  -61.000; -172.000
404.212;  275.000;  -50.000;   63.000
404.339;  564.000; -566.000; -306.000
404.467;11029.900; -612.000; -524.000
404.594; 6856.600; -287.000; -227.000
404.721; 1572.500; -869.000; -764.000
404.848;  200.500; -113.000; -202.000
404.976; -144.000; -856.000; -783.000
405.103;   57.600;  -14.000;  -82.000
405.230;   76.700;  190.000;  226.000
405.357;  113.300;  117.000;   44.000
405.484;  594.000;  -49.000;    5.000
405.612;  105.800; -548.000; -563.000
405.739;  -64.000; -488.000; -243.000
405.866;  243.800;  669.000;  385.000
405.993;  -25.600; -398.000; -102.000
406.120; -198.700; -801.000; -887.000
406.247;  -31.100; -323.000; -342.000
406.374;  998.700;  540.000;  629.000
406.501;  236.700; -632.000; -702.000
406.628;  -83.900; -621.000; -589.000
406.755; -146.000; -803.000; -620.000
406.882;   10.300; -228.000; -277.000
407.009; -134.900; -719.000; -628.000
407.136;  159.700; -480.000; -401.000
407.263;  267.300; -939.000; -829.000
407.390; -110.300; -692.000; -614.000
407.517; -279.400;-1139.000;-1187.000
407.644;  -33.500; -332.000; -256.000
407.771;  -69.300; -249.000; -287.000
407.898;   94.600;  168.000;  328.000
408.025;  -61.300; -421.000; -313.000
408.151;   51.200;   82.000;  153.000
408.278;  -76.100; -267.000; -216.000
408.405; -167.000; -931.000; -899.000
408.532;  -81.400; -549.000; -542.000
408.659; -191.500; -677.000; -648.000
408.785; -335.500;-1298.000;-1170.000
408.912;  -43.800; -412.000; -296.000
409.039; -172.600; -610.000; -686.000
409.166; -142.400; -591.000; -555.000
409.292; -141.300; -571.000; -534.000
409.419; -176.300; -665.000; -649.000
409.546; -109.800; -431.000; -192.000
409.672; -142.300; -713.000; -545.000
409.799;   -0.700;  -36.000;   34.000
409.926;  -24.000; -180.000; -179.000
410.052; -291.300;-1127.000;-1091.000
410.179;  -51.500; -368.000; -392.000
410.305; -112.800; -375.000; -493.000
410.432;  -20.500; -220.000; -333.000
410.558; -115.300; -305.000; -380.000
410.685; -153.700; -688.000; -431.000
410.812; -109.900; -409.000; -588.000
410.938; -240.600; -964.000; -808.000
411.065; -115.200; -671.000; -645.000
411.191;    2.600; -189.000; -174.000
411.317; -174.300; -823.000; -742.000
411.444;  -67.900; -317.000; -246.000
411.570;  -84.600; -339.000; -294.000
411.697; -199.700; -758.000; -752.000
411.823; -284.000; -989.000; -999.000
411.949;   25.400;  -56.000;   17.000
412.076; -175.800; -539.000; -519.000
412.202; -167.000; -758.000; -757.000
412.329; -182.100; -798.000; -752.000
412.455; -171.900; -821.000; -657.000
412.581;   31.300;  -15.000;  172.000
412.707;  -79.700; -540.000; -457.000
412.834;  104.700;  156.000;  219.000
412.960; -128.500; -785.000; -784.000
413.086; -157.500; -743.000; -701.000
413.212;  361.500;  604.000;  578.000
413.339;  -87.300; -685.000; -701.000
413.465;   54.400; -364.000; -310.000
413.591; -152.700; -757.000; -474.000
413.717;  -28.200; -358.000; -366.000
413.843; -225.200; -839.000; -861.000
413.969;  -55.000;  -47.000; -292.000
414.096; -163.800; -679.000; -679.000
414.222;   64.800;  -33.000;   85.000
414.348;   10.100; -652.000; -385.000
414.474;  241.900;   38.000;  -52.000
414.600;   15.800; -126.000; -144.000
414.726;   29.300;  -96.000;  -55.000
414.852;  -49.400; -365.000; -342.000
414.978;  160.700;  104.000;  -18.000
415.104;  152.000;   38.000;   80.000
415.230;  127.200; -329.000; -330.000
415.356;   84.400; -409.000; -514.000
415.482;  465.100;   13.000;  -35.000
415.608;  609.100; -247.000; -323.000
415.734; 1992.100;   67.000;   38.000
415.860;39261.300; -875.000; -767.000
415.986;25721.900; -685.000; -607.000
416.111; 2136.700; -798.000; -652.000
416.237;  513.800; -424.000; -571.000
416.363; 2382.700; -765.000; -733.000
416.489; 7653.200; -324.000; -251.000
416.615;  775.900; -707.000; -742.000
416.741;  -23.000; -677.000; -784.000
416.866; -112.700; -673.000; -736.000
416.992; -161.900; -801.000; -818.000
417.118;    5.400;  -41.000;  -80.000
417.244;  -80.200; -798.000; -531.000
417.369; -106.300; -801.000; -612.000
417.495;   23.900; -325.000; -254.000
417.621; -125.400;-1015.000; -803.000
417.746;   45.600; -579.000; -572.000
417.872;  168.000; -254.000; -144.000
417.998;  165.900; -515.000; -530.000
418.123; 2196.200;-1073.000; -845.000
418.249;10114.400; -512.000; -601.000
418.374; 1248.400; -916.000; -824.000
418.500;  231.200; -383.000; -482.000
418.626;  306.700;   70.000;  -59.000
418.751;  275.100; -549.000; -448.000
418.877;  446.900; -637.000; -643.000
419.002; 3743.600; -688.000; -560.000
419.128;23678.300; -930.000; -721.000
419.253; 5147.000; -967.000; -837.000
419.379;  756.000; -391.000; -338.000
419.504;  802.600;  325.000;  415.000
419.629; 1012.000; -393.000; -212.000
419.755; 7306.500; -317.000; -254.000
419.880;38666.300;  -98.000;   67.000
420.006;21787.600; -280.000; -221.000
420.131;53366.900; -662.000; -775.000
420.256; 6882.200; -315.000; -316.000
420.382;  994.900; -665.000; -687.000
420.507;  186.600; -649.000; -778.000
420.632;  345.000; -337.000; -339.000
420.758;  490.000; -251.000; -425.000
420.883; -133.500; -876.000; -672.000
421.008; -179.900; -775.000; -619.000
421.133; -110.800; -509.000; -467.000
421.259;  -16.100; -325.000; -259.000
421.384; -159.600; -834.000; -693.000
421.509;  -64.600;-1052.000; -862.000
421.634; 2163.200; -936.000; -820.000
421.759;  859.600; -359.000; -327.000
421.885;  -70.700; -717.000; -656.000
422.010; -103.200; -673.000; -542.000
422.135; -283.900; -695.000; -727.000
422.260;  135.800;  340.000;  280.000
422.385;  -23.900;   12.000;  -98.000
422.510;   94.200;  151.000;  -26.000
422.635;  107.200;  -87.000;  -43.000
422.760;  212.900; -766.000; -791.000
422.885;  186.500;  -57.000;  -80.000
423.010;   19.000; -112.000; -169.000
423.135; -126.000; -481.000; -561.000
423.260;   23.400; -150.000; -245.000
423.385;  209.900;  476.000;  222.000
423.510;  134.400;   71.000;  -22.000
423.635;  223.400;  133.000;   45.000
423.760;  217.600;  383.000;  328.000
423.885;  178.300;  336.000;  391.000
424.010;   88.300;  -68.000;  -13.000
424.135;   38.400;    5.000;  -33.000
424.259;  -83.900; -654.000; -457.000
424.384;  -29.200; -279.000; -272.000
424.509;   41.100; -260.000; -186.000
424.634; -127.000; -761.000; -623.000
424.759;  -34.900; -688.000; -544.000
424.883;   44.200; -506.000; -527.000
425.008;  407.800; -502.000; -410.000
425.133; 3952.000; -679.000; -653.000
425.258; 1616.800; -517.000; -381.000
425.382; 2061.700; -867.000; -774.000
425.507; 4603.500; -487.000; -543.000
425.632;  724.800; -802.000; -663.000
425.756;  908.900; -256.000; -146.000
425.881;12957.000; -831.000; -857.000
426.006;31534.400; -604.000; -355.000
426.130; 4546.400; -696.000; -508.000
426.255;  695.500; -611.000; -491.000
426.379;  345.500; -189.000; -577.000
426.504;  829.800;  660.000;  544.000
426.629; 8097.400; -519.000; -466.000
426.753; 4975.800;   64.000;  -46.000
426.878;  637.500; -252.000; -288.000
427.002;  313.700; -651.000; -668.000
427.127; 3277.800;  -35.000; -158.000
427.251;21625.200;  372.000;  401.000
427.375; 5472.800; -191.000; -173.000
427.500; 4165.200; -616.000; -610.000
427.624; 1281.000; -234.000; -400.000
427.749;  241.100; -216.000; -225.000
427.873;  -22.600; -499.000; -412.000
427.997;   -9.100; -222.000; -230.000
428.122;  208.200;  795.000;  703.000
428.246;  249.000;  433.000;  434.000
428.371; -205.500; -869.000; -773.000
428.495; -162.700; -624.000; -646.000
428.619;   55.000; -186.000; -117.000
428.743;  117.700;   65.000;  132.000
428.868;   65.000; -732.000; -643.000
428.992; 2617.600; -219.000; -326.000
429.116; 1017.200; -329.000; -357.000
429.240;  549.500;  419.000;  426.000
429.365;   13.400; -454.000; -574.000
429.489;    6.400; -638.000; -647.000
429.613;  153.600; -236.000; -177.000
429.737;  149.800; -563.000; -432.000
429.861;  618.100; -247.000; -133.000
429.985;11152.000; -425.000; -305.000
430.109;10881.200; -770.000; -908.000
430.234; 1310.500;   76.000;  -50.000
430.358;  193.700; -250.000; -160.000
430.482;  -86.800; -672.000; -564.000
430.606;  -78.100; -655.000; -375.000
430.730;  137.000; -437.000; -388.000
430.854;  322.600; -909.000; -835.000
430.978; -108.300; -795.000; -764.000
431.102;  -78.300; -499.000; -422.000
431.226; -153.800; -874.000; -815.000
431.350;  208.500;  345.000;  422.000
431.474;  -89.100; -661.000; -373.000
431.597; -237.600;-1060.000; -848.000
431.721;  -66.300; -276.000; -267.000
431.845; -215.400; -704.000; -472.000
431.969;  -89.800; -304.000; -349.000
432.093; -144.300; -395.000; -317.000
432.217;   31.300;   32.000;   82.000
432.341; -126.800; -523.000; -518.000
432.464;  107.300;   96.000;   40.000
432.588;  472.400; -401.000; -329.000
432.712;  232.100;  -52.000;  -52.000
432.836;  142.900;  213.000;  263.000
432.959;   56.900; -372.000; -311.000
433.083;  234.600;   11.000;    2.000
433.207;  798.300;  285.000;  930.000
433.330;10199.900; -391.000; -200.000
433.454;11319.000; -654.000; -638.000
433.578; 6655.500;  583.000;  278.000
433.701; 1155.900; -623.000; -675.000
433.825;  290.600; -292.000; -299.000
433.949;  367.300;   28.000;  -72.000
434.072;  176.700; -410.000; -323.000
434.196;   43.500; -309.000; -117.000
434.319; 7953.100;25482.000;25124.000
434.443; 1570.100; -656.000; -603.000
434.566; 4981.800;  281.000;   62.000
434.690;  748.700; -637.000; -383.000
434.813;  128.500; -251.000; -173.000
434.937; -120.000; -569.000; -696.000
435.060;   -8.100; -423.000; -332.000
435.184;  626.900; -492.000; -217.000
435.307;  345.000;  159.000;  102.000
435.431;   77.800;  -40.000;   24.000
435.554;  -90.100; -399.000; -240.000
435.677;  -99.000; -350.000; -258.000
435.801;  -19.600;  -25.000;   49.000
435.924;   46.900;    1.000;  -67.000
436.048; -184.700;-1019.000; -732.000
436.171;  -85.700; -240.000;  -66.000
436.294;   56.500; -248.000; -229.000
436.417;  235.100; -963.000; -849.000
436.541; -116.100; -814.000; -840.000
436.664;  -38.300; -242.000; -316.000
436.787;   37.500;   13.000;  113.000
436.910; -164.000; -792.000; -422.000
437.034;   88.700;  142.000;  143.000
437.157;  193.300;  -11.000;    0.000
437.280;  -57.600; -392.000; -292.000
437.403; -112.100; -982.000; -869.000
437.526; 1268.100; -903.000; -865.000
437.649; 4130.500; -505.000; -332.000
437.772;  551.300; -692.000; -540.000
437.896;  317.500;  700.000;  544.000
438.019; -122.700; -758.000; -503.000
438.142; -109.800; -596.000; -506.000
438.265;   77.900; -639.000; -670.000
438.388; 1113.100; -520.000; -410.000
438.511;  179.700; -597.000; -394.000
438.634;  -51.100; -247.000; -125.000
438.757; -197.000; -693.000; -619.000
438.880;   25.200;  -34.000;  -57.000
439.003;  -98.900; -417.000; -437.000
439.126;  -66.300; -287.000; -167.000
439.248;   -9.700;  -98.000; -139.000
439.371;   -2.500;    9.000;  -53.000
439.494;  117.300;  510.000;  439.000
439.617;  -42.600;   65.000;  -88.000
439.740; -306.900; -968.000; -816.000
439.863; -206.300; -755.000; -595.000
439.986; -170.300; -476.000; -431.000
440.108;   -0.700; -161.000; -112.000
440.231; -271.300; -950.000; -836.000
440.354;   -1.600;  -64.000; -150.000
440.477;  108.100; -566.000; -542.000
440.599;   47.700; -200.000; -225.000
440.722; -149.700; -709.000; -586.000
440.845;  223.600;  751.000;  928.000
440.968; -133.100; -415.000; -311.000
441.090;  -51.900; -199.000;  -33.000
441.213; -273.400;-1021.000; -825.000
441.336;  -21.900; -159.000;   -5.000
441.458;  -77.600; -549.000; -396.000
441.581;  -94.400; -628.000; -629.000
441.703;  -68.900; -152.000;   13.000
441.826; -180.600; -557.000; -400.000
441.948;   -8.600;   56.000;   51.000
442.071;  175.700;  555.000;  424.000
442.193; -145.100; -531.000; -485.000
442.316;  102.400;  152.000;   97.000
442.438;  134.500; -233.000;  -10.000
442.561;  231.100;  272.000;  262.000
442.683; 1062.800; -809.000; -522.000
442.806; 2111.300;   -8.000;   74.000
442.928;   30.700; -859.000; -604.000
443.051;  -65.600; -577.000; -373.000
443.173; -104.100; -341.000; -339.000
443.295; -116.300; -263.000; -371.000
443.418;  -87.600; -321.000;  -29.000
443.540;   85.400; -106.000;   -4.000
443.662; -160.900; -563.000; -465.000
443.785;   43.300;  335.000;  199.000
443.907; -160.500; -362.000; -208.000
444.029; -193.500; -767.000; -494.000
444.152; -213.600; -644.000; -554.000
444.274;   45.100;  -18.000;  -24.000
444.396; -170.900; -461.000; -221.000
444.518; -212.100; -691.000; -454.000
444.640; -135.700; -268.000; -111.000
444.763;   50.900;  388.000;  249.000
444.885; -146.800; -432.000; -392.000
445.007;   20.100;   35.000;   86.000
445.129; -157.900; -610.000; -515.000
445.251; -130.700; -372.000; -439.000
445.373; -201.300; -537.000; -386.000
445.495;   79.500;  242.000;  350.000
445.617;  214.300;  853.000;  753.000
445.739;  -30.700; -215.000;  -97.000
445.861;    7.700; -245.000; -112.000
445.984;  -14.500; -267.000; -101.000
446.105;  472.500; -418.000; -251.000
446.227; 1072.600; -176.000;  -19.000
446.349;   33.300; -358.000; -249.000
446.471; -146.400; -615.000; -448.000
446.593;  -92.800; -316.000;   19.000
446.715;   58.700;  -67.000;   41.000
446.837;  200.400;  697.000;  832.000
446.959; -139.700; -457.000; -478.000
447.081; -226.100; -628.000; -518.000
447.203;  202.200;  862.000;  834.000
447.325; -109.900; -270.000;   42.000
447.446;   81.900;  286.000;  530.000
447.568; -247.600; -921.000; -803.000
447.690;  -98.100; -236.000; -245.000
447.812; -232.300; -798.000; -519.000
447.933;   20.600;  155.000;  127.000
448.055;  -51.100; -306.000; -261.000
448.177;  372.100;   31.000;   79.000
448.299;  167.500; -935.000; -727.000
448.420;  107.300;  -25.000;  159.000
448.542;  -10.900;   -3.000;   33.000
448.664;   48.100;  109.000;  322.000
448.785;   15.900;  265.000;   83.000
448.907;  -92.200; -614.000; -353.000
449.028;  -18.700; -771.000; -471.000
449.150;  203.200;  492.000;  589.000
449.272; -290.100;-1044.000; -913.000
449.393;  137.100;  612.000;  694.000
449.515; -196.500; -634.000; -581.000
449.636;  -56.400; -264.000; -155.000
449.758;  243.700;  763.000;  622.000
449.879; -111.300; -498.000; -396.000
450.001;  -53.900; -149.000;  -49.000
450.122;   -1.300;  -95.000;  162.000
450.244;   25.300;   37.000;  364.000
450.365; -115.100; -495.000; -301.000
450.486;   22.100;   80.000;  268.000
450.608;  116.900;  393.000;  326.000
450.729;  206.900;  578.000;  645.000
450.850;   99.700; -574.000; -466.000
450.972; 1507.600; -552.000; -389.000
451.093; 9528.700;  190.000;  588.000
451.214; 3583.100; -516.000; -337.000
451.336;  761.700;  773.000;  579.000
451.457;  143.500;  264.000;  393.000
451.578;    4.800; -118.000;  -74.000
451.699; -146.300; -546.000; -540.000
451.821;  -47.400; -284.000;  -50.000
451.942;   48.000;  278.000;  285.000
452.063;  145.100;  228.000;  419.000
452.184; 1202.800;  -54.000;  -49.000
452.305; 2092.200;  103.000;  170.000
452.427;  250.100; -549.000; -301.000
452.548;   22.100;   23.000;   79.000
452.669;   -4.000; -257.000;  -89.000
452.790;    4.700;    3.000;  -18.000
452.911;   68.500;  195.000;  259.000
453.032;  -64.300; -289.000;  -60.000
453.153;  -12.900;  -29.000;   81.000
453.274;  255.500;  737.000;  868.000
453.395;   -5.500;  -51.000;  175.000
453.516;  363.700; 1317.000; 1388.000
453.637;  -54.000; -205.000; -150.000
453.758;    8.700;   15.000;   69.000
453.879; -186.100; -462.000; -250.000
454.000;  249.000; 1086.000;  948.000
454.121; -134.100; -554.000; -326.000
454.242; -147.000; -599.000; -383.000
454.362;  -22.900;  -99.000;  114.000
454.483;   -6.200; -309.000; -229.000
454.604;  218.300;  512.000;  580.000
454.725; -198.100; -627.000; -555.000
454.846; -170.500; -474.000; -406.000
454.967;   60.300;  230.000;  539.000
455.087;  -10.300;  179.000;  153.000
455.208;  113.200;  554.000;  856.000
455.329;  -52.900;  -22.000;   82.000
455.450;  139.100;  473.000;  633.000
455.570;  -92.100; -234.000; -211.000
455.691;    0.400;  201.000;  407.000
455.812; -166.100; -270.000;  -92.000
455.932;  -34.700;  107.000;  -97.000
456.053;  -78.700;   36.000;   24.000
456.173; -153.300; -433.000; -355.000
456.294; -186.000; -476.000; -303.000
456.415;  -53.700;  -73.000;   70.000
456.535;   13.700;  297.000;  273.000
456.656;   -8.300;  132.000;  240.000
456.776;  -37.100;    3.000;  298.000
456.897;   80.600;  308.000;  513.000
457.017;  -88.000; -153.000;   -3.000
457.138; -133.200; -402.000; -249.000
457.258;   30.400;  263.000;  224.000
457.379;   45.100;  509.000;  521.000
457.499;   51.400;  443.000;  432.000
457.620; -169.100; -407.000; -231.000
457.740; -141.300; -132.000;  -11.000
457.860;  -27.200;   87.000;   44.000
457.981;   24.900;  132.000;  124.000
458.101;  -73.300;  -89.000;   40.000
458.221;   48.000;  336.000;  402.000
458.342;  -49.400;   -4.000;  -37.000
458.462;  116.300;  617.000;  352.000
458.582;  -14.900; -302.000; -294.000
458.703;   89.000;  303.000;  154.000
458.823;   27.300;   22.000;  163.000
458.943;   98.400;  341.000;  467.000
459.063;   21.500; 1124.000;  192.000
459.183;   50.900;  328.000;  313.000
459.304;  109.400;  315.000;  517.000
459.424;  -75.300; -246.000;  -89.000
459.544;  762.600;  388.000;  764.000
459.664; 1674.200;  499.000;  506.000
459.784;  601.400; 1004.000; 1175.000
459.904;  196.300;  867.000;  744.000
460.024;  262.000;  867.000;  684.000
460.144;  109.300;  449.000;  554.000
460.264;   53.000;  515.000;  327.000
460.385; -101.900; -145.000; -119.000
460.505;  139.100;  905.000;  858.000
460.625; -117.100;  -17.000;  -68.000
460.745;   39.100;  396.000;  541.000
460.864;   -3.100;  153.000;  469.000
460.984;  115.800;  499.000;  573.000
461.104;  393.100; 1656.000; 1775.000
461.224;  135.600;  657.000;  650.000
461.344;   27.100;  431.000;  360.000
461.464;   20.700;  258.000;  513.000
461.584;   49.200;  283.000;  466.000
461.704;  -34.200;   58.000;  108.000
461.824;  -18.700;  238.000;  259.000
461.943;  -11.100;  191.000;  130.000
462.063;  -47.100;    2.000;  324.000
462.183;  163.000;  639.000;  717.000
462.303;  278.900; 1678.000; 1230.000
462.422;  125.800;  781.000;  840.000
462.542;   20.800;  271.000;  391.000
462.662;  180.900;  353.000;  380.000
462.782;  599.000;  833.000;  572.000
462.901;  962.000;  545.000;  717.000
463.021;  610.800; 1702.000; 1638.000
463.141;   68.500;  337.000;  770.000
463.260;   61.800;  614.000;  474.000
463.380;   90.900;  902.000;  884.000
463.499;   26.500;  342.000;  332.000
463.619;   13.600;  581.000;  559.000
463.738;  329.500; 1644.000;  903.000
463.858;  131.200;  657.000;  811.000
463.978;   19.800;  542.000;  396.000
464.097;  174.700;  921.000; 1114.000
464.217;  318.100; 1196.000; 1143.000
464.336;  324.200; 1068.000; 1130.000
464.455;    6.500;  328.000;  659.000
464.575;  101.400;  597.000;  602.000
464.694;  439.400; 1204.000; 1179.000
464.814;  325.800; 1190.000; 1138.000
464.933;  224.100; 1095.000; 1027.000
465.052;  300.400; 1412.000; 1054.000
465.172;  259.300;  922.000;  799.000
465.291;  352.700; 1376.000; 1320.000
465.410;  112.500;  462.000;  735.000
465.530;  264.300; 1355.000; 1310.000
465.649;  218.400; 1209.000; 1273.000
465.768;  372.200; 1673.000; 1508.000
465.888;  192.300;  941.000; 1174.000
466.007;  285.000; 1335.000; 1440.000
466.126;  109.500;  721.000;  641.000
466.245;  161.100; 1176.000; 1187.000
466.364;  140.300;  950.000; 1060.000
466.484;  207.800; 1024.000; 1213.000
466.603;  189.500; 1101.000; 1222.000
466.722;  315.700; 1490.000; 1769.000
466.841;  247.600; 1151.000; 1401.000
466.960;  183.900; 1069.000;  972.000
467.079;  374.500; 1971.000; 1786.000
467.198;  171.000; 1238.000; 1181.000
467.317;  273.100; 1768.000; 1162.000
467.436;  217.800; 1709.000; 1261.000
467.555;  300.800; 1796.000; 1746.000
467.674;  224.300; 1227.000; 1329.000
467.793;  194.800; 1376.000; 1374.000
467.912;  261.100; 1658.000; 1539.000
468.031;  355.400; 2038.000; 1930.000
468.150;  380.300; 1842.000; 1837.000
468.269;  466.400; 2313.000; 2090.000
468.388;  455.800; 2168.000; 2339.000
468.507;  601.700; 2884.000; 2903.000
468.626;  645.100; 2555.000; 2541.000
468.744;  372.000; 2018.000; 2174.000
468.863;  490.900; 2312.000; 2523.000
468.982;  289.200; 1503.000; 1555.000
469.101;  568.600; 2788.000; 2692.000
469.220;  417.500; 2333.000; 2176.000
469.338;  587.500; 2935.000; 3051.000
469.457;  476.300; 2719.000; 2545.000
469.576;  833.300; 3953.000; 3784.000
469.695;  555.500; 2877.000; 3066.000
469.813;  954.700; 4148.000; 4192.000
469.932;  867.100; 4255.000; 4485.000
470.051;  973.200; 4075.000; 4161.000
470.169; 1843.100; 4470.000; 4338.000
470.288; 2916.100; 4700.000; 4809.000
470.406; 1697.900; 5059.000; 5194.000
470.525; 1340.600; 6101.000; 5787.000
470.644; 1364.800; 6847.000; 6794.000
470.762; 1785.600; 8397.000; 7873.000
470.881; 1966.600; 8651.000; 8464.000
470.999; 2217.900; 9685.000; 9151.000
471.118; 2389.500;11174.000;10711.000

