
Integration time [ms]: 100.000
Averaging Nr. [scans]: 40
Smoothing Nr. [pixels]: 0
Data measured with spectrometer [name]: 2101012U2
Wave   ;Sample   ;Dark     ;Reference
[nm]   ;[counts] ;[counts] ;[counts] 

197.733;   70.375;  516.000;  404.000
197.879;  -85.275; -610.000; -634.000
198.025;  -40.975; -475.000; -420.000
198.171;  -78.975; -602.000; -612.000
198.317;  -26.550; -401.000; -316.000
198.463;  -65.575; -655.000; -404.000
198.609;   36.850;  181.000; -137.000
198.755;  -90.925; -644.000; -410.000
198.901;  -49.300; -505.000; -424.000
199.047;  -57.125; -615.000; -488.000
199.193;  -24.000; -230.000; -468.000
199.339;  -50.950; -222.000; -369.000
199.485;   43.950;  330.000;  271.000
199.631;    9.775;  227.000;  310.000
199.777;  -45.725; -466.000; -398.000
199.923;  -60.600; -610.000; -424.000
200.069;   -5.075; -141.000;  -58.000
200.215;   59.225;  128.000;  453.000
200.361;   58.050;  243.000;  477.000
200.507;  -67.025; -600.000; -373.000
200.653;  -23.625; -371.000; -194.000
200.798;  -33.700; -215.000; -125.000
200.944;   -4.500; -146.000;  -41.000
201.090;   25.650;   61.000;  222.000
201.236;   -4.175; -116.000; -158.000
201.382;  135.975;  874.000;  903.000
201.528;   -4.750;  -58.000;  -48.000
201.674;  -47.175; -386.000; -293.000
201.819;  -53.200; -540.000; -439.000
201.965;  -82.700; -699.000; -447.000
202.111;  -20.750; -273.000; -226.000
202.257;  -38.250; -250.000; -238.000
202.402;   17.650;   13.000;  -36.000
202.548;  -39.575; -169.000; -116.000
202.694;   93.050;  410.000; -183.000
202.840;  -77.950; -603.000; -531.000
202.985;  -60.000; -681.000; -639.000
203.131; -114.525; -832.000; -666.000
203.277;  -26.175; -199.000; -262.000
203.423;  -52.775; -434.000; -520.000
203.568;  -28.675; -462.000; -237.000
203.714;  -57.025; -535.000; -542.000
203.860;  -78.525; -682.000; -641.000
204.005;   24.925;  112.000;  167.000
204.151;   79.100;  561.000;  556.000
204.296;  -55.150; -354.000; -221.000
204.442;  -74.550; -600.000; -547.000
204.588;  -84.050; -592.000; -579.000
204.733;   24.125;  178.000;  168.000
204.879; -127.825;-1018.000; -822.000
205.025;   20.000;  -99.000;  126.000
205.170;  -14.625;  -17.000;   94.000
205.316;  100.700;  438.000;  661.000
205.461;  -87.525; -698.000; -554.000
205.607;   87.575;  609.000;  665.000
205.752;  -87.000; -626.000; -551.000
205.898;  -56.625; -501.000; -391.000
206.043;  -54.625; -578.000; -506.000
206.189;  -41.450; -243.000; -285.000
206.334;   83.800;  554.000;  606.000
206.480;   79.750;  409.000;  239.000
206.625;  -76.700; -529.000; -552.000
206.771;  -48.275; -451.000; -373.000
206.916;  -44.175; -210.000; -537.000
207.062;  -71.175; -545.000; -591.000
207.207;  -57.325; -546.000; -443.000
207.353;   58.500;  185.000;  460.000
207.498;    1.400;  196.000;   85.000
207.643;  -40.450; -501.000; -370.000
207.789; -119.925;-1069.000; -910.000
207.934;  -95.300; -665.000; -713.000
208.080;  -27.250; -154.000;   66.000
208.225;   10.225;  -22.000;  -57.000
208.370;  -71.125; -727.000; -619.000
208.516;  -65.700; -741.000; -487.000
208.661;  -23.350; -127.000;  -69.000
208.806;  -16.325; -165.000; -171.000
208.952; -129.775;-1044.000; -731.000
209.097;   78.675;  378.000;  349.000
209.242;  -43.125; -307.000; -382.000
209.387;   64.225;  392.000;  350.000
209.533;  -53.750; -321.000; -350.000
209.678;  101.400;  472.000;  543.000
209.823;  -49.275; -408.000; -310.000
209.969;  -98.800; -860.000; -757.000
210.114; -120.050; -907.000; -719.000
210.259; -110.500; -939.000; -889.000
210.404;  -13.425; -171.000;  103.000
210.549;   28.750;  108.000;    3.000
210.695;  -24.850;   -3.000;  -95.000
210.840;   56.100;   94.000;   67.000
210.985;  -67.500; -484.000; -303.000
211.130;   81.025;  268.000;  406.000
211.275;   15.125;  207.000;  199.000
211.420;  -54.375; -300.000; -289.000
211.566;  -75.900; -536.000; -489.000
211.711;   40.225;  218.000;  157.000
211.856;  -67.600; -545.000; -519.000
212.001;   14.925;  151.000;   44.000
212.146;   21.700;  153.000;   49.000
212.291;  -23.100; -210.000; -186.000
212.436;  -29.025; -280.000;   -6.000
212.581;  -74.425; -685.000; -653.000
212.726;  -85.700; -487.000; -538.000
212.871;  -44.550; -552.000; -217.000
213.016; -153.475;-1172.000;-1029.000
213.161;   73.075;  406.000;  291.000
213.306;  -73.525; -435.000; -577.000
213.451;  -92.500; -778.000; -689.000
213.596;  -51.400; -455.000; -347.000
213.741;  -39.225; -448.000; -538.000
213.886;  -90.525; -498.000; -517.000
214.031;  -29.350; -294.000; -124.000
214.176;  -52.025; -408.000; -341.000
214.321;   -9.300; -296.000; -157.000
214.466;  -18.750; -163.000;  -43.000
214.611;    3.750;  -61.000;  -10.000
214.756; -115.350; -948.000; -858.000
214.901;  -22.075; -388.000; -226.000
215.046; -124.650; -797.000; -825.000
215.191;   18.850;  128.000;   35.000
215.336;   -2.600; -157.000;  -19.000
215.480;  -64.275; -684.000; -505.000
215.625;  -20.125; -175.000;  -19.000
215.770;  -91.550; -757.000; -662.000
215.915;   -8.875;   -5.000;  -97.000
216.060;    2.500; -113.000;  -21.000
216.205; -117.875; -731.000; -779.000
216.349;  -72.700; -470.000; -533.000
216.494; -134.250; -939.000; -867.000
216.639; -109.900; -823.000; -888.000
216.784;  -87.950; -577.000; -525.000
216.929;   52.625;  392.000;  281.000
217.073;  -23.850; -244.000;  -31.000
217.218;    8.275;   78.000;  -47.000
217.363;  -96.775; -656.000; -618.000
217.507;  -87.450; -623.000; -588.000
217.652; -127.675; -845.000; -874.000
217.797;  -92.300; -708.000; -659.000
217.942; -111.975; -856.000; -720.000
218.086;   85.500;  608.000;  539.000
218.231;  -20.575; -174.000;  -26.000
218.376;  -35.075; -337.000; -229.000
218.520;   -1.600;  -41.000;   96.000
218.665;  -25.500; -338.000; -204.000
218.810;  -46.850; -275.000; -233.000
218.954;   26.775;  201.000;   35.000
219.099; -115.125; -713.000; -963.000
219.243;  -70.750; -589.000; -554.000
219.388;  -42.700; -264.000; -136.000
219.532;  -15.400; -116.000; -116.000
219.677;  -79.725; -564.000; -521.000
219.822;   -1.350;   33.000;   89.000
219.966;   -3.225;   17.000;  -99.000
220.111;  -28.700; -328.000;  -40.000
220.255; -111.075; -797.000; -750.000
220.400;  -11.800; -180.000; -146.000
220.544;  -76.175; -516.000; -450.000
220.689;  -48.325; -422.000; -451.000
220.833;  -34.475; -123.000;  -58.000
220.978;  -52.850; -393.000; -563.000
221.122;   18.450;  319.000;  307.000
221.267; -110.300; -906.000; -837.000
221.411;  -71.150; -478.000; -394.000
221.555;   -2.475; -104.000;  -23.000
221.700;  -55.225; -329.000; -222.000
221.844;   33.750;  255.000;  272.000
221.989;  -33.350; -328.000; -311.000
222.133;  -25.100; -289.000; -307.000
222.277;   -8.350;    5.000;   78.000
222.422;   26.525;  227.000;  113.000
222.566;  -39.550; -381.000; -214.000
222.711;  -53.050; -414.000; -479.000
222.855;  -84.900; -643.000; -586.000
222.999;  -77.025; -642.000; -717.000
223.144;  -32.250; -195.000; -194.000
223.288;   65.300;  423.000;  251.000
223.432;   24.650;  184.000;  230.000
223.576;   19.850;  152.000;  -21.000
223.721;   45.000;  364.000;  273.000
223.865;  -48.825; -472.000; -475.000
224.009;  248.550; 1673.000; 1631.000
224.153;  -81.350; -660.000; -671.000
224.298;  -74.250; -531.000; -489.000
224.442;   -0.200;  -74.000;  -33.000
224.586;  -17.225; -169.000; -106.000
224.730;  -93.600; -858.000; -670.000
224.875; -106.750; -739.000; -688.000
225.019;   10.175;  102.000;  188.000
225.163;   56.550;  208.000;  341.000
225.307;   16.900;   97.000;  -91.000
225.451;   47.925;  360.000;  481.000
225.595;   42.000;  264.000;  176.000
225.739;  -21.325; -170.000;  -94.000
225.884;    1.925;   86.000;    5.000
226.028;  -99.300; -760.000; -626.000
226.172;  -45.400; -260.000; -273.000
226.316; -126.025; -941.000; -902.000
226.460;  -68.675; -645.000; -493.000
226.604;  -55.800; -406.000; -400.000
226.748; -102.025; -836.000; -733.000
226.892;  -43.125; -227.000; -181.000
227.036;  -45.250; -537.000; -447.000
227.180;  -67.175; -551.000; -375.000
227.324;  -57.425; -561.000; -580.000
227.468; -121.950; -819.000; -717.000
227.612;   12.825;  242.000;  -28.000
227.756; -105.000; -845.000; -698.000
227.900;   52.325;  342.000;  441.000
228.044;  -52.675; -509.000; -290.000
228.188;   69.325;  448.000;  568.000
228.332;  -91.575; -546.000; -472.000
228.476;  -21.925; -223.000; -149.000
228.620;  -34.125; -210.000; -150.000
228.764;   69.475;  431.000;  349.000
228.908;  -15.900; -155.000;   30.000
229.052;  -38.775; -615.000; -528.000
229.195;  -12.875; -172.000;   13.000
229.339;  -22.250; -235.000; -305.000
229.483;  -23.575;    5.000; -162.000
229.627;   14.550; -156.000;  139.000
229.771;  -48.675; -218.000; -294.000
229.915;   17.325;  230.000;   79.000
230.059;  -93.875; -648.000; -663.000
230.202;  -28.175; -370.000; -317.000
230.346;  -15.975; -107.000;  107.000
230.490;  -60.975; -489.000; -521.000
230.634; -106.275; -736.000; -553.000
230.777;   72.525;  478.000;  509.000
230.921;  -49.800; -450.000; -359.000
231.065;  -39.050; -246.000; -286.000
231.209;   30.725;  261.000;  265.000
231.352;   32.650;   54.000;   40.000
231.496;   12.575;  568.000;  188.000
231.640;  -71.875; -693.000; -621.000
231.783;   66.375;  546.000;  525.000
231.927;  -40.675; -294.000; -365.000
232.071; -126.050; -962.000; -736.000
232.214; -104.725; -980.000; -764.000
232.358; -116.025; -683.000; -599.000
232.502;   -1.225;  -19.000;    7.000
232.645; -153.825;-1090.000; -927.000
232.789;  -24.700; -257.000; -218.000
232.933;  -53.650; -407.000; -224.000
233.076; -124.125;-1038.000; -897.000
233.220; -104.650; -752.000; -777.000
233.363;  -66.075; -669.000; -477.000
233.507;   46.875;  371.000;  129.000
233.650;  -83.475; -764.000; -834.000
233.794;   45.625;  438.000;  461.000
233.938;  -61.475; -530.000; -362.000
234.081;  -15.350;  -93.000;   31.000
234.225;  -76.150; -631.000; -539.000
234.368; -120.275; -773.000; -723.000
234.512;  -30.375; -385.000; -299.000
234.655;  -94.450; -582.000; -555.000
234.798;  -66.875; -493.000; -466.000
234.942; -138.200; -884.000;-1002.000
235.085;  -75.225; -651.000; -443.000
235.229;  -88.200; -405.000; -410.000
235.372;  -56.525; -247.000; -191.000
235.516;  -69.825; -397.000; -321.000
235.659;   27.200;   92.000;  121.000
235.802;  -25.625;  -38.000;  -22.000
235.946;   31.500;  335.000;  215.000
236.089;   29.050;  126.000;  250.000
236.233;   59.125;  275.000;  298.000
236.376;  -63.075; -235.000; -378.000
236.519;  -33.800; -297.000; -319.000
236.663;  -33.225; -215.000; -117.000
236.806; -141.900;-1029.000; -999.000
236.949;   72.975;  543.000;  431.000
237.092;   66.375;  412.000;  391.000
237.236;  -91.150; -589.000; -502.000
237.379;   68.350;  352.000;  428.000
237.522; -125.975; -879.000; -768.000
237.666;  -17.550; -271.000;   18.000
237.809; -136.075; -851.000; -823.000
237.952;   44.375;  469.000;  271.000
238.095;  -64.900; -447.000; -442.000
238.238;   84.000;  688.000;  700.000
238.382;    0.750;  166.000;  103.000
238.525;  -82.950; -598.000; -511.000
238.668; -149.675;-1060.000; -985.000
238.811;  -85.525; -638.000; -643.000
238.954;  -70.125; -483.000; -334.000
239.097;   95.850;  617.000;  664.000
239.241;   30.825;  394.000;  326.000
239.384;  -40.825; -254.000; -214.000
239.527;  -66.550; -424.000; -224.000
239.670; -144.475; -994.000;-1091.000
239.813; -116.125; -696.000; -658.000
239.956;   93.050;  579.000;  473.000
240.099; -121.600; -778.000; -725.000
240.242;   67.025;  428.000;  432.000
240.385;   48.325;  466.000;  450.000
240.528;  -70.300; -706.000; -473.000
240.671;   10.825;  189.000;  134.000
240.814;  -35.975; -441.000; -158.000
240.957; -104.650; -767.000; -578.000
241.100;  -83.575; -779.000; -755.000
241.243; -157.275;-1234.000; -893.000
241.386;  -59.550; -508.000; -379.000
241.529;  -89.200; -735.000; -547.000
241.672;  -56.975; -566.000; -495.000
241.815; -115.200; -832.000; -808.000
241.958;  -20.500; -125.000; -182.000
242.101;  -97.550; -545.000; -390.000
242.244;  -44.200; -270.000; -325.000
242.387;  -43.025; -304.000; -246.000
242.530;   69.075;  470.000;  134.000
242.673;  -37.225; -381.000; -309.000
242.815; -119.625; -925.000; -899.000
242.958;  -73.375; -482.000; -381.000
243.101;   14.425;  132.000;  187.000
243.244;  -87.850; -564.000; -521.000
243.387;  -41.625; -313.000; -316.000
243.530; -112.350; -657.000; -674.000
243.672;    5.875;   43.000;  -92.000
243.815;  -62.175; -355.000; -283.000
243.958;    0.325;   98.000;  -26.000
244.101;    4.275;   59.000;  -16.000
244.243;   -5.675;  -47.000;  101.000
244.386; -118.275; -761.000; -630.000
244.529;  -12.575; -132.000; -139.000
244.672; -157.100;-1154.000; -951.000
244.814;  -98.475; -621.000; -794.000
244.957;  -54.475; -380.000; -304.000
245.100;  -68.525; -489.000; -489.000
245.242;  -68.850; -387.000; -374.000
245.385;  -10.725;  -59.000;  -39.000
245.528; -125.050; -871.000; -705.000
245.670;   96.350;  612.000;  634.000
245.813;  -97.600; -599.000; -547.000
245.956;  -28.275; -324.000; -275.000
246.098;  -62.125; -508.000; -650.000
246.241;    6.375;  194.000;   48.000
246.383;  -29.900; -119.000;  -73.000
246.526;  -68.125; -454.000; -525.000
246.669; -135.750; -889.000; -780.000
246.811;   12.850;  172.000;   -1.000
246.954;  -61.125; -512.000; -426.000
247.096;  -23.850;  -84.000;   -6.000
247.239;  -78.575; -482.000; -445.000
247.381;  -63.275; -647.000; -488.000
247.524;  105.025;  645.000;  679.000
247.666;   16.325;   58.000;   11.000
247.809; -122.650; -887.000; -691.000
247.951;   -3.425;  -75.000;  138.000
248.094;   28.025;  432.000;  308.000
248.236; -155.550;-1262.000;-1238.000
248.378;   -4.150; -356.000;  -81.000
248.521;  -16.975; -334.000; -337.000
248.663;  -41.650; -236.000; -267.000
248.806;  -23.075; -300.000; -266.000
248.948;  -82.250; -886.000; -763.000
249.090;  -41.150; -428.000; -398.000
249.233;  -58.900; -344.000; -381.000
249.375;  -58.700; -474.000; -451.000
249.518;  -23.750;  -83.000; -133.000
249.660;   -2.475; -103.000;    3.000
249.802; -176.650;-1303.000;-1189.000
249.945;  -70.225; -612.000; -540.000
250.087; -109.925; -834.000; -768.000
250.229;  -46.175; -362.000; -480.000
250.371;  -64.200; -494.000; -439.000
250.514;  -50.825; -310.000; -244.000
250.656;   -4.550;   69.000;  102.000
250.798; -107.175; -849.000; -800.000
250.940;  -80.400; -322.000; -322.000
251.083;  -18.525; -335.000; -111.000
251.225;   53.875;  338.000;  310.000
251.367;  -39.375; -274.000; -373.000
251.509;  -41.550; -265.000; -210.000
251.651;  -86.925; -731.000; -671.000
251.794;   48.425;  538.000;  632.000
251.936; -105.000; -821.000; -747.000
252.078;  -91.550; -540.000; -461.000
252.220;  -56.475; -645.000; -477.000
252.362;   71.850;  344.000;  462.000
252.504;  -61.275; -677.000; -584.000
252.646; -114.925; -875.000; -722.000
252.788;    4.950;   14.000; -128.000
252.931;  -42.375; -257.000; -253.000
253.073;  -31.400; -376.000; -317.000
253.215;  -10.025;  141.000;  122.000
253.357;   -8.700;   82.000; -153.000
253.499;  -54.000; -374.000; -234.000
253.641;  -83.925; -749.000; -594.000
253.783; -103.250; -609.000; -527.000
253.925;  -83.100; -586.000; -591.000
254.067; -106.900; -744.000; -667.000
254.209;  -18.350; -391.000; -259.000
254.351; -146.175; -865.000; -883.000
254.493;  -80.050; -441.000; -417.000
254.635; -122.850; -936.000; -818.000
254.777;  -93.175; -752.000; -687.000
254.918;  -69.325; -512.000; -430.000
255.060;  -48.825; -551.000; -395.000
255.202;  -62.450; -473.000; -261.000
255.344;  -71.475; -658.000; -455.000
255.486;  -90.475; -471.000; -406.000
255.628; -123.700; -780.000; -781.000
255.770;  -98.525; -676.000; -536.000
255.912;  -63.275; -559.000; -468.000
256.053; -105.825; -730.000; -508.000
256.195;  170.750; 1008.000;  903.000
256.337; -107.900; -861.000; -595.000
256.479;   73.400;  532.000;  416.000
256.621;  -49.925; -394.000; -212.000
256.762;  -93.675; -789.000; -742.000
256.904;   56.375;  485.000;  487.000
257.046;  -38.425; -381.000; -271.000
257.188;  -48.700; -351.000; -264.000
257.329;  -72.625; -525.000; -464.000
257.471; -126.200; -939.000; -807.000
257.613;  -60.525; -584.000; -498.000
257.755; -154.525;-1073.000; -982.000
257.896;   37.075;  286.000;  392.000
258.038;  -79.050; -403.000; -352.000
258.180;  -44.950; -354.000; -279.000
258.321;  -86.850; -581.000; -457.000
258.463;   -0.325;  -71.000;  133.000
258.605;  -88.475; -562.000; -570.000
258.746; -100.875; -886.000; -772.000
258.888; -154.725;-1026.000;-1020.000
259.029;   28.625;  121.000;   -8.000
259.171;  -88.900; -614.000; -550.000
259.313;    0.850;  -49.000;  -47.000
259.454;  -84.400; -536.000; -414.000
259.596;  -52.150; -483.000; -390.000
259.737;  -79.250; -590.000; -474.000
259.879;   48.700;  217.000;  311.000
260.020;   97.550;  901.000;  636.000
260.162;  -29.975; -146.000; -253.000
260.303; -123.350; -768.000; -687.000
260.445;  -87.925; -609.000; -613.000
260.586;   22.150;  392.000;  157.000
260.728;  -31.150; -360.000; -248.000
260.869; -129.275; -350.000; -343.000
261.011;   86.900;  706.000;  537.000
261.152;  -60.350; -479.000; -319.000
261.293;  -71.750; -576.000; -595.000
261.435;  -28.100; -219.000; -184.000
261.576;  -51.350; -455.000; -325.000
261.718;   54.200;  420.000;  470.000
261.859; -130.950; -940.000; -949.000
262.000; -129.425; -951.000;-1016.000
262.142;  -24.775;  -52.000;  -60.000
262.283; -110.100; -808.000; -691.000
262.424;  -87.200; -666.000; -625.000
262.566; -158.600;-1161.000; -983.000
262.707; -117.825; -840.000; -830.000
262.848; -134.575; -769.000; -726.000
262.990;  -41.975; -362.000; -345.000
263.131;   83.975;  650.000;  681.000
263.272;   -0.950;  -61.000;  -41.000
263.413;  -98.125; -589.000; -561.000
263.555;  -62.000; -669.000; -143.000
263.696;  -97.100; -550.000; -641.000
263.837;  -63.025; -449.000; -551.000
263.978;    3.925;   -5.000;  -77.000
264.119;  -42.675; -283.000; -264.000
264.261; -123.725; -847.000; -630.000
264.402;   12.100;   33.000;   40.000
264.543;  -92.375; -509.000; -524.000
264.684;   -1.825;   61.000;  -50.000
264.825;  -77.925; -816.000; -538.000
264.966;   -5.225;  -84.000;  -67.000
265.107; -123.650; -646.000; -670.000
265.248; -114.600; -825.000; -812.000
265.390;  -19.125;  152.000;   -9.000
265.531;  -14.300; -238.000; -107.000
265.672;  -96.550; -557.000; -630.000
265.813;   51.850;  563.000;  439.000
265.954; -154.700; -959.000; -940.000
266.095;  -14.500; -372.000; -322.000
266.236; -107.875; -686.000; -548.000
266.377;  -48.800; -243.000; -297.000
266.518;  -82.875; -619.000; -547.000
266.659;   24.850;  170.000;  268.000
266.800;    1.525;   83.000;   85.000
266.941;  -68.325; -487.000; -478.000
267.082;   17.500;  354.000;   99.000
267.223;  -50.250; -344.000; -273.000
267.364; -113.425; -892.000; -686.000
267.504;  -17.950;    3.000;  135.000
267.645;    0.625;  160.000;   67.000
267.786;  -19.475; -147.000;  -86.000
267.927;  -90.800; -473.000; -379.000
268.068;   -5.425; -186.000;  -61.000
268.209;  -30.200; -175.000; -413.000
268.350;  -60.150; -388.000; -532.000
268.490;  -94.625; -648.000; -521.000
268.631;   54.125;  127.000;  225.000
268.772; -111.675; -874.000; -647.000
268.913;  -45.950; -328.000; -476.000
269.054;   -4.925; -117.000;   12.000
269.194;  -50.625; -418.000; -402.000
269.335; -155.850;-1137.000;-1074.000
269.476;  -18.025;   33.000;  -35.000
269.617;  -57.600; -347.000; -392.000
269.757;  -96.600; -713.000; -646.000
269.898; -112.250; -856.000; -613.000
270.039;  -59.075; -415.000; -405.000
270.180; -141.375; -952.000; -816.000
270.320;   -9.100; -190.000; -250.000
270.461;  -56.675; -277.000; -249.000
270.602;   -8.075; -186.000; -156.000
270.742; -127.050; -868.000; -943.000
270.883;  -49.425; -442.000; -390.000
271.023;  -74.025; -358.000; -357.000
271.164;  -69.725; -607.000; -528.000
271.305;  -97.200; -666.000; -654.000
271.445;  -93.375; -722.000; -683.000
271.586;  -87.875; -462.000; -283.000
271.726;  -42.250; -397.000; -322.000
271.867;  -64.400; -594.000; -534.000
272.008;  164.450; -473.000; -285.000
272.148;  128.375;  462.000;  468.000
272.289;    2.325; -113.000; -181.000
272.429;   14.125;   19.000;  185.000
272.570;  -93.975; -633.000; -737.000
272.710; -107.500; -825.000; -775.000
272.851;  -22.475;  113.000; -130.000
272.991; -176.750;-1173.000;-1077.000
273.131;  -63.150; -419.000; -459.000
273.272; -109.100; -683.000; -723.000
273.412;    0.625; -143.000;  -31.000
273.553;  -58.175; -488.000; -507.000
273.693;  138.075;  913.000;  858.000
273.834;  -88.425; -894.000; -692.000
273.974;  -87.675; -664.000; -615.000
274.114; -108.225; -772.000; -560.000
274.255;   87.150;  414.000;  373.000
274.395;    5.200; -180.000; -125.000
274.535;   38.525;  199.000;  350.000
274.676;   12.125;  225.000;   94.000
274.816;    8.625;  110.000;   34.000
274.956;  -85.050; -624.000; -690.000
275.097;  -65.400;-1014.000; -922.000
275.237; -112.800; -913.000; -803.000
275.377; -102.950; -778.000; -689.000
275.517; -142.700; -878.000; -937.000
275.658;  -58.875; -590.000; -555.000
275.798;  -78.600; -606.000; -413.000
275.938;   26.475;  215.000;  323.000
276.078;  -86.100; -626.000; -395.000
276.218;    9.275;   99.000;  104.000
276.359; -139.450;-1026.000;-1024.000
276.499;  -67.350; -605.000; -446.000
276.639;  -33.450; -305.000; -151.000
276.779;  -49.000; -475.000; -357.000
276.919; -100.625; -783.000; -624.000
277.059;  -23.525; -261.000; -212.000
277.199;  -48.575; -357.000; -259.000
277.340;   46.950;  287.000;  175.000
277.480; -114.100; -840.000; -693.000
277.620;   31.925;  192.000;   16.000
277.760; -195.200;-1533.000;-1294.000
277.900;   14.750;  113.000;   33.000
278.040;    6.350;  137.000;  159.000
278.180;   47.550;  270.000;  170.000
278.320;   -7.650;   21.000;   56.000
278.460;  -65.875; -443.000; -469.000
278.600;  -99.475; -708.000; -598.000
278.740;   57.850;  448.000;  224.000
278.880;  -64.575; -768.000; -791.000
279.020;   -6.450; -194.000; -144.000
279.160;  -89.700; -672.000; -595.000
279.300; -107.150; -926.000; -873.000
279.440;  -85.900; -709.000; -622.000
279.579;  -20.925;-1014.000; -929.000
279.719;  -49.550; -410.000; -394.000
279.859;   71.375;   -4.000;   41.000
279.999;   29.650; -208.000;  101.000
280.139;  -15.050; -435.000; -387.000
280.279;  -76.900; -708.000; -745.000
280.419;  -12.550; -229.000; -147.000
280.559;  -34.250; -259.000; -180.000
280.698;  -83.625; -790.000; -639.000
280.838; -111.575; -778.000; -800.000
280.978; -103.825; -846.000; -790.000
281.118; -118.550; -811.000; -704.000
281.257;   20.475;   24.000;    6.000
281.397; -124.425;-1094.000; -960.000
281.537;  -84.750; -599.000; -712.000
281.677;  -35.900; -150.000; -101.000
281.816;  -83.475; -700.000; -630.000
281.956;  -30.775; -193.000; -257.000
282.096;  -70.750; -539.000; -396.000
282.235; -105.575; -672.000; -638.000
282.375;  -20.750; -243.000;  -98.000
282.515;  -99.625; -715.000; -707.000
282.654;   32.250;   29.000;  106.000
282.794;   26.025;  388.000;  244.000
282.934;  -52.950; -530.000; -491.000
283.073; -132.750;-1030.000; -857.000
283.213;  -47.125; -460.000; -467.000
283.353;  -48.650; -408.000; -349.000
283.492;  -31.675; -264.000; -296.000
283.632;  -50.275; -254.000; -168.000
283.771;  -76.450; -859.000; -730.000
283.911;  -57.400; -369.000; -260.000
284.050; -104.250; -794.000; -748.000
284.190; -169.800;-1229.000;-1096.000
284.329; -138.775;-1055.000; -964.000
284.469;  -62.825; -516.000; -591.000
284.608;  -55.825; -559.000; -598.000
284.748;  -85.600; -614.000; -570.000
284.887;   -0.275;  -87.000;  -20.000
285.027; -124.600; -844.000; -892.000
285.166;  -36.375; -192.000; -249.000
285.306;    4.875; -116.000;  -33.000
285.445;  -41.400; -229.000; -343.000
285.584;  -85.750; -630.000; -494.000
285.724;  -31.700; -282.000; -322.000
285.863; -114.250; -857.000; -507.000
286.002;  -60.700; -366.000; -276.000
286.142; -105.225; -715.000; -622.000
286.281;  -78.875; -525.000; -493.000
286.420;  -70.675; -554.000; -417.000
286.560;   90.650;  653.000;  623.000
286.699; -136.625; -958.000; -912.000
286.838;  -84.475; -590.000; -591.000
286.978; -117.150; -533.000; -537.000
287.117; -123.850;-1085.000; -950.000
287.256;  -51.025; -228.000; -211.000
287.395;  -47.150; -197.000; -378.000
287.535;  -56.650; -370.000; -298.000
287.674;  -77.200; -509.000; -484.000
287.813;   59.500;  661.000;  533.000
287.952; -131.875;-1010.000; -871.000
288.091; -149.300;-1049.000; -915.000
288.231;   15.100;   13.000;   15.000
288.370; -179.575;-1217.000;-1200.000
288.509;  -80.975; -728.000; -645.000
288.648;  -91.800; -770.000; -548.000
288.787;  -27.800; -243.000;  -87.000
288.926;  -73.525; -454.000; -475.000
289.065;  113.225;  859.000;  672.000
289.204;  -56.800; -377.000; -217.000
289.344;  -93.050; -791.000; -690.000
289.483;   35.300;  416.000;  304.000
289.622;  -23.800; -291.000; -149.000
289.761;  -20.775; -309.000; -166.000
289.900; -104.575; -785.000; -626.000
290.039;  -17.725;  -12.000;  -95.000
290.178;  -49.000; -274.000; -180.000
290.317;  -80.775; -618.000; -479.000
290.456;  -57.875; -463.000; -451.000
290.595; -137.675; -961.000; -833.000
290.734; -140.850; -904.000; -891.000
290.873;  -67.025; -456.000; -420.000
291.011; -119.700; -833.000; -843.000
291.150; -105.225; -770.000; -682.000
291.289;  -25.375; -343.000; -110.000
291.428; -108.225; -599.000; -480.000
291.567;  -46.350; -370.000; -442.000
291.706;   -5.325;  109.000;  154.000
291.845;  -93.550; -597.000; -505.000
291.984; -170.825;-1234.000;-1061.000
292.122;   71.500;  602.000;  582.000
292.261;   50.525;  620.000;  463.000
292.400;   15.600; -144.000;  211.000
292.539; -131.300; -959.000; -813.000
292.678;  -28.525; -325.000; -300.000
292.816; -160.700;-1136.000; -965.000
292.955;  -89.200; -844.000; -684.000
293.094;  -24.200; -173.000; -337.000
293.233;  -74.600; -556.000; -400.000
293.371;  -28.625; -225.000;  -84.000
293.510; -110.925; -866.000; -780.000
293.649; -137.900; -959.000; -924.000
293.787;  -60.600;-1083.000;-1012.000
293.926;   -0.425; -113.000;  -32.000
294.065;  -35.900; -379.000; -290.000
294.203;   43.550;  298.000;  406.000
294.342;   20.425;   74.000;  156.000
294.481; 6312.950;51180.000; -836.000
294.619;  -20.500; -425.000; -582.000
294.758; -148.225;-1230.000;-1137.000
294.896;   68.500; -125.000;    5.000
295.035; -139.700;-1040.000;-1006.000
295.174; -119.850;-1082.000; -954.000
295.312;  -48.150; -323.000; -203.000
295.451;  -17.400; -307.000; -428.000
295.589;  -46.875; -389.000; -518.000
295.728;   27.025; -292.000; -165.000
295.866;   -5.625;  -36.000;  -51.000
296.005;  -58.325; -584.000; -341.000
296.143;  -76.750; -558.000; -596.000
296.282; -109.625; -957.000; -881.000
296.420;  -86.550; -657.000; -557.000
296.559;  -76.000; -892.000; -633.000
296.697;    1.725; -847.000; -665.000
296.835;   47.050;-1141.000;-1002.000
296.974;   35.575;  -23.000;   39.000
297.112;   19.625; -443.000; -504.000
297.251;  -75.775; -815.000; -755.000
297.389;   82.925; -576.000; -438.000
297.527;   35.175; -145.000;  -83.000
297.666;  -55.675; -486.000; -438.000
297.804;  -52.225; -404.000; -264.000
297.942;    0.075; -136.000; -161.000
298.081;   -3.325; -183.000;   63.000
298.219;   63.550;  -17.000;  -19.000
298.357;   37.425; -144.000;  -71.000
298.495;   24.225; -810.000; -812.000
298.634;   68.950;  245.000;  219.000
298.772;   44.900; -220.000; -338.000
298.910;  -36.350; -309.000; -182.000
299.048;  -13.825; -130.000; -153.000
299.187;  -38.000; -350.000; -250.000
299.325;   23.125;   52.000;  122.000
299.463;   49.950; -389.000; -299.000
299.601;  105.275; -327.000; -271.000
299.739; -106.975; -908.000; -883.000
299.877;  -88.425; -791.000; -703.000
300.016;  -52.500;-1095.000; -935.000
300.154;  160.375;  -19.000; -161.000
300.292;   53.050; -428.000; -348.000
300.430;   21.675; -408.000; -291.000
300.568; -110.875; -940.000; -874.000
300.706;  -53.075; -366.000; -469.000
300.844;  -94.725;-1108.000; -979.000
300.982;  103.225;  246.000;  282.000
301.120; -110.575; -965.000; -866.000
301.258;  -70.300; -812.000; -705.000
301.396;   20.625;  104.000;  -41.000
301.534;   70.525; -218.000; -293.000
301.672;  -17.925; -664.000; -521.000
301.810;   14.000; -613.000; -545.000
301.948;  110.300;   53.000;  149.000
302.086;  584.050; -250.000;  -32.000
302.224;  914.825; -610.000; -585.000
302.362;   39.150; -558.000; -622.000
302.500;  -44.950; -923.000; -893.000
302.638;  101.000;  128.000;  245.000
302.776;   -4.575; -352.000; -408.000
302.913;   45.550;  447.000;  236.000
303.051;  -15.200;  -86.000;  -23.000
303.189;   47.325;   90.000;  118.000
303.327;  -32.600; -341.000; -256.000
303.465;  -79.650; -832.000; -588.000
303.603;  -90.225; -805.000; -604.000
303.740;   99.550;  417.000;  241.000
303.878;   -7.925; -800.000; -759.000
304.016;  -86.175; -915.000; -790.000
304.154; -128.875;-1123.000;-1152.000
304.291;  -31.200; -505.000; -554.000
304.429;    9.825;  102.000;   74.000
304.567; -114.725; -908.000; -893.000
304.705;  -60.850; -408.000; -515.000
304.842;   80.850; -616.000; -540.000
304.980;   62.700;  215.000;   35.000
305.118;   45.000; -367.000; -365.000
305.255;  -82.450; -945.000; -927.000
305.393;   59.475;  178.000;  239.000
305.531; -111.275;-1173.000; -956.000
305.668;  -56.850; -663.000; -582.000
305.806;   82.850; -358.000; -439.000
305.943;  102.025; -629.000; -637.000
306.081;   43.225; -378.000; -267.000
306.219;  -91.875; -863.000; -748.000
306.356;   -8.675;  158.000;   27.000
306.494;  115.875;  981.000;  761.000
306.631;   -8.225;  -11.000;  -55.000
306.769;    7.125; -613.000; -485.000
306.906;  -29.400; -284.000; -258.000
307.044;  -60.925; -473.000; -488.000
307.181;  -75.450; -410.000; -332.000
307.319;    2.000;  112.000;   87.000
307.456; -174.175;-1191.000;-1153.000
307.594;  -99.875; -980.000; -727.000
307.731;  -19.125; -371.000; -164.000
307.868;    2.050;  -15.000;   20.000
308.006; -136.300; -961.000; -847.000
308.143;  -69.725; -618.000; -330.000
308.281;  101.525;  -37.000; -254.000
308.418;  -30.050; -748.000; -640.000
308.555;  -80.600; -400.000; -250.000
308.693;  -67.175; -577.000; -573.000
308.830; -118.300; -712.000; -657.000
308.967;   -8.075; -215.000;  -95.000
309.105;  -53.850; -507.000; -396.000
309.242;    3.900; -468.000; -367.000
309.379;  198.675; -577.000; -655.000
309.517;  -82.825; -936.000; -948.000
309.654; -121.475; -910.000; -734.000
309.791;  -79.225; -662.000; -580.000
309.928; -123.000; -977.000; -914.000
310.065;  181.975;  819.000;  697.000
310.203;   -9.950; -825.000; -850.000
310.340;  -17.425; -465.000; -321.000
310.477;  -79.175; -412.000; -516.000
310.614;  -70.000; -383.000; -473.000
310.751;  -98.000; -427.000; -518.000
310.889;  -24.700;    1.000;   11.000
311.026; -153.750;-1161.000; -939.000
311.163;  -50.975; -386.000; -380.000
311.300;  -79.950; -512.000; -479.000
311.437;  -80.925; -658.000; -619.000
311.574; -164.950;-1226.000; -985.000
311.711;  -60.675; -595.000; -433.000
311.848;  -42.225; -380.000; -388.000
311.985;   22.600;  270.000;   93.000
312.122; -124.600; -932.000; -762.000
312.259; -126.425; -941.000; -994.000
312.396;  -88.125; -508.000; -551.000
312.533;  -90.750; -812.000; -790.000
312.670; -144.050;-1070.000; -898.000
312.807;  -48.575; -352.000; -367.000
312.944;  -78.300; -513.000; -611.000
313.081;  -26.425; -150.000; -415.000
313.218; -111.800;-1111.000; -867.000
313.355;   16.850; -531.000; -449.000
313.492;  -19.325; -455.000; -292.000
313.629;  143.025;  815.000;  735.000
313.766; -164.650;-1176.000;-1008.000
313.902;   -9.650; -186.000;   21.000
314.039;  -50.725; -372.000; -289.000
314.176;   27.000;  286.000;  192.000
314.313;  -76.225; -569.000; -473.000
314.450;  -75.400; -788.000; -684.000
314.587;  -60.900; -468.000; -480.000
314.723;   -5.250;  -78.000;  130.000
314.860;   21.375;  318.000;  332.000
314.997;   30.575;  223.000;  142.000
315.134;  -43.750; -385.000; -368.000
315.270;  -44.525; -480.000; -496.000
315.407; -138.150;-1094.000; -967.000
315.544;  -48.125; -657.000; -538.000
315.681;  -76.950; -681.000; -565.000
315.817;   36.975; -133.000; -176.000
315.954;    5.325; -613.000; -392.000
316.091; -115.950;-1045.000;-1023.000
316.227;  -18.400;  -71.000; -179.000
316.364;   12.775;   23.000;    6.000
316.500;  -50.475; -113.000; -300.000
316.637;  -49.700; -181.000; -302.000
316.774;  -94.075; -625.000; -358.000
316.910; -103.400; -598.000; -629.000
317.047;  -68.975; -487.000; -351.000
317.183;  -42.125; -435.000; -566.000
317.320;  -17.900; -367.000; -321.000
317.456;  -68.750; -733.000; -805.000
317.593;  -93.925; -598.000; -641.000
317.729;    6.450;  168.000;  -67.000
317.866; -207.300;-1434.000;-1285.000
318.002;  -87.500; -708.000; -948.000
318.139; -113.275; -883.000; -867.000
318.275; -106.125;-1003.000; -738.000
318.412;  -74.550; -517.000; -336.000
318.548;  -36.450; -751.000; -720.000
318.685; -106.950; -985.000; -888.000
318.821; -109.150; -762.000; -735.000
318.957;  -23.775;   34.000;  -23.000
319.094;   49.875;  297.000;  154.000
319.230;  -83.300; -756.000; -742.000
319.367;  123.175; -471.000; -520.000
319.503;   53.450; -538.000; -436.000
319.639;  -95.725; -877.000; -793.000
319.775;  -64.125; -750.000; -685.000
319.912;  -59.650; -424.000; -519.000
320.048;  -95.650;-1184.000;-1184.000
320.184;   78.875;   59.000;   70.000
320.321;  -69.425; -497.000; -467.000
320.457;   79.150;  475.000;  662.000
320.593;  -70.575; -375.000; -382.000
320.729;  -86.225; -732.000; -734.000
320.866;  -84.425; -577.000; -635.000
321.002;  -72.350; -759.000; -809.000
321.138;  -19.200; -135.000; -211.000
321.274;   56.600; -148.000; -115.000
321.410;  -34.775; -585.000; -353.000
321.546;  -33.200;-1011.000; -911.000
321.683;   61.200;  400.000;  185.000
321.819;    7.475;  -48.000; -117.000
321.955; -107.200; -743.000; -722.000
322.091;  -58.650; -585.000; -540.000
322.227;  -10.675; -382.000; -202.000
322.363;   -9.025; -320.000; -215.000
322.499;  -49.600; -343.000; -331.000
322.635;  150.250;  636.000;  443.000
322.771;   19.375; -139.000;   12.000
322.907;   92.475;  129.000;  327.000
323.043;  -23.800; -115.000; -206.000
323.179;  -29.175; -394.000; -363.000
323.315;   -0.100; -401.000; -371.000
323.451;  106.025; -328.000; -236.000
323.587;   58.175;  -60.000;  -77.000
323.723;   15.675; -682.000; -601.000
323.859;  -12.550; -258.000;  -76.000
323.995;  -35.500; -467.000; -409.000
324.131; -120.400; -967.000; -892.000
324.267;  -31.250; -254.000; -276.000
324.402; -140.800; -960.000; -983.000
324.538;  -11.125; -279.000; -104.000
324.674;    3.725;  164.000;   77.000
324.810;  110.175;  226.000;  308.000
324.946;  -15.325; -810.000; -658.000
325.082;  -78.675; -568.000; -475.000
325.217;    2.425;  -62.000;   16.000
325.353; -107.000; -764.000; -659.000
325.489;  -96.425; -540.000; -506.000
325.625;  -75.300; -579.000; -525.000
325.760;   60.425;  517.000;  376.000
325.896;  -10.750; -515.000; -702.000
326.032;  -50.775; -403.000; -352.000
326.168;  -62.175; -462.000; -369.000
326.303;  -55.250; -352.000; -461.000
326.439;  -15.700; -336.000; -276.000
326.575;  -10.475; -190.000;  -29.000
326.710;  -12.350; -156.000;  -30.000
326.846;   -8.850;  146.000;  103.000
326.982;  -89.450; -530.000; -548.000
327.117;  -84.100; -481.000; -442.000
327.253;  -93.625; -745.000; -742.000
327.388; -130.825;-1137.000;-1153.000
327.524;  -48.750; -811.000; -578.000
327.659;  -24.300;  -58.000;  -22.000
327.795;  -14.850;   69.000;   45.000
327.931;  -93.125; -723.000; -499.000
328.066;  -26.725; -417.000; -276.000
328.202;  -25.325;   12.000; -129.000
328.337;  106.400;  957.000;  713.000
328.473;   36.275;  -12.000;  -74.000
328.608;  -16.050; -256.000; -267.000
328.743; -107.300; -799.000; -664.000
328.879;   16.700;  214.000;  114.000
329.014;  -33.300; -102.000; -122.000
329.150;  -91.675; -358.000; -483.000
329.285;  -80.325; -465.000; -466.000
329.421;  -54.250; -548.000; -246.000
329.556;  -33.725;  -36.000;   85.000
329.691;  -95.725; -633.000; -615.000
329.827;  -90.275; -626.000; -480.000
329.962;  -21.800;  131.000; -301.000
330.097; -101.525; -673.000; -585.000
330.233;  -56.050; -410.000; -223.000
330.368; -146.300; -839.000; -628.000
330.503;  -14.825;    3.000;   98.000
330.638;    2.700;  -93.000; -125.000
330.774;  -49.650; -609.000; -530.000
330.909;  -45.750; -434.000; -244.000
331.044;  -85.850; -714.000; -708.000
331.179; -188.300;-1217.000;-1109.000
331.315;   13.800;   77.000;   20.000
331.450;    6.125;  157.000;  285.000
331.585;  -82.850; -805.000; -706.000
331.720;  -83.475; -510.000; -460.000
331.855;  -12.500;  -35.000; -102.000
331.990;  233.975;   62.000;  138.000
332.126;  121.650; -110.000;   71.000
332.261;  -15.200; -379.000; -265.000
332.396;    3.625; -135.000; -242.000
332.531; -102.975;-1074.000;-1031.000
332.666;   38.475; -519.000; -363.000
332.801; -106.450; -726.000; -807.000
332.936;  -21.200; -192.000; -122.000
333.071; -153.725; -870.000; -817.000
333.206;    7.100;  307.000;  379.000
333.341;   26.925;  344.000;  418.000
333.476;  -91.825; -627.000; -623.000
333.611;  -44.875; -251.000; -173.000
333.746;  -48.675; -381.000; -464.000
333.881; -115.950; -973.000; -935.000
334.016; -115.675; -936.000; -917.000
334.151; -130.225; -746.000; -702.000
334.286;   22.625;  152.000;  186.000
334.421;  -24.250; -125.000; -178.000
334.556;  -75.775; -611.000; -567.000
334.690;  -92.000; -631.000; -577.000
334.825;   47.350;  381.000;   83.000
334.960;  -59.050; -285.000; -413.000
335.095;   -2.400;  135.000;  -91.000
335.230; -103.075; -722.000; -738.000
335.365; -132.975;-1084.000; -990.000
335.499; -123.550;-1108.000;-1037.000
335.634;   19.600;    9.000;  534.000
335.769;  -97.950; -755.000; -720.000
335.904;  -53.000; -603.000; -561.000
336.038;  -64.275; -735.000; -657.000
336.173; -119.325;-1206.000;-1194.000
336.308;    1.550; -116.000; -189.000
336.443;   34.925; -544.000; -634.000
336.577;  -83.550; -936.000; -787.000
336.712;   74.475;   -4.000;  -12.000
336.847;  -44.950; -724.000; -607.000
336.981;   65.225; -272.000; -208.000
337.116;  290.225;  615.000;  501.000
337.250;  142.950; -434.000; -421.000
337.385;  231.200; -297.000; -208.000
337.520;   87.625; -632.000; -603.000
337.654;  -38.750; -215.000; -126.000
337.789; -132.225; -989.000; -933.000
337.923;  -47.500; -104.000; -205.000
338.058;  -90.675; -673.000; -738.000
338.192;  -47.700; -611.000; -488.000
338.327;  -12.150;  -18.000; -155.000
338.461;  -69.375; -299.000; -469.000
338.596;  -75.800; -780.000; -638.000
338.730; -113.950; -767.000; -803.000
338.865;   96.425;  -46.000; -140.000
338.999;  -60.650; -846.000; -702.000
339.134;  -29.150; -634.000; -536.000
339.268;   -2.175; -741.000; -603.000
339.403;  359.175; -740.000; -775.000
339.537;  108.700; -894.000; -820.000
339.671; -109.450; -829.000; -813.000
339.806;  -72.000; -556.000; -512.000
339.940;   16.000; -261.000; -235.000
340.074; -105.375; -685.000; -510.000
340.209;  -35.125; -351.000; -230.000
340.343;  -84.200; -517.000; -573.000
340.477;  149.625;  998.000; 1036.000
340.612;  -72.875;-1033.000; -900.000
340.746;  139.550; -199.000; -243.000
340.880;  -72.900; -924.000; -785.000
341.014;  -18.050;  -45.000; -154.000
341.149; -130.650; -756.000; -718.000
341.283; -100.825; -839.000; -754.000
341.417; -106.725;-1124.000; -938.000
341.551;  126.775; -768.000; -708.000
341.685;  -58.475; -633.000; -611.000
341.820;  -51.825; -562.000; -493.000
341.954;  -59.125; -218.000; -349.000
342.088; -157.225;-1102.000;-1019.000
342.222;   47.825;  565.000;  618.000
342.356;  -65.250; -395.000; -335.000
342.490; -105.075; -880.000; -841.000
342.624;  -59.100; -339.000; -242.000
342.758;  -10.300; -364.000; -312.000
342.892;  -73.925; -710.000; -585.000
343.026;  -33.600;  -58.000; -116.000
343.160;  -56.050; -426.000; -376.000
343.294;  -83.575; -474.000; -337.000
343.428;  -31.475; -488.000; -448.000
343.562;   -8.525; -172.000;  -23.000
343.696;  -27.925; -385.000; -314.000
343.830;  -24.350; -362.000; -356.000
343.964;   19.200; -231.000; -168.000
344.098;  882.375;  199.000;   70.000
344.232;  751.400; -266.000; -127.000
344.366;   68.950; -567.000; -453.000
344.500;   35.750; -665.000; -744.000
344.634;   34.625; -324.000; -164.000
344.768;  -11.375; -531.000; -341.000
344.902;    2.975;  278.000;  256.000
345.035;  -77.025; -556.000; -496.000
345.169; -136.425; -933.000; -656.000
345.303;  -33.500; -308.000; -482.000
345.437;  -84.225; -826.000; -717.000
345.571;  -71.250; -675.000; -594.000
345.704;  -66.775; -309.000; -532.000
345.838;  -13.225; -331.000; -284.000
345.972;  -51.475; -543.000; -495.000
346.106;  160.175; -179.000; -190.000
346.239;  410.075; -312.000; -243.000
346.373;    6.600; -343.000; -302.000
346.507; -159.450; -950.000; -962.000
346.640;  129.325;  -30.000;   13.000
346.774;  -58.700; -650.000; -797.000
346.908;   -6.600; -138.000;  -11.000
347.041; -118.425; -646.000; -593.000
347.175;    9.325;  259.000;   27.000
347.309;  -71.825; -698.000; -628.000
347.442; -103.550; -883.000; -732.000
347.576;  262.000;  670.000;  668.000
347.709;  186.800; -123.000;  -52.000
347.843; -106.800; -933.000; -825.000
347.976;   47.275;  235.000;  294.000
348.110; -180.125;-1268.000;-1186.000
348.243;  -94.050; -679.000; -772.000
348.377;   -3.875;  -26.000;   60.000
348.510;   54.600;  403.000;  540.000
348.644;  -33.800;  -37.000; -159.000
348.777;    5.075;  180.000;  191.000
348.911;  -55.750; -142.000; -112.000
349.044;  174.425;  471.000;  448.000
349.178;  129.075;-1069.000;-1006.000
349.311;  116.200;  141.000;  255.000
349.444;  -12.200; -927.000; -813.000
349.578;  -13.525; -347.000; -200.000
349.711; -111.425; -959.000; -862.000
349.845;  -10.375; -661.000; -591.000
349.978; -158.225;-1224.000;-1137.000
350.111;  -79.250; -546.000; -612.000
350.244;  -93.350; -596.000; -700.000
350.378;   13.000; -392.000; -393.000
350.511;  -66.850; -393.000; -426.000
350.644;  -99.950; -808.000; -806.000
350.778;    9.625;  168.000;  104.000
350.911;    2.850;  134.000;  140.000
351.044; -102.750; -685.000; -615.000
351.177;  -29.275; -321.000; -281.000
351.310;  -26.775;    3.000; -131.000
351.444;  -77.900; -888.000; -788.000
351.577;  113.825;  140.000;   90.000
351.710;  104.375;  593.000;  417.000
351.843;  -43.475; -165.000;  -77.000
351.976;   -6.700;  149.000;  -79.000
352.109;  -85.925; -621.000; -612.000
352.242;  -28.925; -464.000; -419.000
352.376;  -68.150; -580.000; -636.000
352.509;  149.725; -437.000; -356.000
352.642;   -6.250; -654.000; -604.000
352.775;   55.350; -141.000;  -98.000
352.908; -119.675; -933.000; -904.000
353.041; -107.000; -814.000; -824.000
353.174;  -57.200; -551.000; -424.000
353.307;  -95.450; -753.000; -764.000
353.440;   68.675;  541.000;  453.000
353.573; -104.075; -957.000;-1008.000
353.706;  -35.050; -384.000; -558.000
353.839;  -22.175; -264.000; -220.000
353.971;  -86.875; -657.000; -512.000
354.104;  -80.475; -896.000; -835.000
354.237;  -46.300; -627.000; -662.000
354.370;  -71.875; -846.000; -879.000
354.503; -198.175;-1231.000;-1308.000
354.636;  -43.725; -529.000; -348.000
354.769; -143.800; -937.000; -860.000
354.902;  -14.500; -230.000; -139.000
355.034;  -38.175; -164.000; -220.000
355.167;  -11.525; -262.000; -162.000
355.300;  -97.775;-1061.000; -880.000
355.433;  966.575;  -71.000;  -14.000
355.565; 1490.200; -402.000; -384.000
355.698;  382.125; -356.000; -296.000
355.831;   -7.775; -882.000; -801.000
355.964;   72.425; -285.000; -170.000
356.096;  -90.125; -856.000; -843.000
356.229;  -16.050; -523.000; -530.000
356.362;  311.650; -373.000; -266.000
356.494;  604.450; -229.000; -162.000
356.627;  466.225;  269.000;  377.000
356.760;  657.325;  120.000;   53.000
356.892;  946.925; -286.000; -601.000
357.025;  639.950;  403.000;  389.000
357.157;  566.850; -167.000; -179.000
357.290;  672.325; -856.000; -713.000
357.423;  208.975; -667.000; -556.000
357.555;  111.900; -217.000; -228.000
357.688;  120.250; -483.000; -364.000
357.820;  414.650; -870.000; -877.000
357.953; 3613.725; -563.000; -589.000
358.085;  769.650; -632.000; -612.000
358.218; 1050.550;-1131.000; -932.000
358.350;  205.475;  -58.000;  312.000
358.483; -140.400;-1300.000;-1187.000
358.615;  -29.425;-1182.000;-1078.000
358.747;  -72.975;-1187.000;-1058.000
358.880;   23.500; -810.000; -744.000
359.012;  -16.825; -376.000; -202.000
359.145;  -38.450; -480.000; -511.000
359.277;   47.100; -962.000; -913.000
359.409; 2972.600;  536.000;  231.000
359.542;  754.300; -738.000; -688.000
359.674;   73.650;   46.000;   13.000
359.806;  -71.450; -565.000; -438.000
359.939;  -41.250; -617.000; -516.000
360.071;  -23.950; -583.000; -579.000
360.203;  -27.675; -411.000; -364.000
360.335;   40.550;  164.000;  -16.000
360.468;  183.775; -249.000; -307.000
360.600; 2394.850; -547.000; -454.000
360.732; 2810.300; -546.000; -423.000
360.864;  368.100;-1216.000;-1044.000
360.996;  258.925; -516.000; -554.000
361.129;   39.525; -389.000; -598.000
361.261;   24.775;  110.000; -113.000
361.393;  -42.975; -252.000; -214.000
361.525;   29.100;   94.000;  244.000
361.657;  -46.725; -821.000; -703.000
361.789;   -4.625; -139.000; -155.000
361.921;  192.375; -642.000; -593.000
362.053;  244.700;  524.000;  541.000
362.185;   34.475;  288.000;   72.000
362.318;  -95.100; -709.000; -705.000
362.450;  119.375;  294.000;  444.000
362.582;   89.825; -913.000; -870.000
362.714;  -56.825; -353.000; -332.000
362.846;  -87.325; -606.000; -490.000
362.978; -141.625; -941.000; -811.000
363.109;   44.050; -161.000; -260.000
363.241;  426.375; -739.000; -749.000
363.373;  410.550; -649.000; -564.000
363.505;  661.550; -186.000;  -91.000
363.637;  156.175; -787.000; -601.000
363.769; -144.350;-1067.000;-1080.000
363.901;  -70.500; -596.000; -654.000
364.033; -130.300;-1103.000;-1062.000
364.165;  -13.250; -283.000; -283.000
364.296;   59.775; -316.000; -177.000
364.428;   73.350;-1344.000;-1220.000
364.560;  -83.075; -679.000; -661.000
364.692;  -64.475; -738.000; -835.000
364.824;  240.550; -588.000; -456.000
364.955;  422.150; -402.000; -564.000
365.087;  911.625;-1097.000; -852.000
365.219;    7.550; -686.000; -816.000
365.351;  -82.600; -526.000; -572.000
365.482;   52.925;  300.000;  240.000
365.614;  -60.950; -402.000; -314.000
365.746; -103.725; -729.000; -752.000
365.877; -105.825; -706.000; -672.000
366.009;  270.250;  -35.000;  -62.000
366.141;  -96.525;-1249.000;-1134.000
366.272;  -99.900; -803.000; -719.000
366.404; -114.275;-1005.000; -874.000
366.535;  -14.025; -139.000;  -12.000
366.667; -108.425; -644.000; -649.000
366.799;   33.025;  353.000;  203.000
366.930; -120.500; -862.000; -996.000
367.062;  116.275; -639.000; -613.000
367.193;  142.150; -872.000; -842.000
367.325;  -70.875; -580.000; -684.000
367.456;   49.000; -246.000;   31.000
367.588;  164.675; -371.000; -318.000
367.719;    4.025;  -44.000;  -45.000
367.851;  -23.750; -222.000; -241.000
367.982;  -60.775; -875.000; -732.000
368.113;  107.475; -475.000; -358.000
368.245; -136.775; -960.000; -841.000
368.376;  -30.025; -254.000; -302.000
368.508;  -36.425; -188.000; -263.000
368.639; -134.550;-1166.000;-1034.000
368.770;  -27.675; -670.000; -589.000
368.902;  -62.975; -836.000; -926.000
369.033; -121.075; -906.000; -855.000
369.164;  -42.650; -720.000; -653.000
369.296; -104.550; -452.000; -601.000
369.427;  -16.275; -209.000; -144.000
369.558;  -63.200; -593.000; -377.000
369.689;  -92.975; -721.000; -569.000
369.821; -143.150; -951.000; -845.000
369.952;  -20.175;   42.000; -108.000
370.083;  -51.600; -229.000; -108.000
370.214;  -99.100; -735.000; -650.000
370.345;   -8.500;   65.000;   81.000
370.477;  -80.550; -810.000; -790.000
370.608;  230.825; -328.000; -264.000
370.739;  -60.925;-1233.000;-1292.000
370.870;  -44.425;-1102.000; -923.000
371.001;   65.175; -378.000; -467.000
371.132;  -81.050; -754.000; -735.000
371.263;  -26.425;  -42.000; -148.000
371.394; -137.375; -841.000; -748.000
371.525;   36.500;  345.000;  225.000
371.657; -104.325; -808.000; -670.000
371.788;   80.475;  103.000;  199.000
371.919;  148.250; -384.000; -304.000
372.050; 3548.800;  -91.000; -156.000
372.181; 1007.050; -188.000; -294.000
372.311;  354.675;   42.000; -127.000
372.442;   32.025; -457.000; -451.000
372.573;  -30.750; -444.000; -340.000
372.704; -142.950;-1008.000; -980.000
372.835;   82.250; -228.000; -289.000
372.966;  -84.500; -646.000; -554.000
373.097;  -62.575; -575.000; -711.000
373.228;  -40.700; -717.000; -542.000
373.359;  129.475; -824.000; -536.000
373.490;  909.550; -881.000; -727.000
373.620; 1092.350;-1001.000; -803.000
373.751; 1695.150; -332.000; -396.000
373.882;  749.025; -663.000; -733.000
374.013;   53.650; -449.000; -262.000
374.143;  -59.925; -581.000; -659.000
374.274; -114.525; -987.000; -908.000
374.405;  163.425; -388.000; -276.000
374.536;  429.575; -526.000; -387.000
374.666; 1055.375; -759.000; -807.000
374.797;  191.325; -817.000; -868.000
374.928;  829.050; -710.000; -560.000
375.058;  840.600; -535.000; -500.000
375.189;   78.600;  -59.000;  -93.000
375.320; -102.800; -928.000;-1034.000
375.450;  -33.775; -625.000; -616.000
375.581;  -51.800; -526.000; -436.000
375.712;  -28.950; -574.000; -250.000
375.842;  275.075; -438.000; -415.000
375.973;  207.850; -554.000; -513.000
376.103;  -60.325; -665.000; -648.000
376.234;  -80.150; -531.000; -552.000
376.364;  -44.750; -944.000; -867.000
376.495;  319.825;  925.000;  529.000
376.625;  -18.950; -472.000; -485.000
376.756;   41.700; -709.000; -678.000
376.886;  -95.625;-1178.000;-1026.000
377.017;   46.050;-1048.000;-1061.000
377.147;  343.675; -786.000; -782.000
377.278;   62.700;  174.000;  228.000
377.408; -140.325; -801.000; -815.000
377.538;  -93.825; -707.000; -693.000
377.669;  -88.575; -537.000; -613.000
377.799;  -87.300; -645.000; -635.000
377.929;  -62.650; -610.000; -428.000
378.060; -132.600; -781.000; -847.000
378.190;  -70.025; -726.000; -531.000
378.320;  -53.600; -401.000; -406.000
378.451;  -12.525; -131.000;  -22.000
378.581;   -6.975;  -67.000; -110.000
378.711;  140.625; 1035.000;  866.000
378.841;  -31.375; -533.000; -675.000
378.972;  -92.150; -871.000; -751.000
379.102;   -5.300; -652.000; -579.000
379.232;  -24.225; -126.000;  -73.000
379.362;  -99.525;-1001.000; -885.000
379.492;  -14.275; -373.000; -424.000
379.623;  107.425;    0.000;  111.000
379.753; -111.175;-1107.000; -974.000
379.883;  195.025;   59.000;  156.000
380.013;   -7.350;-1081.000;-1017.000
380.143; -107.950;-1097.000;-1056.000
380.273; -103.650; -985.000; -861.000
380.403;  -11.475; -344.000; -257.000
380.533;  -34.050; -651.000; -664.000
380.663;   78.150;  173.000;  128.000
380.793; -121.150;-1027.000;-1074.000
380.923;  -32.900; -103.000;  -34.000
381.053;  -98.200; -613.000; -623.000
381.183;  -35.675; -106.000; -248.000
381.313;   21.400; -656.000; -470.000
381.443;   22.875; -692.000; -473.000
381.573;  178.600; -402.000; -409.000
381.703;  263.925;-1249.000;-1095.000
381.833; -147.150;-1454.000;-1336.000
381.963;  111.050; -134.000;  -87.000
382.093; 1328.525; -925.000; -909.000
382.223;  395.150; -713.000; -602.000
382.353;  -28.500; -801.000; -608.000
382.482;  354.125;-1091.000; -964.000
382.612;  735.225; -872.000; -644.000
382.742;  411.675; -695.000; -622.000
382.872;  235.750; -565.000; -551.000
383.002;   73.050;  347.000; -132.000
383.131;  -34.850; -226.000; -160.000
383.261;  -42.050; -706.000; -768.000
383.391;  275.825; -552.000; -377.000
383.521; 3221.225;  451.000;  263.000
383.650;  736.600; -947.000; -904.000
383.780;  -19.675; -783.000; -656.000
383.910;  102.525;  880.000;  802.000
384.039;   11.600; -794.000; -656.000
384.169;  188.975;-1205.000;-1017.000
384.299;  -35.350; -650.000; -662.000
384.428; -103.200; -764.000; -680.000
384.558;  -44.600; -308.000; -275.000
384.687;  -62.250; -414.000; -334.000
384.817;    4.975;   75.000;   -2.000
384.947;    2.375; -234.000; -141.000
385.076;  268.575;  982.000;  912.000
385.206;   96.025;  369.000;  480.000
385.335;  -40.575; -549.000; -417.000
385.465;  -91.700; -655.000; -663.000
385.594;  123.300;  -53.000;  -44.000
385.724;  381.600; -868.000; -838.000
385.853;  109.050; -296.000; -270.000
385.982; 1333.300; -743.000; -787.000
386.112; 2006.775;-1052.000; -871.000
386.241;  129.950; -307.000; -312.000
386.371;   12.300; -174.000;  -87.000
386.500;  -17.675; -825.000; -789.000
386.629;   28.325; -874.000; -817.000
386.759;   50.425;  -43.000;   68.000
386.888;   -5.675; -170.000; -250.000
387.017;  -87.125; -648.000; -620.000
387.147; -102.100; -771.000; -798.000
387.276;  -11.725; -410.000; -397.000
387.405;    9.800; -398.000; -342.000
387.535;  -58.075; -452.000; -361.000
387.664;  -64.400; -692.000; -620.000
387.793;   51.100; -198.000; -113.000
387.922;  509.750;  255.000;  200.000
388.052;    1.675; -576.000; -423.000
388.181;    5.275; -342.000; -472.000
388.310;  -15.000; -889.000; -710.000
388.439;  -65.950; -749.000; -742.000
388.568;  175.450;  365.000;  244.000
388.697; 1004.475; -756.000; -653.000
388.826;  174.275; -768.000; -666.000
388.956;   47.850; -285.000; -307.000
389.085;  -51.625; -347.000; -287.000
389.214; -109.475; -842.000; -872.000
389.343;  -80.625; -645.000; -413.000
389.472;  416.550;  126.000;  149.000
389.601;  513.750;   91.000;    0.000
389.730;    9.375; -568.000; -687.000
389.859;   55.525;  226.000;   46.000
389.988;  167.800; -423.000; -408.000
390.117;  117.875; -168.000; -146.000
390.246;  -20.300; -331.000; -320.000
390.375;   89.400; -673.000; -626.000
390.504;  -60.100; -703.000; -621.000
390.633; -111.575; -672.000; -726.000
390.761;  -75.100; -732.000; -645.000
390.890;   24.800;   -4.000; -130.000
391.019;  -41.400; -421.000; -441.000
391.148; -136.725; -826.000; -855.000
391.277;  -78.050; -576.000; -493.000
391.406;  -94.350; -821.000; -805.000
391.534;    9.550;  574.000; -301.000
391.663;  -94.950; -583.000; -645.000
391.792;  -93.275; -673.000; -701.000
391.921;   84.825;   -3.000;   15.000
392.050;  171.075; -287.000; -228.000
392.178;  -61.700;-1206.000;-1061.000
392.307;  131.050; -758.000; -712.000
392.436;   44.850; -427.000; -641.000
392.564;   21.125;  166.000;   -6.000
392.693;  -97.150; -860.000; -682.000
392.822;  195.375; -529.000; -534.000
392.950;   72.375; -880.000; -714.000
393.079;  317.050; -188.000; -328.000
393.208;   11.475; -488.000; -511.000
393.336;  -26.700; -170.000; -145.000
393.465;  -68.150; -317.000; -199.000
393.593;    4.375;   62.000;   79.000
393.722; -164.225;-1121.000; -916.000
393.850;  -24.850; -188.000;  -61.000
393.979; -157.300; -926.000; -805.000
394.107;  -70.725; -517.000; -537.000
394.236;  -50.925; -570.000; -507.000
394.364;  177.350;  383.000;  206.000
394.493;  217.475; -911.000; -767.000
394.621;  -34.900; -955.000; -916.000
394.750;  694.800; -873.000; -923.000
394.878; 2957.750; -247.000; -149.000
395.007; 3927.200; -721.000; -807.000
395.135;  281.550; -790.000; -721.000
395.263;  -98.050;-1038.000;-1040.000
395.392;    4.400;  -25.000; -107.000
395.520; -147.375; -818.000; -679.000
395.648;  -94.700; -865.000; -915.000
395.777;  -40.625; -366.000; -405.000
395.905;  -58.625; -449.000; -564.000
396.033;    1.325;  217.000;  172.000
396.162;  407.300; -399.000; -453.000
396.290;  350.225;  -17.000;   -2.000
396.418;   90.975; -555.000; -514.000
396.546;  -85.850; -571.000; -466.000
396.674;  -91.675; -850.000; -878.000
396.803;   -6.300;  -72.000;  -23.000
396.931;   81.975; -179.000; -199.000
397.059;   17.450;-1026.000; -989.000
397.187; -122.375;-1026.000; -975.000
397.315; -139.625; -884.000; -649.000
397.443;  -95.450; -592.000; -443.000
397.572;  -87.375; -578.000; -424.000
397.700;  -30.400; -607.000; -614.000
397.828;    4.175;  120.000;  -90.000
397.956;  -56.925; -508.000; -478.000
398.084;  -78.725; -767.000; -626.000
398.212;   26.275;  137.000;  124.000
398.340;   -8.000;  -56.000;  159.000
398.468;   18.225; -390.000; -169.000
398.596; -149.800; -993.000; -953.000
398.724; -125.175; -762.000; -767.000
398.852; -167.550;-1024.000; -976.000
398.980;  -69.350; -560.000; -560.000
399.108;  -71.375; -982.000; -735.000
399.236;   31.875;   13.000;    8.000
399.363;    5.775;  222.000;  196.000
399.491;  -76.925; -404.000; -398.000
399.619; -137.250; -829.000; -800.000
399.747; -100.500; -859.000; -771.000
399.875;   67.200;  220.000;  234.000
400.003;  -54.800; -359.000; -284.000
400.130;  -97.975; -421.000; -341.000
400.258;  -26.825;  -83.000;   38.000
400.386;  -74.475; -352.000; -168.000
400.514;  -53.900; -526.000; -587.000
400.641; -116.050; -928.000; -802.000
400.769; -147.525; -979.000; -888.000
400.897; -123.350; -838.000; -793.000
401.025;  -42.975; -166.000; -152.000
401.152;   -3.900;  220.000;   38.000
401.280;  -76.475; -430.000; -429.000
401.408; -122.750; -712.000; -576.000
401.535; -107.250; -735.000; -758.000
401.663; -200.900;-1134.000;-1054.000
401.790;  -94.075; -514.000; -525.000
401.918;   40.775;  436.000;  405.000
402.046;   -4.600;  134.000;  122.000
402.173;  -57.500;  -18.000;    7.000
402.301;  -72.925; -519.000; -397.000
402.428;   31.550;  528.000;  383.000
402.556; -146.500;-1188.000; -913.000
402.683;  -46.250;  -20.000;   -1.000
402.811;  -18.275;  -37.000; -206.000
402.938;   -8.000;   20.000;   27.000
403.066;  191.600; -574.000; -558.000
403.193;  317.600;  299.000;  239.000
403.321;  245.950; -396.000; -574.000
403.448;  304.300;   83.000;   27.000
403.575;  148.875;  -90.000;  -46.000
403.703; -102.025; -732.000; -557.000
403.830;  -58.850; -531.000; -496.000
403.957; -159.400;-1117.000;-1023.000
404.085;    8.300;  -61.000; -172.000
404.212;   94.050;  -50.000;   63.000
404.339;  265.375; -566.000; -306.000
404.467; 5842.350; -612.000; -524.000
404.594; 3695.600; -287.000; -227.000
404.721;  839.600; -869.000; -764.000
404.848;   82.425; -113.000; -202.000
404.976; -116.100; -856.000; -783.000
405.103;   -9.975;  -14.000;  -82.000
405.230;   -4.375;  190.000;  226.000
405.357;   23.525;  117.000;   44.000
405.484;  253.950;  -49.000;    5.000
405.612;   36.850; -548.000; -563.000
405.739;  -68.225; -488.000; -243.000
405.866;   84.525;  669.000;  385.000
405.993;  -48.200; -398.000; -102.000
406.120; -145.475; -801.000; -887.000
406.247;  -65.875; -323.000; -342.000
406.374;  426.050;  540.000;  629.000
406.501;   72.350; -632.000; -702.000
406.628;  -90.175; -621.000; -589.000
406.755; -106.100; -803.000; -620.000
406.882;  -31.950; -228.000; -277.000
407.009; -116.525; -719.000; -628.000
407.136;   48.000; -480.000; -401.000
407.263;  106.625; -939.000; -829.000
407.390;  -87.925; -692.000; -614.000
407.517; -188.400;-1139.000;-1187.000
407.644;  -52.050; -332.000; -256.000
407.771;  -75.525; -249.000; -287.000
407.898;   18.500;  168.000;  328.000
408.025;  -56.975; -421.000; -313.000
408.151;  -17.250;   82.000;  153.000
408.278;  -78.550; -267.000; -216.000
408.405; -111.550; -931.000; -899.000
408.532;  -72.825; -549.000; -542.000
408.659; -120.600; -677.000; -648.000
408.785; -217.175;-1298.000;-1170.000
408.912;  -65.575; -412.000; -296.000
409.039; -113.775; -610.000; -686.000
409.166; -105.875; -591.000; -555.000
409.292; -121.750; -571.000; -534.000
409.419; -130.475; -665.000; -649.000
409.546;  -95.925; -431.000; -192.000
409.672; -118.825; -713.000; -545.000
409.799;  -44.225;  -36.000;   34.000
409.926;  -33.425; -180.000; -179.000
410.052; -200.050;-1127.000;-1091.000
410.179;  -58.325; -368.000; -392.000
410.305; -102.225; -375.000; -493.000
410.432;  -62.700; -220.000; -333.000
410.558;  -98.225; -305.000; -380.000
410.685; -105.625; -688.000; -431.000
410.812; -106.700; -409.000; -588.000
410.938; -131.350; -964.000; -808.000
411.065; -120.825; -671.000; -645.000
411.191;  -32.000; -189.000; -174.000
411.317; -135.650; -823.000; -742.000
411.444;  -73.125; -317.000; -246.000
411.570;  -79.750; -339.000; -294.000
411.697; -126.325; -758.000; -752.000
411.823; -186.550; -989.000; -999.000
411.949;  -39.175;  -56.000;   17.000
412.076; -119.000; -539.000; -519.000
412.202; -118.125; -758.000; -757.000
412.329; -135.075; -798.000; -752.000
412.455; -110.750; -821.000; -657.000
412.581;  -23.825;  -15.000;  172.000
412.707;  -66.525; -540.000; -457.000
412.834;   -0.600;  156.000;  219.000
412.960;  -93.775; -785.000; -784.000
413.086; -118.775; -743.000; -701.000
413.212;  142.475;  604.000;  578.000
413.339;  -90.675; -685.000; -701.000
413.465;    2.125; -364.000; -310.000
413.591; -106.575; -757.000; -474.000
413.717;  -54.050; -358.000; -366.000
413.843; -147.425; -839.000; -861.000
413.969;  -55.225;  -47.000; -292.000
414.096; -117.425; -679.000; -679.000
414.222;   -6.375;  -33.000;   85.000
414.348;  -34.275; -652.000; -385.000
414.474;   73.900;   38.000;  -52.000
414.600;  -20.900; -126.000; -144.000
414.726;  -25.950;  -96.000;  -55.000
414.852;  -73.950; -365.000; -342.000
414.978;   25.150;  104.000;  -18.000
415.104;   23.925;   38.000;   80.000
415.230;   20.825; -329.000; -330.000
415.356;   28.325; -409.000; -514.000
415.482;  186.775;   13.000;  -35.000
415.608;  258.975; -247.000; -323.000
415.734;  972.475;   67.000;   38.000
415.860;20343.525; -875.000; -767.000
415.986;14026.700; -685.000; -607.000
416.111; 1168.275; -798.000; -652.000
416.237;  234.325; -424.000; -571.000
416.363; 1180.775; -765.000; -733.000
416.489; 4151.850; -324.000; -251.000
416.615;  400.525; -707.000; -742.000
416.741;  -18.825; -677.000; -784.000
416.866; -100.100; -673.000; -736.000
416.992; -130.275; -801.000; -818.000
417.118;  -34.475;  -41.000;  -80.000
417.244;  -58.200; -798.000; -531.000
417.369; -102.400; -801.000; -612.000
417.495;   -1.950; -325.000; -254.000
417.621; -117.325;-1015.000; -803.000
417.746;    2.925; -579.000; -572.000
417.872;   42.600; -254.000; -144.000
417.998;   64.250; -515.000; -530.000
418.123; 1087.100;-1073.000; -845.000
418.249; 5324.475; -512.000; -601.000
418.374;  701.925; -916.000; -824.000
418.500;  103.425; -383.000; -482.000
418.626;  106.375;   70.000;  -59.000
418.751;  113.700; -549.000; -448.000
418.877;  191.425; -637.000; -643.000
419.002; 1893.675; -688.000; -560.000
419.128;12669.000; -930.000; -721.000
419.253; 2894.600; -967.000; -837.000
419.379;  400.225; -391.000; -338.000
419.504;  399.475;  325.000;  415.000
419.629;  497.525; -393.000; -212.000
419.755; 3737.825; -317.000; -254.000
419.880;21297.725;  -98.000;   67.000
420.006;11583.025; -280.000; -221.000
420.131;29302.400; -662.000; -775.000
420.256; 4013.300; -315.000; -316.000
420.382;  511.300; -665.000; -687.000
420.507;   62.300; -649.000; -778.000
420.632;  119.275; -337.000; -339.000
420.758;  223.600; -251.000; -425.000
420.883;  -88.850; -876.000; -672.000
421.008; -102.500; -775.000; -619.000
421.133;  -82.950; -509.000; -467.000
421.259;  -51.950; -325.000; -259.000
421.384; -128.925; -834.000; -693.000
421.509;  -55.400;-1052.000; -862.000
421.634; 1083.275; -936.000; -820.000
421.759;  445.125; -359.000; -327.000
421.885;  -66.175; -717.000; -656.000
422.010;  -80.050; -673.000; -542.000
422.135; -170.775; -695.000; -727.000
422.260;   35.500;  340.000;  280.000
422.385;  -53.950;   12.000;  -98.000
422.510;    6.675;  151.000;  -26.000
422.635;    5.625;  -87.000;  -43.000
422.760;   70.075; -766.000; -791.000
422.885;   43.450;  -57.000;  -80.000
423.010;  -41.600; -112.000; -169.000
423.135; -103.550; -481.000; -561.000
423.260;   -7.825; -150.000; -245.000
423.385;   54.500;  476.000;  222.000
423.510;   23.275;   71.000;  -22.000
423.635;   70.125;  133.000;   45.000
423.760;   66.950;  383.000;  328.000
423.885;   44.775;  336.000;  391.000
424.010;    9.275;  -68.000;  -13.000
424.135;  -28.350;    5.000;  -33.000
424.259;  -97.875; -654.000; -457.000
424.384;  -78.450; -279.000; -272.000
424.509;  -30.925; -260.000; -186.000
424.634; -105.950; -761.000; -623.000
424.759;  -18.150; -688.000; -544.000
424.883;  -24.275; -506.000; -527.000
425.008;  166.950; -502.000; -410.000
425.133; 2007.875; -679.000; -653.000
425.258;  918.675; -517.000; -381.000
425.382; 1031.600; -867.000; -774.000
425.507; 2508.450; -487.000; -543.000
425.632;  392.350; -802.000; -663.000
425.756;  460.050; -256.000; -146.000
425.881; 6887.050; -831.000; -857.000
426.006;17708.750; -604.000; -355.000
426.130; 2617.725; -696.000; -508.000
426.255;  322.050; -611.000; -491.000
426.379;  152.225; -189.000; -577.000
426.504;  388.875;  660.000;  544.000
426.629; 4122.375; -519.000; -466.000
426.753; 2668.625;   64.000;  -46.000
426.878;  290.775; -252.000; -288.000
427.002;  145.525; -651.000; -668.000
427.127; 1638.650;  -35.000; -158.000
427.251;11504.000;  372.000;  401.000
427.375; 3109.150; -191.000; -173.000
427.500; 2215.375; -616.000; -610.000
427.624;  707.075; -234.000; -400.000
427.749;   88.775; -216.000; -225.000
427.873;  -39.400; -499.000; -412.000
427.997;  -39.725; -222.000; -230.000
428.122;   82.975;  795.000;  703.000
428.246;   60.350;  433.000;  434.000
428.371; -153.150; -869.000; -773.000
428.495; -104.225; -624.000; -646.000
428.619;  -47.375; -186.000; -117.000
428.743;    5.525;   65.000;  132.000
428.868;   15.350; -732.000; -643.000
428.992; 1367.175; -219.000; -326.000
429.116;  530.550; -329.000; -357.000
429.240;  258.025;  419.000;  426.000
429.365;  -34.300; -454.000; -574.000
429.489;  -56.975; -638.000; -647.000
429.613;    4.225; -236.000; -177.000
429.737;   32.375; -563.000; -432.000
429.861;  258.350; -247.000; -133.000
429.985; 5739.450; -425.000; -305.000
430.109; 6010.450; -770.000; -908.000
430.234;  655.800;   76.000;  -50.000
430.358;   59.400; -250.000; -160.000
430.482;  -67.950; -672.000; -564.000
430.606;  -69.700; -655.000; -375.000
430.730;    3.175; -437.000; -388.000
430.854;   96.525; -909.000; -835.000
430.978;  -78.025; -795.000; -764.000
431.102;  -92.750; -499.000; -422.000
431.226; -129.175; -874.000; -815.000
431.350;   20.550;  345.000;  422.000
431.474;  -79.700; -661.000; -373.000
431.597; -168.800;-1060.000; -848.000
431.721;  -83.775; -276.000; -267.000
431.845; -146.450; -704.000; -472.000
431.969;  -79.300; -304.000; -349.000
432.093; -104.900; -395.000; -317.000
432.217;  -15.600;   32.000;   82.000
432.341;  -97.225; -523.000; -518.000
432.464;    6.800;   96.000;   40.000
432.588;  171.350; -401.000; -329.000
432.712;   74.500;  -52.000;  -52.000
432.836;   33.250;  213.000;  263.000
432.959;  -10.175; -372.000; -311.000
433.083;   73.225;   11.000;    2.000
433.207;  381.225;  285.000;  930.000
433.330; 5217.275; -391.000; -200.000
433.454; 6153.650; -654.000; -638.000
433.578; 3539.600;  583.000;  278.000
433.701;  605.700; -623.000; -675.000
433.825;  123.000; -292.000; -299.000
433.949;  139.525;   28.000;  -72.000
434.072;   30.550; -410.000; -323.000
434.196;  -16.525; -309.000; -117.000
434.319; 3768.350;25482.000;25124.000
434.443;  752.800; -656.000; -603.000
434.566; 2671.125;  281.000;   62.000
434.690;  415.825; -637.000; -383.000
434.813;   20.350; -251.000; -173.000
434.937;  -89.675; -569.000; -696.000
435.060;  -55.050; -423.000; -332.000
435.184;  266.775; -492.000; -217.000
435.307;  130.225;  159.000;  102.000
435.431;  -11.150;  -40.000;   24.000
435.554;  -82.225; -399.000; -240.000
435.677;  -83.550; -350.000; -258.000
435.801;  -57.250;  -25.000;   49.000
435.924;  -22.600;    1.000;  -67.000
436.048; -131.675;-1019.000; -732.000
436.171;  -63.450; -240.000;  -66.000
436.294;  -27.800; -248.000; -229.000
436.417;   91.600; -963.000; -849.000
436.541; -105.775; -814.000; -840.000
436.664;  -54.000; -242.000; -316.000
436.787;  -40.975;   13.000;  113.000
436.910; -132.600; -792.000; -422.000
437.034;    1.600;  142.000;  143.000
437.157;   50.325;  -11.000;    0.000
437.280;  -61.825; -392.000; -292.000
437.403;  -89.950; -982.000; -869.000
437.526;  609.025; -903.000; -865.000
437.649; 2143.575; -505.000; -332.000
437.772;  272.600; -692.000; -540.000
437.896;  120.850;  700.000;  544.000
438.019; -112.575; -758.000; -503.000
438.142;  -99.225; -596.000; -506.000
438.265;  -34.325; -639.000; -670.000
438.388;  522.500; -520.000; -410.000
438.511;   65.975; -597.000; -394.000
438.634;  -53.800; -247.000; -125.000
438.757; -141.800; -693.000; -619.000
438.880;  -21.525;  -34.000;  -57.000
439.003;  -97.625; -417.000; -437.000
439.126;  -59.050; -287.000; -167.000
439.248;  -78.850;  -98.000; -139.000
439.371;  -45.575;    9.000;  -53.000
439.494;   21.600;  510.000;  439.000
439.617;  -56.000;   65.000;  -88.000
439.740; -183.425; -968.000; -816.000
439.863; -144.375; -755.000; -595.000
439.986; -136.850; -476.000; -431.000
440.108;  -39.425; -161.000; -112.000
440.231; -180.325; -950.000; -836.000
440.354;  -48.725;  -64.000; -150.000
440.477;    5.925; -566.000; -542.000
440.599;  -21.750; -200.000; -225.000
440.722; -123.575; -709.000; -586.000
440.845;   74.850;  751.000;  928.000
440.968; -112.950; -415.000; -311.000
441.090;  -67.300; -199.000;  -33.000
441.213; -178.625;-1021.000; -825.000
441.336;  -50.350; -159.000;   -5.000
441.458; -104.425; -549.000; -396.000
441.581;  -99.725; -628.000; -629.000
441.703;  -88.750; -152.000;   13.000
441.826; -110.575; -557.000; -400.000
441.948;  -64.200;   56.000;   51.000
442.071;   17.525;  555.000;  424.000
442.193; -120.925; -531.000; -485.000
442.316;   17.575;  152.000;   97.000
442.438;   39.125; -233.000;  -10.000
442.561;   71.050;  272.000;  262.000
442.683;  512.525; -809.000; -522.000
442.806; 1072.825;   -8.000;   74.000
442.928;   -4.475; -859.000; -604.000
443.051;  -71.350; -577.000; -373.000
443.173; -106.775; -341.000; -339.000
443.295; -104.550; -263.000; -371.000
443.418;  -80.575; -321.000;  -29.000
443.540;  -17.850; -106.000;   -4.000
443.662; -131.075; -563.000; -465.000
443.785;  -18.050;  335.000;  199.000
443.907; -117.600; -362.000; -208.000
444.029; -130.425; -767.000; -494.000
444.152; -146.400; -644.000; -554.000
444.274;  -42.675;  -18.000;  -24.000
444.396; -129.925; -461.000; -221.000
444.518; -138.725; -691.000; -454.000
444.640; -114.650; -268.000; -111.000
444.763;  -25.500;  388.000;  249.000
444.885; -124.825; -432.000; -392.000
445.007;  -33.550;   35.000;   86.000
445.129; -126.975; -610.000; -515.000
445.251; -103.300; -372.000; -439.000
445.373; -138.875; -537.000; -386.000
445.495;    1.225;  242.000;  350.000
445.617;   31.000;  853.000;  753.000
445.739;  -68.350; -215.000;  -97.000
445.861;  -48.475; -245.000; -112.000
445.984;  -28.900; -267.000; -101.000
446.105;  193.100; -418.000; -251.000
446.227;  581.600; -176.000;  -19.000
446.349;  -20.100; -358.000; -249.000
446.471; -103.500; -615.000; -448.000
446.593;  -81.625; -316.000;   19.000
446.715;  -10.675;  -67.000;   41.000
446.837;   67.525;  697.000;  832.000
446.959; -108.550; -457.000; -478.000
447.081; -145.875; -628.000; -518.000
447.203;   55.550;  862.000;  834.000
447.325; -102.150; -270.000;   42.000
447.446;   -3.150;  286.000;  530.000
447.568; -170.275; -921.000; -803.000
447.690;  -91.375; -236.000; -245.000
447.812; -167.300; -798.000; -519.000
447.933;  -26.850;  155.000;  127.000
448.055;  -93.200; -306.000; -261.000
448.177;  148.225;   31.000;   79.000
448.299;   53.375; -935.000; -727.000
448.420;   11.400;  -25.000;  159.000
448.542;  -61.575;   -3.000;   33.000
448.664;  -28.375;  109.000;  322.000
448.785;  -38.625;  265.000;   83.000
448.907;  -72.150; -614.000; -353.000
449.028;  -61.575; -771.000; -471.000
449.150;   55.275;  492.000;  589.000
449.272; -175.750;-1044.000; -913.000
449.393;   35.700;  612.000;  694.000
449.515; -152.900; -634.000; -581.000
449.636;  -63.550; -264.000; -155.000
449.758;   70.775;  763.000;  622.000
449.879;  -93.100; -498.000; -396.000
450.001;  -84.625; -149.000;  -49.000
450.122;  -28.300;  -95.000;  162.000
450.244;  -28.050;   37.000;  364.000
450.365;  -98.650; -495.000; -301.000
450.486;  -45.325;   80.000;  268.000
450.608;   17.200;  393.000;  326.000
450.729;   57.400;  578.000;  645.000
450.850;    3.250; -574.000; -466.000
450.972;  763.350; -552.000; -389.000
451.093; 5009.875;  190.000;  588.000
451.214; 2046.175; -516.000; -337.000
451.336;  386.775;  773.000;  579.000
451.457;   60.550;  264.000;  393.000
451.578;  -42.450; -118.000;  -74.000
451.699; -122.225; -546.000; -540.000
451.821;  -70.625; -284.000;  -50.000
451.942;  -15.175;  278.000;  285.000
452.063;   37.950;  228.000;  419.000
452.184;  568.200;  -54.000;  -49.000
452.305; 1068.375;  103.000;  170.000
452.427;  100.300; -549.000; -301.000
452.548;  -13.025;   23.000;   79.000
452.669;  -72.250; -257.000;  -89.000
452.790;  -38.000;    3.000;  -18.000
452.911;   -9.625;  195.000;  259.000
453.032;  -65.200; -289.000;  -60.000
453.153;  -54.000;  -29.000;   81.000
453.274;   41.025;  737.000;  868.000
453.395;  -71.325;  -51.000;  175.000
453.516;  128.550; 1317.000; 1388.000
453.637;  -81.875; -205.000; -150.000
453.758;  -57.850;   15.000;   69.000
453.879; -130.050; -462.000; -250.000
454.000;   92.150; 1086.000;  948.000
454.121; -123.150; -554.000; -326.000
454.242; -135.800; -599.000; -383.000
454.362;  -57.175;  -99.000;  114.000
454.483;  -54.200; -309.000; -229.000
454.604;   48.900;  512.000;  580.000
454.725; -121.100; -627.000; -555.000
454.846; -134.400; -474.000; -406.000
454.967;  -23.725;  230.000;  539.000
455.087;  -63.225;  179.000;  153.000
455.208;   10.050;  554.000;  856.000
455.329;  -73.000;  -22.000;   82.000
455.450;   55.825;  473.000;  633.000
455.570;  -96.125; -234.000; -211.000
455.691;  -45.075;  201.000;  407.000
455.812; -109.125; -270.000;  -92.000
455.932;  -77.075;  107.000;  -97.000
456.053; -103.650;   36.000;   24.000
456.173; -130.275; -433.000; -355.000
456.294; -153.425; -476.000; -303.000
456.415;  -71.700;  -73.000;   70.000
456.535;  -38.575;  297.000;  273.000
456.656;  -35.900;  132.000;  240.000
456.776;  -73.125;    3.000;  298.000
456.897;   -7.575;  308.000;  513.000
457.017;  -99.200; -153.000;   -3.000
457.138; -105.075; -402.000; -249.000
457.258;  -43.575;  263.000;  224.000
457.379;  -10.250;  509.000;  521.000
457.499;  -39.525;  443.000;  432.000
457.620; -123.950; -407.000; -231.000
457.740; -108.650; -132.000;  -11.000
457.860;  -65.725;   87.000;   44.000
457.981;  -53.950;  132.000;  124.000
458.101;  -80.575;  -89.000;   40.000
458.221;  -23.450;  336.000;  402.000
458.342;  -60.100;   -4.000;  -37.000
458.462;   10.875;  617.000;  352.000
458.582;  -38.825; -302.000; -294.000
458.703;    2.100;  303.000;  154.000
458.823;  -32.075;   22.000;  163.000
458.943;   18.925;  341.000;  467.000
459.063;  -27.575; 1124.000;  192.000
459.183;  -33.225;  328.000;  313.000
459.304;    6.850;  315.000;  517.000
459.424;  -77.700; -246.000;  -89.000
459.544;  331.575;  388.000;  764.000
459.664;  830.575;  499.000;  506.000
459.784;  310.075; 1004.000; 1175.000
459.904;   60.225;  867.000;  744.000
460.024;   63.675;  867.000;  684.000
460.144;   -7.325;  449.000;  554.000
460.264;   -3.050;  515.000;  327.000
460.385; -103.925; -145.000; -119.000
460.505;   42.425;  905.000;  858.000
460.625; -105.425;  -17.000;  -68.000
460.745;  -34.550;  396.000;  541.000
460.864;  -44.350;  153.000;  469.000
460.984;    8.825;  499.000;  573.000
461.104;  119.625; 1656.000; 1775.000
461.224;    9.200;  657.000;  650.000
461.344;  -41.225;  431.000;  360.000
461.464;  -42.575;  258.000;  513.000
461.584;  -13.975;  283.000;  466.000
461.704;  -58.450;   58.000;  108.000
461.824;  -73.775;  238.000;  259.000
461.943;  -47.650;  191.000;  130.000
462.063;  -85.400;    2.000;  324.000
462.183;   37.025;  639.000;  717.000
462.303;   94.550; 1678.000; 1230.000
462.422;   26.250;  781.000;  840.000
462.542;  -62.525;  271.000;  391.000
462.662;   39.425;  353.000;  380.000
462.782;  242.375;  833.000;  572.000
462.901;  498.850;  545.000;  717.000
463.021;  276.275; 1702.000; 1638.000
463.141;  -10.625;  337.000;  770.000
463.260;  -25.550;  614.000;  474.000
463.380;   15.700;  902.000;  884.000
463.499;  -51.400;  342.000;  332.000
463.619;  -27.675;  581.000;  559.000
463.738;  105.850; 1644.000;  903.000
463.858;   18.025;  657.000;  811.000
463.978;  -48.925;  542.000;  396.000
464.097;   57.225;  921.000; 1114.000
464.217;  109.250; 1196.000; 1143.000
464.336;  121.700; 1068.000; 1130.000
464.455;  -50.825;  328.000;  659.000
464.575;   32.700;  597.000;  602.000
464.694;  169.775; 1204.000; 1179.000
464.814;  125.125; 1190.000; 1138.000
464.933;   59.225; 1095.000; 1027.000
465.052;  101.325; 1412.000; 1054.000
465.172;   63.325;  922.000;  799.000
465.291;  128.100; 1376.000; 1320.000
465.410;   -2.600;  462.000;  735.000
465.530;   83.350; 1355.000; 1310.000
465.649;   54.625; 1209.000; 1273.000
465.768;  139.325; 1673.000; 1508.000
465.888;   22.625;  941.000; 1174.000
466.007;  110.250; 1335.000; 1440.000
466.126;  -28.950;  721.000;  641.000
466.245;   34.000; 1176.000; 1187.000
466.364;   16.375;  950.000; 1060.000
466.484;   51.500; 1024.000; 1213.000
466.603;   11.825; 1101.000; 1222.000
466.722;  116.800; 1490.000; 1769.000
466.841;   74.350; 1151.000; 1401.000
466.960;   39.900; 1069.000;  972.000
467.079;  138.675; 1971.000; 1786.000
467.198;   39.475; 1238.000; 1181.000
467.317;   74.150; 1768.000; 1162.000
467.436;   67.425; 1709.000; 1261.000
467.555;  117.800; 1796.000; 1746.000
467.674;   61.825; 1227.000; 1329.000
467.793;   37.675; 1376.000; 1374.000
467.912;   83.350; 1658.000; 1539.000
468.031;  120.950; 2038.000; 1930.000
468.150;  138.850; 1842.000; 1837.000
468.269;  172.150; 2313.000; 2090.000
468.388;  184.400; 2168.000; 2339.000
468.507;  252.550; 2884.000; 2903.000
468.626;  287.950; 2555.000; 2541.000
468.744;  115.150; 2018.000; 2174.000
468.863;  200.050; 2312.000; 2523.000
468.982;   63.050; 1503.000; 1555.000
469.101;  226.475; 2788.000; 2692.000
469.220;  146.750; 2333.000; 2176.000
469.338;  260.000; 2935.000; 3051.000
469.457;  189.725; 2719.000; 2545.000
469.576;  358.150; 3953.000; 3784.000
469.695;  227.800; 2877.000; 3066.000
469.813;  431.250; 4148.000; 4192.000
469.932;  407.525; 4255.000; 4485.000
470.051;  417.375; 4075.000; 4161.000
470.169;  848.250; 4470.000; 4338.000
470.288; 1471.200; 4700.000; 4809.000
470.406;  830.075; 5059.000; 5194.000
470.525;  622.675; 6101.000; 5787.000
470.644;  648.750; 6847.000; 6794.000
470.762;  808.850; 8397.000; 7873.000
470.881;  911.475; 8651.000; 8464.000
470.999; 1069.125; 9685.000; 9151.000
471.118; 1092.025;11174.000;10711.000

