
Integration time [ms]: 100.000
Averaging Nr. [scans]: 40
Smoothing Nr. [pixels]: 0
Data measured with spectrometer [name]: 2101012U2
Wave   ;Sample   ;Dark     ;Reference
[nm]   ;[counts] ;[counts] ;[counts] 

197.733;   53.250;  516.000;  404.000
197.879;  -79.250; -610.000; -634.000
198.025;  -53.475; -475.000; -420.000
198.171;  -72.225; -602.000; -612.000
198.317;  -37.950; -401.000; -316.000
198.463;  -70.125; -655.000; -404.000
198.609;   23.775;  181.000; -137.000
198.755;  -76.550; -644.000; -410.000
198.901;  -70.400; -505.000; -424.000
199.047;  -58.900; -615.000; -488.000
199.193;  -32.375; -230.000; -468.000
199.339;  -49.150; -222.000; -369.000
199.485;   39.250;  330.000;  271.000
199.631;   19.850;  227.000;  310.000
199.777;  -48.375; -466.000; -398.000
199.923;  -58.525; -610.000; -424.000
200.069;    0.200; -141.000;  -58.000
200.215;   61.350;  128.000;  453.000
200.361;   55.925;  243.000;  477.000
200.507;  -59.725; -600.000; -373.000
200.653;  -27.125; -371.000; -194.000
200.798;  -34.850; -215.000; -125.000
200.944;    4.450; -146.000;  -41.000
201.090;   41.000;   61.000;  222.000
201.236;   -0.300; -116.000; -158.000
201.382;  132.675;  874.000;  903.000
201.528;   16.450;  -58.000;  -48.000
201.674;  -51.650; -386.000; -293.000
201.819;  -69.600; -540.000; -439.000
201.965;  -84.600; -699.000; -447.000
202.111;  -30.525; -273.000; -226.000
202.257;  -25.625; -250.000; -238.000
202.402;   14.325;   13.000;  -36.000
202.548;  -25.500; -169.000; -116.000
202.694;   90.150;  410.000; -183.000
202.840;  -67.425; -603.000; -531.000
202.985;  -88.025; -681.000; -639.000
203.131; -112.625; -832.000; -666.000
203.277;  -36.050; -199.000; -262.000
203.423;  -46.125; -434.000; -520.000
203.568;  -37.450; -462.000; -237.000
203.714;  -53.675; -535.000; -542.000
203.860;  -89.625; -682.000; -641.000
204.005;   23.525;  112.000;  167.000
204.151;   78.425;  561.000;  556.000
204.296;  -42.975; -354.000; -221.000
204.442;  -70.850; -600.000; -547.000
204.588;  -74.525; -592.000; -579.000
204.733;   17.250;  178.000;  168.000
204.879; -118.700;-1018.000; -822.000
205.025;   10.775;  -99.000;  126.000
205.170;   -4.400;  -17.000;   94.000
205.316;   76.925;  438.000;  661.000
205.461;  -76.225; -698.000; -554.000
205.607;   90.825;  609.000;  665.000
205.752;  -75.775; -626.000; -551.000
205.898;  -58.625; -501.000; -391.000
206.043;  -55.950; -578.000; -506.000
206.189;  -40.325; -243.000; -285.000
206.334;   90.625;  554.000;  606.000
206.480;   86.675;  409.000;  239.000
206.625;  -80.450; -529.000; -552.000
206.771;  -52.425; -451.000; -373.000
206.916;  -36.475; -210.000; -537.000
207.062;  -76.950; -545.000; -591.000
207.207;  -65.575; -546.000; -443.000
207.353;   61.750;  185.000;  460.000
207.498;   13.300;  196.000;   85.000
207.643;  -56.825; -501.000; -370.000
207.789; -126.150;-1069.000; -910.000
207.934; -101.275; -665.000; -713.000
208.080;  -25.050; -154.000;   66.000
208.225;  -14.800;  -22.000;  -57.000
208.370;  -89.150; -727.000; -619.000
208.516;  -77.325; -741.000; -487.000
208.661;  -37.000; -127.000;  -69.000
208.806;  -27.775; -165.000; -171.000
208.952; -109.350;-1044.000; -731.000
209.097;   92.750;  378.000;  349.000
209.242;  -51.825; -307.000; -382.000
209.387;   58.050;  392.000;  350.000
209.533;  -44.100; -321.000; -350.000
209.678;   80.325;  472.000;  543.000
209.823;  -45.725; -408.000; -310.000
209.969;  -91.450; -860.000; -757.000
210.114; -105.450; -907.000; -719.000
210.259; -115.050; -939.000; -889.000
210.404;   -1.100; -171.000;  103.000
210.549;    3.925;  108.000;    3.000
210.695;  -14.750;   -3.000;  -95.000
210.840;   33.000;   94.000;   67.000
210.985;  -73.250; -484.000; -303.000
211.130;   74.025;  268.000;  406.000
211.275;   10.375;  207.000;  199.000
211.420;  -54.650; -300.000; -289.000
211.566;  -67.675; -536.000; -489.000
211.711;   17.825;  218.000;  157.000
211.856;  -73.100; -545.000; -519.000
212.001;    7.925;  151.000;   44.000
212.146;   21.275;  153.000;   49.000
212.291;  -25.650; -210.000; -186.000
212.436;  -23.600; -280.000;   -6.000
212.581;  -84.500; -685.000; -653.000
212.726;  -72.500; -487.000; -538.000
212.871;  -60.050; -552.000; -217.000
213.016; -148.925;-1172.000;-1029.000
213.161;   59.600;  406.000;  291.000
213.306;  -75.325; -435.000; -577.000
213.451;  -92.325; -778.000; -689.000
213.596;  -42.800; -455.000; -347.000
213.741;  -44.425; -448.000; -538.000
213.886;  -78.500; -498.000; -517.000
214.031;  -23.500; -294.000; -124.000
214.176;  -45.175; -408.000; -341.000
214.321;  -23.175; -296.000; -157.000
214.466;  -35.625; -163.000;  -43.000
214.611;  -16.750;  -61.000;  -10.000
214.756; -119.550; -948.000; -858.000
214.901;  -23.850; -388.000; -226.000
215.046; -129.250; -797.000; -825.000
215.191;    9.150;  128.000;   35.000
215.336;   -7.550; -157.000;  -19.000
215.480;  -65.700; -684.000; -505.000
215.625;  -20.925; -175.000;  -19.000
215.770;  -93.675; -757.000; -662.000
215.915;  -10.150;   -5.000;  -97.000
216.060;   -9.500; -113.000;  -21.000
216.205; -107.475; -731.000; -779.000
216.349;  -69.850; -470.000; -533.000
216.494; -137.675; -939.000; -867.000
216.639; -118.650; -823.000; -888.000
216.784;  -83.150; -577.000; -525.000
216.929;   43.150;  392.000;  281.000
217.073;  -11.775; -244.000;  -31.000
217.218;    0.600;   78.000;  -47.000
217.363;  -84.500; -656.000; -618.000
217.507;  -78.375; -623.000; -588.000
217.652; -120.975; -845.000; -874.000
217.797;  -92.775; -708.000; -659.000
217.942; -109.125; -856.000; -720.000
218.086;   58.225;  608.000;  539.000
218.231;  -15.000; -174.000;  -26.000
218.376;  -31.300; -337.000; -229.000
218.520;   14.900;  -41.000;   96.000
218.665;  -30.400; -338.000; -204.000
218.810;  -46.875; -275.000; -233.000
218.954;   14.325;  201.000;   35.000
219.099; -105.650; -713.000; -963.000
219.243;  -72.425; -589.000; -554.000
219.388;  -34.050; -264.000; -136.000
219.532;    6.850; -116.000; -116.000
219.677;  -79.475; -564.000; -521.000
219.822;    3.075;   33.000;   89.000
219.966;   13.500;   17.000;  -99.000
220.111;  -38.125; -328.000;  -40.000
220.255; -104.725; -797.000; -750.000
220.400;  -11.350; -180.000; -146.000
220.544;  -73.500; -516.000; -450.000
220.689;  -41.150; -422.000; -451.000
220.833;  -27.725; -123.000;  -58.000
220.978;  -55.225; -393.000; -563.000
221.122;   24.650;  319.000;  307.000
221.267; -116.050; -906.000; -837.000
221.411;  -70.025; -478.000; -394.000
221.555;  -12.425; -104.000;  -23.000
221.700;  -48.275; -329.000; -222.000
221.844;   30.400;  255.000;  272.000
221.989;  -56.525; -328.000; -311.000
222.133;  -51.875; -289.000; -307.000
222.277;  -14.350;    5.000;   78.000
222.422;   14.450;  227.000;  113.000
222.566;  -31.725; -381.000; -214.000
222.711;  -54.050; -414.000; -479.000
222.855;  -71.700; -643.000; -586.000
222.999;  -96.575; -642.000; -717.000
223.144;  -20.950; -195.000; -194.000
223.288;   49.050;  423.000;  251.000
223.432;   29.200;  184.000;  230.000
223.576;   14.250;  152.000;  -21.000
223.721;   48.325;  364.000;  273.000
223.865;  -65.525; -472.000; -475.000
224.009;  244.325; 1673.000; 1631.000
224.153;  -90.375; -660.000; -671.000
224.298;  -66.650; -531.000; -489.000
224.442;  -16.475;  -74.000;  -33.000
224.586;  -15.550; -169.000; -106.000
224.730; -101.175; -858.000; -670.000
224.875; -104.125; -739.000; -688.000
225.019;    3.825;  102.000;  188.000
225.163;   62.400;  208.000;  341.000
225.307;   17.700;   97.000;  -91.000
225.451;   52.900;  360.000;  481.000
225.595;   31.725;  264.000;  176.000
225.739;   -7.150; -170.000;  -94.000
225.884;    5.350;   86.000;    5.000
226.028; -103.250; -760.000; -626.000
226.172;  -29.700; -260.000; -273.000
226.316; -124.350; -941.000; -902.000
226.460;  -69.650; -645.000; -493.000
226.604;  -44.675; -406.000; -400.000
226.748;  -96.550; -836.000; -733.000
226.892;  -27.375; -227.000; -181.000
227.036;  -58.675; -537.000; -447.000
227.180;  -54.675; -551.000; -375.000
227.324;  -64.500; -561.000; -580.000
227.468; -109.925; -819.000; -717.000
227.612;   18.300;  242.000;  -28.000
227.756; -108.475; -845.000; -698.000
227.900;   53.125;  342.000;  441.000
228.044;  -51.550; -509.000; -290.000
228.188;   58.225;  448.000;  568.000
228.332;  -87.975; -546.000; -472.000
228.476;  -42.225; -223.000; -149.000
228.620;  -48.925; -210.000; -150.000
228.764;   69.475;  431.000;  349.000
228.908;  -16.100; -155.000;   30.000
229.052;  -61.150; -615.000; -528.000
229.195;  -14.425; -172.000;   13.000
229.339;  -18.300; -235.000; -305.000
229.483;  -24.350;    5.000; -162.000
229.627;  -16.700; -156.000;  139.000
229.771;  -46.675; -218.000; -294.000
229.915;   12.100;  230.000;   79.000
230.059;  -86.825; -648.000; -663.000
230.202;  -45.700; -370.000; -317.000
230.346;  -23.725; -107.000;  107.000
230.490;  -67.875; -489.000; -521.000
230.634;  -98.750; -736.000; -553.000
230.777;   81.425;  478.000;  509.000
230.921;  -57.575; -450.000; -359.000
231.065;  -42.150; -246.000; -286.000
231.209;    9.950;  261.000;  265.000
231.352;   11.050;   54.000;   40.000
231.496;   17.950;  568.000;  188.000
231.640;  -92.275; -693.000; -621.000
231.783;   71.100;  546.000;  525.000
231.927;  -45.850; -294.000; -365.000
232.071; -123.325; -962.000; -736.000
232.214; -113.975; -980.000; -764.000
232.358; -104.400; -683.000; -599.000
232.502;    5.450;  -19.000;    7.000
232.645; -145.100;-1090.000; -927.000
232.789;  -26.325; -257.000; -218.000
232.933;  -41.675; -407.000; -224.000
233.076; -109.850;-1038.000; -897.000
233.220; -120.075; -752.000; -777.000
233.363;  -80.125; -669.000; -477.000
233.507;   78.125;  371.000;  129.000
233.650;  -97.350; -764.000; -834.000
233.794;   51.100;  438.000;  461.000
233.938;  -63.400; -530.000; -362.000
234.081;  -29.250;  -93.000;   31.000
234.225;  -69.100; -631.000; -539.000
234.368; -101.075; -773.000; -723.000
234.512;  -34.625; -385.000; -299.000
234.655;  -81.650; -582.000; -555.000
234.798;  -69.175; -493.000; -466.000
234.942; -136.500; -884.000;-1002.000
235.085;  -63.250; -651.000; -443.000
235.229;  -80.650; -405.000; -410.000
235.372;  -42.075; -247.000; -191.000
235.516;  -48.350; -397.000; -321.000
235.659;   23.175;   92.000;  121.000
235.802;   -9.625;  -38.000;  -22.000
235.946;   27.125;  335.000;  215.000
236.089;   30.375;  126.000;  250.000
236.233;   38.300;  275.000;  298.000
236.376;  -56.850; -235.000; -378.000
236.519;  -42.350; -297.000; -319.000
236.663;  -28.725; -215.000; -117.000
236.806; -142.975;-1029.000; -999.000
236.949;   81.475;  543.000;  431.000
237.092;   48.775;  412.000;  391.000
237.236;  -80.600; -589.000; -502.000
237.379;   53.450;  352.000;  428.000
237.522; -119.925; -879.000; -768.000
237.666;  -25.025; -271.000;   18.000
237.809; -124.400; -851.000; -823.000
237.952;   41.400;  469.000;  271.000
238.095;  -67.025; -447.000; -442.000
238.238;   77.400;  688.000;  700.000
238.382;    6.375;  166.000;  103.000
238.525;  -80.325; -598.000; -511.000
238.668; -145.450;-1060.000; -985.000
238.811;  -95.325; -638.000; -643.000
238.954;  -65.250; -483.000; -334.000
239.097;   84.125;  617.000;  664.000
239.241;   14.800;  394.000;  326.000
239.384;  -29.925; -254.000; -214.000
239.527;  -58.775; -424.000; -224.000
239.670; -136.725; -994.000;-1091.000
239.813; -113.275; -696.000; -658.000
239.956;   69.575;  579.000;  473.000
240.099; -121.275; -778.000; -725.000
240.242;   57.250;  428.000;  432.000
240.385;   61.625;  466.000;  450.000
240.528;  -73.675; -706.000; -473.000
240.671;    9.050;  189.000;  134.000
240.814;  -48.825; -441.000; -158.000
240.957; -103.950; -767.000; -578.000
241.100;  -99.375; -779.000; -755.000
241.243; -134.750;-1234.000; -893.000
241.386;  -69.450; -508.000; -379.000
241.529; -104.175; -735.000; -547.000
241.672;  -61.000; -566.000; -495.000
241.815; -121.400; -832.000; -808.000
241.958;  -19.050; -125.000; -182.000
242.101;  -65.775; -545.000; -390.000
242.244;  -45.625; -270.000; -325.000
242.387;  -38.925; -304.000; -246.000
242.530;   52.475;  470.000;  134.000
242.673;  -51.350; -381.000; -309.000
242.815; -116.575; -925.000; -899.000
242.958;  -74.100; -482.000; -381.000
243.101;   13.200;  132.000;  187.000
243.244;  -79.400; -564.000; -521.000
243.387;  -54.575; -313.000; -316.000
243.530; -108.450; -657.000; -674.000
243.672;    8.200;   43.000;  -92.000
243.815;  -55.650; -355.000; -283.000
243.958;    0.350;   98.000;  -26.000
244.101;   -0.925;   59.000;  -16.000
244.243;  -18.525;  -47.000;  101.000
244.386; -114.675; -761.000; -630.000
244.529;  -22.500; -132.000; -139.000
244.672; -162.450;-1154.000; -951.000
244.814;  -99.500; -621.000; -794.000
244.957;  -61.950; -380.000; -304.000
245.100;  -60.375; -489.000; -489.000
245.242;  -60.225; -387.000; -374.000
245.385;   -1.925;  -59.000;  -39.000
245.528; -108.725; -871.000; -705.000
245.670;   77.250;  612.000;  634.000
245.813;  -98.475; -599.000; -547.000
245.956;  -27.300; -324.000; -275.000
246.098;  -77.675; -508.000; -650.000
246.241;   -7.250;  194.000;   48.000
246.383;  -17.025; -119.000;  -73.000
246.526;  -73.775; -454.000; -525.000
246.669; -120.050; -889.000; -780.000
246.811;   20.150;  172.000;   -1.000
246.954;  -74.775; -512.000; -426.000
247.096;   -9.550;  -84.000;   -6.000
247.239;  -66.975; -482.000; -445.000
247.381;  -69.175; -647.000; -488.000
247.524;   94.975;  645.000;  679.000
247.666;  -30.525;   58.000;   11.000
247.809; -112.125; -887.000; -691.000
247.951;  -23.225;  -75.000;  138.000
248.094;   34.000;  432.000;  308.000
248.236; -162.025;-1262.000;-1238.000
248.378;   -0.325; -356.000;  -81.000
248.521;  -20.275; -334.000; -337.000
248.663;  -23.300; -236.000; -267.000
248.806;  -30.325; -300.000; -266.000
248.948;  -85.000; -886.000; -763.000
249.090;  -45.525; -428.000; -398.000
249.233;  -49.825; -344.000; -381.000
249.375;  -79.225; -474.000; -451.000
249.518;  -22.025;  -83.000; -133.000
249.660;   -4.950; -103.000;    3.000
249.802; -180.100;-1303.000;-1189.000
249.945;  -78.075; -612.000; -540.000
250.087; -112.950; -834.000; -768.000
250.229;  -61.500; -362.000; -480.000
250.371;  -80.375; -494.000; -439.000
250.514;  -49.700; -310.000; -244.000
250.656;  -66.575;   69.000;  102.000
250.798; -112.250; -849.000; -800.000
250.940;  -58.700; -322.000; -322.000
251.083;  -35.050; -335.000; -111.000
251.225;   59.275;  338.000;  310.000
251.367;  -36.700; -274.000; -373.000
251.509;  -32.950; -265.000; -210.000
251.651;  -95.275; -731.000; -671.000
251.794;   33.425;  538.000;  632.000
251.936; -115.200; -821.000; -747.000
252.078;  -73.725; -540.000; -461.000
252.220;  -86.575; -645.000; -477.000
252.362;   95.700;  344.000;  462.000
252.504;  -72.925; -677.000; -584.000
252.646; -122.250; -875.000; -722.000
252.788;   -8.425;   14.000; -128.000
252.931;  -34.175; -257.000; -253.000
253.073;  -47.800; -376.000; -317.000
253.215;    7.850;  141.000;  122.000
253.357;  -17.100;   82.000; -153.000
253.499;  -56.050; -374.000; -234.000
253.641;  -88.350; -749.000; -594.000
253.783;  -91.625; -609.000; -527.000
253.925;  -89.075; -586.000; -591.000
254.067; -119.400; -744.000; -667.000
254.209;  -15.175; -391.000; -259.000
254.351; -142.325; -865.000; -883.000
254.493;  -73.050; -441.000; -417.000
254.635; -138.700; -936.000; -818.000
254.777;  -85.950; -752.000; -687.000
254.918;  -70.175; -512.000; -430.000
255.060;  -61.450; -551.000; -395.000
255.202;  -57.450; -473.000; -261.000
255.344;  -72.250; -658.000; -455.000
255.486;  -73.750; -471.000; -406.000
255.628; -115.250; -780.000; -781.000
255.770;  -87.025; -676.000; -536.000
255.912;  -72.275; -559.000; -468.000
256.053;  -86.450; -730.000; -508.000
256.195;  152.300; 1008.000;  903.000
256.337; -101.725; -861.000; -595.000
256.479;   51.925;  532.000;  416.000
256.621;  -41.950; -394.000; -212.000
256.762;  -97.350; -789.000; -742.000
256.904;   43.025;  485.000;  487.000
257.046;  -37.275; -381.000; -271.000
257.188;  -49.550; -351.000; -264.000
257.329;  -80.550; -525.000; -464.000
257.471; -116.600; -939.000; -807.000
257.613;  -63.300; -584.000; -498.000
257.755; -144.175;-1073.000; -982.000
257.896;   43.075;  286.000;  392.000
258.038;  -82.925; -403.000; -352.000
258.180;  -45.150; -354.000; -279.000
258.321;  -76.550; -581.000; -457.000
258.463;   -7.125;  -71.000;  133.000
258.605;  -89.000; -562.000; -570.000
258.746; -110.250; -886.000; -772.000
258.888; -153.575;-1026.000;-1020.000
259.029;   21.575;  121.000;   -8.000
259.171;  -85.600; -614.000; -550.000
259.313;  -17.125;  -49.000;  -47.000
259.454;  -82.350; -536.000; -414.000
259.596;  -81.875; -483.000; -390.000
259.737;  -85.350; -590.000; -474.000
259.879;   37.275;  217.000;  311.000
260.020;   82.800;  901.000;  636.000
260.162;  -32.625; -146.000; -253.000
260.303; -128.100; -768.000; -687.000
260.445;  -90.675; -609.000; -613.000
260.586;   15.325;  392.000;  157.000
260.728;  -45.950; -360.000; -248.000
260.869;  -65.725; -350.000; -343.000
261.011;   73.325;  706.000;  537.000
261.152;  -63.925; -479.000; -319.000
261.293;  -90.325; -576.000; -595.000
261.435;  -34.825; -219.000; -184.000
261.576;  -45.600; -455.000; -325.000
261.718;   54.150;  420.000;  470.000
261.859; -132.750; -940.000; -949.000
262.000; -134.200; -951.000;-1016.000
262.142;  -26.925;  -52.000;  -60.000
262.283; -111.300; -808.000; -691.000
262.424;  -80.100; -666.000; -625.000
262.566; -150.675;-1161.000; -983.000
262.707; -119.075; -840.000; -830.000
262.848; -114.675; -769.000; -726.000
262.990;  -37.725; -362.000; -345.000
263.131;   84.925;  650.000;  681.000
263.272;   -6.475;  -61.000;  -41.000
263.413;  -90.475; -589.000; -561.000
263.555;  -55.875; -669.000; -143.000
263.696;  -81.850; -550.000; -641.000
263.837;  -60.250; -449.000; -551.000
263.978;  -12.150;   -5.000;  -77.000
264.119;  -43.850; -283.000; -264.000
264.261; -113.975; -847.000; -630.000
264.402;    4.150;   33.000;   40.000
264.543;  -76.300; -509.000; -524.000
264.684;  -11.875;   61.000;  -50.000
264.825;  -76.125; -816.000; -538.000
264.966;    7.375;  -84.000;  -67.000
265.107; -122.100; -646.000; -670.000
265.248; -127.725; -825.000; -812.000
265.390;  -15.050;  152.000;   -9.000
265.531;  -19.000; -238.000; -107.000
265.672;  -80.750; -557.000; -630.000
265.813;   48.775;  563.000;  439.000
265.954; -155.925; -959.000; -940.000
266.095;   -7.800; -372.000; -322.000
266.236;  -97.650; -686.000; -548.000
266.377;  -57.200; -243.000; -297.000
266.518;  -82.550; -619.000; -547.000
266.659;   37.050;  170.000;  268.000
266.800;    5.975;   83.000;   85.000
266.941;  -71.575; -487.000; -478.000
267.082;   26.025;  354.000;   99.000
267.223;  -63.350; -344.000; -273.000
267.364; -112.975; -892.000; -686.000
267.504;  -29.700;    3.000;  135.000
267.645;    7.250;  160.000;   67.000
267.786;  -43.050; -147.000;  -86.000
267.927;  -89.775; -473.000; -379.000
268.068;  -16.625; -186.000;  -61.000
268.209;  -42.875; -175.000; -413.000
268.350;  -67.300; -388.000; -532.000
268.490;  -91.075; -648.000; -521.000
268.631;   22.850;  127.000;  225.000
268.772; -103.075; -874.000; -647.000
268.913;  -52.725; -328.000; -476.000
269.054;  -20.225; -117.000;   12.000
269.194;  -41.300; -418.000; -402.000
269.335; -156.375;-1137.000;-1074.000
269.476;  -10.425;   33.000;  -35.000
269.617;  -59.800; -347.000; -392.000
269.757;  -86.600; -713.000; -646.000
269.898; -102.575; -856.000; -613.000
270.039;  -67.175; -415.000; -405.000
270.180; -140.975; -952.000; -816.000
270.320;  -32.125; -190.000; -250.000
270.461;  -41.800; -277.000; -249.000
270.602;  -20.525; -186.000; -156.000
270.742; -120.350; -868.000; -943.000
270.883;  -55.175; -442.000; -390.000
271.023;  -62.775; -358.000; -357.000
271.164;  -82.475; -607.000; -528.000
271.305; -107.525; -666.000; -654.000
271.445; -105.775; -722.000; -683.000
271.586;  -88.100; -462.000; -283.000
271.726;  -52.425; -397.000; -322.000
271.867;  -64.325; -594.000; -534.000
272.008;  152.650; -473.000; -285.000
272.148;  115.125;  462.000;  468.000
272.289;    8.525; -113.000; -181.000
272.429;   12.400;   19.000;  185.000
272.570; -100.850; -633.000; -737.000
272.710; -112.800; -825.000; -775.000
272.851;  -29.525;  113.000; -130.000
272.991; -165.950;-1173.000;-1077.000
273.131;  -87.525; -419.000; -459.000
273.272; -115.025; -683.000; -723.000
273.412;   -7.300; -143.000;  -31.000
273.553;  -67.175; -488.000; -507.000
273.693;  131.400;  913.000;  858.000
273.834;  -96.075; -894.000; -692.000
273.974;  -84.075; -664.000; -615.000
274.114; -113.500; -772.000; -560.000
274.255;   83.875;  414.000;  373.000
274.395;   -5.300; -180.000; -125.000
274.535;   42.600;  199.000;  350.000
274.676;   23.525;  225.000;   94.000
274.816;   -1.350;  110.000;   34.000
274.956;  -86.950; -624.000; -690.000
275.097;  -73.050;-1014.000; -922.000
275.237; -123.450; -913.000; -803.000
275.377;  -93.300; -778.000; -689.000
275.517; -149.050; -878.000; -937.000
275.658;  -54.125; -590.000; -555.000
275.798;  -72.075; -606.000; -413.000
275.938;   17.375;  215.000;  323.000
276.078; -109.600; -626.000; -395.000
276.218;    4.625;   99.000;  104.000
276.359; -133.900;-1026.000;-1024.000
276.499;  -67.150; -605.000; -446.000
276.639;  -35.700; -305.000; -151.000
276.779;  -61.625; -475.000; -357.000
276.919; -102.925; -783.000; -624.000
277.059;  -14.750; -261.000; -212.000
277.199;  -55.800; -357.000; -259.000
277.340;   38.850;  287.000;  175.000
277.480; -111.875; -840.000; -693.000
277.620;   27.300;  192.000;   16.000
277.760; -195.000;-1533.000;-1294.000
277.900;   11.450;  113.000;   33.000
278.040;    3.250;  137.000;  159.000
278.180;   29.775;  270.000;  170.000
278.320;   -0.300;   21.000;   56.000
278.460;  -67.150; -443.000; -469.000
278.600;  -95.600; -708.000; -598.000
278.740;   47.125;  448.000;  224.000
278.880;  -78.725; -768.000; -791.000
279.020;  -12.175; -194.000; -144.000
279.160;  -95.375; -672.000; -595.000
279.300; -120.450; -926.000; -873.000
279.440; -106.075; -709.000; -622.000
279.579;  -25.750;-1014.000; -929.000
279.719;  -59.875; -410.000; -394.000
279.859;   63.425;   -4.000;   41.000
279.999;   17.375; -208.000;  101.000
280.139;  -20.300; -435.000; -387.000
280.279;  -73.075; -708.000; -745.000
280.419;  -18.425; -229.000; -147.000
280.559;  -26.725; -259.000; -180.000
280.698;  -79.400; -790.000; -639.000
280.838; -109.350; -778.000; -800.000
280.978; -114.975; -846.000; -790.000
281.118; -120.650; -811.000; -704.000
281.257;    1.775;   24.000;    6.000
281.397; -123.100;-1094.000; -960.000
281.537;  -95.250; -599.000; -712.000
281.677;  -19.925; -150.000; -101.000
281.816; -103.225; -700.000; -630.000
281.956;  -37.175; -193.000; -257.000
282.096;  -60.475; -539.000; -396.000
282.235; -100.900; -672.000; -638.000
282.375;  -36.725; -243.000;  -98.000
282.515; -105.300; -715.000; -707.000
282.654;   13.525;   29.000;  106.000
282.794;   27.225;  388.000;  244.000
282.934;  -55.200; -530.000; -491.000
283.073; -147.775;-1030.000; -857.000
283.213;  -72.125; -460.000; -467.000
283.353;  -39.100; -408.000; -349.000
283.492;  -41.750; -264.000; -296.000
283.632;  -56.375; -254.000; -168.000
283.771;  -98.125; -859.000; -730.000
283.911;  -60.625; -369.000; -260.000
284.050; -110.500; -794.000; -748.000
284.190; -161.650;-1229.000;-1096.000
284.329; -156.525;-1055.000; -964.000
284.469;  -83.475; -516.000; -591.000
284.608;  -62.850; -559.000; -598.000
284.748;  -89.700; -614.000; -570.000
284.887;  -18.225;  -87.000;  -20.000
285.027; -133.525; -844.000; -892.000
285.166;  -39.650; -192.000; -249.000
285.306;   -5.375; -116.000;  -33.000
285.445;  -39.150; -229.000; -343.000
285.584; -102.475; -630.000; -494.000
285.724;  -48.425; -282.000; -322.000
285.863; -110.450; -857.000; -507.000
286.002;  -51.150; -366.000; -276.000
286.142; -105.900; -715.000; -622.000
286.281;  -75.800; -525.000; -493.000
286.420;  -84.650; -554.000; -417.000
286.560;   92.275;  653.000;  623.000
286.699; -145.700; -958.000; -912.000
286.838;  -92.525; -590.000; -591.000
286.978;  -90.525; -533.000; -537.000
287.117; -135.925;-1085.000; -950.000
287.256;  -17.275; -228.000; -211.000
287.395;  -49.850; -197.000; -378.000
287.535;  -46.075; -370.000; -298.000
287.674;  -88.000; -509.000; -484.000
287.813;   44.825;  661.000;  533.000
287.952; -134.800;-1010.000; -871.000
288.091; -147.675;-1049.000; -915.000
288.231;    0.300;   13.000;   15.000
288.370; -173.200;-1217.000;-1200.000
288.509;  -95.725; -728.000; -645.000
288.648;  -90.325; -770.000; -548.000
288.787;  -26.100; -243.000;  -87.000
288.926;  -73.850; -454.000; -475.000
289.065;  112.025;  859.000;  672.000
289.204;  -72.575; -377.000; -217.000
289.344;  -86.000; -791.000; -690.000
289.483;   19.700;  416.000;  304.000
289.622;  -27.675; -291.000; -149.000
289.761;  -23.550; -309.000; -166.000
289.900; -108.225; -785.000; -626.000
290.039;  -13.600;  -12.000;  -95.000
290.178;  -53.425; -274.000; -180.000
290.317;  -99.350; -618.000; -479.000
290.456;  -70.125; -463.000; -451.000
290.595; -149.500; -961.000; -833.000
290.734; -145.875; -904.000; -891.000
290.873;  -69.575; -456.000; -420.000
291.011; -113.825; -833.000; -843.000
291.150; -117.075; -770.000; -682.000
291.289;  -18.525; -343.000; -110.000
291.428; -115.150; -599.000; -480.000
291.567;  -60.950; -370.000; -442.000
291.706;   -3.825;  109.000;  154.000
291.845; -106.250; -597.000; -505.000
291.984; -169.175;-1234.000;-1061.000
292.122;   56.150;  602.000;  582.000
292.261;   34.775;  620.000;  463.000
292.400;    6.200; -144.000;  211.000
292.539; -125.025; -959.000; -813.000
292.678;  -36.350; -325.000; -300.000
292.816; -166.950;-1136.000; -965.000
292.955;  -91.825; -844.000; -684.000
293.094;  -25.475; -173.000; -337.000
293.233;  -63.625; -556.000; -400.000
293.371;  -46.675; -225.000;  -84.000
293.510; -115.575; -866.000; -780.000
293.649; -129.075; -959.000; -924.000
293.787;  -87.275;-1083.000;-1012.000
293.926;  -17.650; -113.000;  -32.000
294.065;  -46.225; -379.000; -290.000
294.203;   39.200;  298.000;  406.000
294.342;   22.650;   74.000;  156.000
294.481; 5895.775;51180.000; -836.000
294.619;  -53.925; -425.000; -582.000
294.758; -152.200;-1230.000;-1137.000
294.896;   49.000; -125.000;    5.000
295.035; -137.175;-1040.000;-1006.000
295.174; -131.675;-1082.000; -954.000
295.312;  -53.775; -323.000; -203.000
295.451;  -21.325; -307.000; -428.000
295.589;  -62.825; -389.000; -518.000
295.728;   16.825; -292.000; -165.000
295.866;   -8.750;  -36.000;  -51.000
296.005;  -67.050; -584.000; -341.000
296.143;  -73.075; -558.000; -596.000
296.282; -111.475; -957.000; -881.000
296.420;  -90.950; -657.000; -557.000
296.559;  -92.600; -892.000; -633.000
296.697;  -18.900; -847.000; -665.000
296.835;   27.100;-1141.000;-1002.000
296.974;   26.975;  -23.000;   39.000
297.112;   -4.250; -443.000; -504.000
297.251;  -88.075; -815.000; -755.000
297.389;   56.500; -576.000; -438.000
297.527;   34.400; -145.000;  -83.000
297.666;  -64.225; -486.000; -438.000
297.804;  -62.650; -404.000; -264.000
297.942;   -2.675; -136.000; -161.000
298.081;    4.800; -183.000;   63.000
298.219;   48.325;  -17.000;  -19.000
298.357;   36.525; -144.000;  -71.000
298.495;    7.300; -810.000; -812.000
298.634;   62.400;  245.000;  219.000
298.772;   20.550; -220.000; -338.000
298.910;  -41.075; -309.000; -182.000
299.048;  -18.425; -130.000; -153.000
299.187;  -38.050; -350.000; -250.000
299.325;   11.375;   52.000;  122.000
299.463;   33.800; -389.000; -299.000
299.601;   72.725; -327.000; -271.000
299.739; -114.625; -908.000; -883.000
299.877;  -74.200; -791.000; -703.000
300.016;  -56.925;-1095.000; -935.000
300.154;  131.000;  -19.000; -161.000
300.292;   37.375; -428.000; -348.000
300.430;   13.775; -408.000; -291.000
300.568; -122.650; -940.000; -874.000
300.706;  -49.250; -366.000; -469.000
300.844; -100.750;-1108.000; -979.000
300.982;  104.925;  246.000;  282.000
301.120; -120.775; -965.000; -866.000
301.258;  -88.775; -812.000; -705.000
301.396;   39.950;  104.000;  -41.000
301.534;   54.400; -218.000; -293.000
301.672;  -31.625; -664.000; -521.000
301.810;   -6.625; -613.000; -545.000
301.948;   87.125;   53.000;  149.000
302.086;  527.825; -250.000;  -32.000
302.224;  820.500; -610.000; -585.000
302.362;    9.500; -558.000; -622.000
302.500;  -27.225; -923.000; -893.000
302.638;   80.625;  128.000;  245.000
302.776;   -4.500; -352.000; -408.000
302.913;   32.500;  447.000;  236.000
303.051;  -15.350;  -86.000;  -23.000
303.189;   47.725;   90.000;  118.000
303.327;  -50.675; -341.000; -256.000
303.465;  -96.150; -832.000; -588.000
303.603;  -89.150; -805.000; -604.000
303.740;   98.525;  417.000;  241.000
303.878;   -6.725; -800.000; -759.000
304.016;  -89.075; -915.000; -790.000
304.154; -132.575;-1123.000;-1152.000
304.291;  -44.975; -505.000; -554.000
304.429;   -1.825;  102.000;   74.000
304.567; -127.825; -908.000; -893.000
304.705;  -58.050; -408.000; -515.000
304.842;   65.425; -616.000; -540.000
304.980;   56.925;  215.000;   35.000
305.118;   12.700; -367.000; -365.000
305.255;  -75.325; -945.000; -927.000
305.393;   54.625;  178.000;  239.000
305.531; -122.950;-1173.000; -956.000
305.668;  -84.075; -663.000; -582.000
305.806;   90.000; -358.000; -439.000
305.943;   80.325; -629.000; -637.000
306.081;   39.375; -378.000; -267.000
306.219; -110.675; -863.000; -748.000
306.356;   -0.875;  158.000;   27.000
306.494;   99.350;  981.000;  761.000
306.631;   -5.675;  -11.000;  -55.000
306.769;   -1.750; -613.000; -485.000
306.906;  -29.325; -284.000; -258.000
307.044;  -62.975; -473.000; -488.000
307.181;  -68.250; -410.000; -332.000
307.319;    3.550;  112.000;   87.000
307.456; -174.150;-1191.000;-1153.000
307.594; -102.200; -980.000; -727.000
307.731;  -13.025; -371.000; -164.000
307.868;    2.550;  -15.000;   20.000
308.006; -136.750; -961.000; -847.000
308.143;  -62.900; -618.000; -330.000
308.281;  110.200;  -37.000; -254.000
308.418;  -42.250; -748.000; -640.000
308.555;  -77.800; -400.000; -250.000
308.693;  -69.050; -577.000; -573.000
308.830; -112.825; -712.000; -657.000
308.967;  -15.725; -215.000;  -95.000
309.105;  -52.100; -507.000; -396.000
309.242;   13.875; -468.000; -367.000
309.379;  198.000; -577.000; -655.000
309.517;  -80.975; -936.000; -948.000
309.654; -120.650; -910.000; -734.000
309.791;  -82.375; -662.000; -580.000
309.928; -112.075; -977.000; -914.000
310.065;  158.450;  819.000;  697.000
310.203;  -33.000; -825.000; -850.000
310.340;  -29.325; -465.000; -321.000
310.477;  -72.725; -412.000; -516.000
310.614;  -75.150; -383.000; -473.000
310.751;  -81.225; -427.000; -518.000
310.889;  -18.300;    1.000;   11.000
311.026; -166.450;-1161.000; -939.000
311.163;  -54.175; -386.000; -380.000
311.300;  -68.750; -512.000; -479.000
311.437;  -78.150; -658.000; -619.000
311.574; -166.700;-1226.000; -985.000
311.711;  -70.700; -595.000; -433.000
311.848;  -42.475; -380.000; -388.000
311.985;   10.175;  270.000;   93.000
312.122; -132.850; -932.000; -762.000
312.259; -140.450; -941.000; -994.000
312.396;  -86.825; -508.000; -551.000
312.533;  -98.325; -812.000; -790.000
312.670; -132.775;-1070.000; -898.000
312.807;  -42.125; -352.000; -367.000
312.944;  -93.750; -513.000; -611.000
313.081;  -42.800; -150.000; -415.000
313.218; -102.775;-1111.000; -867.000
313.355;   -3.350; -531.000; -449.000
313.492;  -13.275; -455.000; -292.000
313.629;  122.300;  815.000;  735.000
313.766; -173.450;-1176.000;-1008.000
313.902;  -22.775; -186.000;   21.000
314.039;  -59.950; -372.000; -289.000
314.176;   17.900;  286.000;  192.000
314.313;  -93.300; -569.000; -473.000
314.450;  -71.000; -788.000; -684.000
314.587;  -68.275; -468.000; -480.000
314.723;   -9.800;  -78.000;  130.000
314.860;   20.225;  318.000;  332.000
314.997;   33.925;  223.000;  142.000
315.134;  -57.150; -385.000; -368.000
315.270;  -34.325; -480.000; -496.000
315.407; -128.200;-1094.000; -967.000
315.544;  -47.025; -657.000; -538.000
315.681;  -80.325; -681.000; -565.000
315.817;   21.400; -133.000; -176.000
315.954;    5.825; -613.000; -392.000
316.091; -124.025;-1045.000;-1023.000
316.227;  -27.400;  -71.000; -179.000
316.364;  -17.250;   23.000;    6.000
316.500;  -47.175; -113.000; -300.000
316.637;  -43.825; -181.000; -302.000
316.774;  -88.700; -625.000; -358.000
316.910;  -91.300; -598.000; -629.000
317.047;  -70.750; -487.000; -351.000
317.183;  -59.000; -435.000; -566.000
317.320;  -11.725; -367.000; -321.000
317.456;  -83.550; -733.000; -805.000
317.593;  -93.075; -598.000; -641.000
317.729;   -0.950;  168.000;  -67.000
317.866; -195.925;-1434.000;-1285.000
318.002; -102.150; -708.000; -948.000
318.139;  -98.800; -883.000; -867.000
318.275; -114.900;-1003.000; -738.000
318.412;  -84.175; -517.000; -336.000
318.548;  -48.275; -751.000; -720.000
318.685; -103.450; -985.000; -888.000
318.821; -103.550; -762.000; -735.000
318.957;  -22.350;   34.000;  -23.000
319.094;   38.850;  297.000;  154.000
319.230;  -72.100; -756.000; -742.000
319.367;   91.375; -471.000; -520.000
319.503;   35.600; -538.000; -436.000
319.639;  -94.425; -877.000; -793.000
319.775;  -62.700; -750.000; -685.000
319.912;  -58.425; -424.000; -519.000
320.048;  -95.675;-1184.000;-1184.000
320.184;   83.350;   59.000;   70.000
320.321;  -62.125; -497.000; -467.000
320.457;   56.100;  475.000;  662.000
320.593;  -69.775; -375.000; -382.000
320.729; -102.025; -732.000; -734.000
320.866;  -88.275; -577.000; -635.000
321.002;  -88.075; -759.000; -809.000
321.138;  -19.750; -135.000; -211.000
321.274;   61.525; -148.000; -115.000
321.410;  -49.725; -585.000; -353.000
321.546;  -38.575;-1011.000; -911.000
321.683;   50.750;  400.000;  185.000
321.819;   -2.925;  -48.000; -117.000
321.955; -120.575; -743.000; -722.000
322.091;  -52.950; -585.000; -540.000
322.227;  -29.400; -382.000; -202.000
322.363;  -34.875; -320.000; -215.000
322.499;  -51.650; -343.000; -331.000
322.635;  134.575;  636.000;  443.000
322.771;   13.375; -139.000;   12.000
322.907;   69.475;  129.000;  327.000
323.043;  -24.550; -115.000; -206.000
323.179;  -45.700; -394.000; -363.000
323.315;   -7.400; -401.000; -371.000
323.451;   66.275; -328.000; -236.000
323.587;   41.575;  -60.000;  -77.000
323.723;   -4.250; -682.000; -601.000
323.859;  -17.775; -258.000;  -76.000
323.995;  -44.100; -467.000; -409.000
324.131; -129.275; -967.000; -892.000
324.267;  -46.450; -254.000; -276.000
324.402; -139.350; -960.000; -983.000
324.538;  -24.275; -279.000; -104.000
324.674;   13.125;  164.000;   77.000
324.810;   92.800;  226.000;  308.000
324.946;  -22.950; -810.000; -658.000
325.082;  -67.000; -568.000; -475.000
325.217;   -9.525;  -62.000;   16.000
325.353; -108.650; -764.000; -659.000
325.489;  -94.100; -540.000; -506.000
325.625;  -85.625; -579.000; -525.000
325.760;   59.750;  517.000;  376.000
325.896;  -24.125; -515.000; -702.000
326.032;  -58.325; -403.000; -352.000
326.168;  -72.225; -462.000; -369.000
326.303;  -58.625; -352.000; -461.000
326.439;  -35.375; -336.000; -276.000
326.575;   -9.075; -190.000;  -29.000
326.710;  -18.900; -156.000;  -30.000
326.846;  -28.750;  146.000;  103.000
326.982; -100.575; -530.000; -548.000
327.117;  -73.575; -481.000; -442.000
327.253;  -95.675; -745.000; -742.000
327.388; -186.450;-1137.000;-1153.000
327.524;  -82.300; -811.000; -578.000
327.659;  -19.875;  -58.000;  -22.000
327.795;  -34.300;   69.000;   45.000
327.931; -101.925; -723.000; -499.000
328.066;  -35.675; -417.000; -276.000
328.202;  -13.175;   12.000; -129.000
328.337;  104.450;  957.000;  713.000
328.473;   13.400;  -12.000;  -74.000
328.608;  -31.900; -256.000; -267.000
328.743;  -96.250; -799.000; -664.000
328.879;   10.925;  214.000;  114.000
329.014;  -31.000; -102.000; -122.000
329.150;  -92.375; -358.000; -483.000
329.285;  -85.450; -465.000; -466.000
329.421;  -60.000; -548.000; -246.000
329.556;  -36.050;  -36.000;   85.000
329.691;  -99.625; -633.000; -615.000
329.827;  -80.175; -626.000; -480.000
329.962;  -51.150;  131.000; -301.000
330.097;  -93.425; -673.000; -585.000
330.233;  -50.225; -410.000; -223.000
330.368; -124.825; -839.000; -628.000
330.503;  -16.525;    3.000;   98.000
330.638;    4.200;  -93.000; -125.000
330.774;  -80.250; -609.000; -530.000
330.909;  -51.275; -434.000; -244.000
331.044;  -91.900; -714.000; -708.000
331.179; -173.075;-1217.000;-1109.000
331.315;    6.375;   77.000;   20.000
331.450;   15.375;  157.000;  285.000
331.585; -109.875; -805.000; -706.000
331.720;  -98.800; -510.000; -460.000
331.855;  -12.775;  -35.000; -102.000
331.990;  253.650;   62.000;  138.000
332.126;  119.075; -110.000;   71.000
332.261;  -20.075; -379.000; -265.000
332.396;  -18.950; -135.000; -242.000
332.531; -101.325;-1074.000;-1031.000
332.666;   27.075; -519.000; -363.000
332.801; -110.425; -726.000; -807.000
332.936;  -32.600; -192.000; -122.000
333.071; -138.600; -870.000; -817.000
333.206;   15.600;  307.000;  379.000
333.341;   23.375;  344.000;  418.000
333.476;  -97.400; -627.000; -623.000
333.611;  -43.875; -251.000; -173.000
333.746;  -47.425; -381.000; -464.000
333.881; -115.050; -973.000; -935.000
334.016; -133.050; -936.000; -917.000
334.151; -130.625; -746.000; -702.000
334.286;   11.100;  152.000;  186.000
334.421;  -12.975; -125.000; -178.000
334.556;  -81.750; -611.000; -567.000
334.690;  -97.075; -631.000; -577.000
334.825;   46.250;  381.000;   83.000
334.960;  -53.425; -285.000; -413.000
335.095;    8.375;  135.000;  -91.000
335.230; -106.400; -722.000; -738.000
335.365; -157.600;-1084.000; -990.000
335.499; -147.200;-1108.000;-1037.000
335.634;   12.450;    9.000;  534.000
335.769; -104.625; -755.000; -720.000
335.904;  -79.875; -603.000; -561.000
336.038;  -69.875; -735.000; -657.000
336.173; -130.975;-1206.000;-1194.000
336.308;   12.375; -116.000; -189.000
336.443;   19.650; -544.000; -634.000
336.577;  -71.725; -936.000; -787.000
336.712;   34.300;   -4.000;  -12.000
336.847;  -53.200; -724.000; -607.000
336.981;   55.175; -272.000; -208.000
337.116;  264.050;  615.000;  501.000
337.250;  100.350; -434.000; -421.000
337.385;  263.775; -297.000; -208.000
337.520;   92.025; -632.000; -603.000
337.654;  -41.225; -215.000; -126.000
337.789; -131.875; -989.000; -933.000
337.923;  -29.725; -104.000; -205.000
338.058; -107.450; -673.000; -738.000
338.192;  -31.150; -611.000; -488.000
338.327;   -8.425;  -18.000; -155.000
338.461;  -67.625; -299.000; -469.000
338.596; -103.900; -780.000; -638.000
338.730; -106.925; -767.000; -803.000
338.865;  100.175;  -46.000; -140.000
338.999;  -44.275; -846.000; -702.000
339.134;  -32.400; -634.000; -536.000
339.268;   -4.000; -741.000; -603.000
339.403;  370.875; -740.000; -775.000
339.537;  127.350; -894.000; -820.000
339.671; -120.925; -829.000; -813.000
339.806;  -55.900; -556.000; -512.000
339.940;   16.700; -261.000; -235.000
340.074;  -93.150; -685.000; -510.000
340.209;  -54.200; -351.000; -230.000
340.343; -101.250; -517.000; -573.000
340.477;  143.775;  998.000; 1036.000
340.612;  -56.625;-1033.000; -900.000
340.746;  129.450; -199.000; -243.000
340.880;  -85.950; -924.000; -785.000
341.014;  -15.525;  -45.000; -154.000
341.149; -124.425; -756.000; -718.000
341.283; -109.050; -839.000; -754.000
341.417; -108.375;-1124.000; -938.000
341.551;   77.850; -768.000; -708.000
341.685;  -44.600; -633.000; -611.000
341.820;  -66.600; -562.000; -493.000
341.954;  -49.225; -218.000; -349.000
342.088; -152.825;-1102.000;-1019.000
342.222;   51.175;  565.000;  618.000
342.356;  -63.000; -395.000; -335.000
342.490; -101.850; -880.000; -841.000
342.624;  -53.225; -339.000; -242.000
342.758;  -20.875; -364.000; -312.000
342.892;  -82.700; -710.000; -585.000
343.026;  -40.325;  -58.000; -116.000
343.160;  -76.100; -426.000; -376.000
343.294;  -89.350; -474.000; -337.000
343.428;  -51.125; -488.000; -448.000
343.562;  -28.625; -172.000;  -23.000
343.696;  -36.500; -385.000; -314.000
343.830;  -35.575; -362.000; -356.000
343.964;    4.800; -231.000; -168.000
344.098;  782.975;  199.000;   70.000
344.232;  642.600; -266.000; -127.000
344.366;   80.800; -567.000; -453.000
344.500;   18.375; -665.000; -744.000
344.634;   21.250; -324.000; -164.000
344.768;  -26.375; -531.000; -341.000
344.902;   23.575;  278.000;  256.000
345.035;  -83.375; -556.000; -496.000
345.169; -132.425; -933.000; -656.000
345.303;  -59.875; -308.000; -482.000
345.437;  -91.475; -826.000; -717.000
345.571;  -70.250; -675.000; -594.000
345.704;  -78.325; -309.000; -532.000
345.838;  -18.300; -331.000; -284.000
345.972;  -58.550; -543.000; -495.000
346.106;  164.225; -179.000; -190.000
346.239;  395.300; -312.000; -243.000
346.373;  -19.050; -343.000; -302.000
346.507; -143.725; -950.000; -962.000
346.640;  104.200;  -30.000;   13.000
346.774;  -57.200; -650.000; -797.000
346.908;  -13.325; -138.000;  -11.000
347.041;  -99.675; -646.000; -593.000
347.175;    3.325;  259.000;   27.000
347.309;  -82.300; -698.000; -628.000
347.442; -113.250; -883.000; -732.000
347.576;  227.550;  670.000;  668.000
347.709;  152.925; -123.000;  -52.000
347.843; -110.800; -933.000; -825.000
347.976;   28.525;  235.000;  294.000
348.110; -185.600;-1268.000;-1186.000
348.243; -102.900; -679.000; -772.000
348.377;    4.850;  -26.000;   60.000
348.510;   39.475;  403.000;  540.000
348.644;  -48.800;  -37.000; -159.000
348.777;    6.025;  180.000;  191.000
348.911;  -54.150; -142.000; -112.000
349.044;  156.550;  471.000;  448.000
349.178;  104.250;-1069.000;-1006.000
349.311;  108.200;  141.000;  255.000
349.444;  -13.650; -927.000; -813.000
349.578;  -28.800; -347.000; -200.000
349.711; -109.150; -959.000; -862.000
349.845;  -11.350; -661.000; -591.000
349.978; -159.275;-1224.000;-1137.000
350.111;  -88.225; -546.000; -612.000
350.244;  -95.525; -596.000; -700.000
350.378;  -13.025; -392.000; -393.000
350.511;  -68.975; -393.000; -426.000
350.644; -108.525; -808.000; -806.000
350.778;   24.050;  168.000;  104.000
350.911;  -10.275;  134.000;  140.000
351.044;  -92.775; -685.000; -615.000
351.177;  -40.800; -321.000; -281.000
351.310;  -30.025;    3.000; -131.000
351.444;  -96.025; -888.000; -788.000
351.577;   86.450;  140.000;   90.000
351.710;   86.175;  593.000;  417.000
351.843;  -38.025; -165.000;  -77.000
351.976;  -11.300;  149.000;  -79.000
352.109; -109.325; -621.000; -612.000
352.242;  -39.300; -464.000; -419.000
352.376;  -72.250; -580.000; -636.000
352.509;  133.700; -437.000; -356.000
352.642;  -20.500; -654.000; -604.000
352.775;   43.600; -141.000;  -98.000
352.908; -119.075; -933.000; -904.000
353.041; -108.025; -814.000; -824.000
353.174;  -61.825; -551.000; -424.000
353.307; -100.050; -753.000; -764.000
353.440;   72.500;  541.000;  453.000
353.573; -130.100; -957.000;-1008.000
353.706;  -22.175; -384.000; -558.000
353.839;  -35.700; -264.000; -220.000
353.971; -103.150; -657.000; -512.000
354.104; -100.450; -896.000; -835.000
354.237;  -44.550; -627.000; -662.000
354.370;  -89.050; -846.000; -879.000
354.503; -180.300;-1231.000;-1308.000
354.636;  -41.800; -529.000; -348.000
354.769; -133.950; -937.000; -860.000
354.902;  -13.850; -230.000; -139.000
355.034;  -15.900; -164.000; -220.000
355.167;  -25.975; -262.000; -162.000
355.300; -111.200;-1061.000; -880.000
355.433;  970.725;  -71.000;  -14.000
355.565; 1530.300; -402.000; -384.000
355.698;  382.300; -356.000; -296.000
355.831;   -4.775; -882.000; -801.000
355.964;   62.675; -285.000; -170.000
356.096;  -94.575; -856.000; -843.000
356.229;  -17.575; -523.000; -530.000
356.362;  337.275; -373.000; -266.000
356.494;  605.225; -229.000; -162.000
356.627;  415.325;  269.000;  377.000
356.760;  657.650;  120.000;   53.000
356.892;  986.400; -286.000; -601.000
357.025;  548.075;  403.000;  389.000
357.157;  506.050; -167.000; -179.000
357.290;  713.200; -856.000; -713.000
357.423;  203.450; -667.000; -556.000
357.555;   94.500; -217.000; -228.000
357.688;   88.500; -483.000; -364.000
357.820;  398.100; -870.000; -877.000
357.953; 3332.150; -563.000; -589.000
358.085;  672.575; -632.000; -612.000
358.218;  861.500;-1131.000; -932.000
358.350;  164.875;  -58.000;  312.000
358.483; -141.025;-1300.000;-1187.000
358.615;  -64.450;-1182.000;-1078.000
358.747;  -89.100;-1187.000;-1058.000
358.880;  -13.425; -810.000; -744.000
359.012;  -18.025; -376.000; -202.000
359.145;  -40.950; -480.000; -511.000
359.277;   32.500; -962.000; -913.000
359.409; 2742.450;  536.000;  231.000
359.542;  689.200; -738.000; -688.000
359.674;   57.475;   46.000;   13.000
359.806;  -65.625; -565.000; -438.000
359.939;  -56.000; -617.000; -516.000
360.071;   -1.250; -583.000; -579.000
360.203;  -39.950; -411.000; -364.000
360.335;   37.375;  164.000;  -16.000
360.468;  170.200; -249.000; -307.000
360.600; 2247.550; -547.000; -454.000
360.732; 2899.200; -546.000; -423.000
360.864;  395.050;-1216.000;-1044.000
360.996;  228.675; -516.000; -554.000
361.129;   13.850; -389.000; -598.000
361.261;   18.325;  110.000; -113.000
361.393;  -32.800; -252.000; -214.000
361.525;   18.400;   94.000;  244.000
361.657;  -58.425; -821.000; -703.000
361.789;    2.250; -139.000; -155.000
361.921;  159.425; -642.000; -593.000
362.053;  213.800;  524.000;  541.000
362.185;   50.775;  288.000;   72.000
362.318;  -98.425; -709.000; -705.000
362.450;   94.750;  294.000;  444.000
362.582;   37.625; -913.000; -870.000
362.714;  -53.625; -353.000; -332.000
362.846;  -91.200; -606.000; -490.000
362.978; -152.125; -941.000; -811.000
363.109;   12.125; -161.000; -260.000
363.241;  353.175; -739.000; -749.000
363.373;  421.600; -649.000; -564.000
363.505;  675.200; -186.000;  -91.000
363.637;  165.675; -787.000; -601.000
363.769; -139.750;-1067.000;-1080.000
363.901;  -86.475; -596.000; -654.000
364.033; -123.500;-1103.000;-1062.000
364.165;  -11.325; -283.000; -283.000
364.296;   60.025; -316.000; -177.000
364.428;   65.750;-1344.000;-1220.000
364.560;  -81.100; -679.000; -661.000
364.692;  -67.050; -738.000; -835.000
364.824;  180.075; -588.000; -456.000
364.955;  422.425; -402.000; -564.000
365.087;  995.575;-1097.000; -852.000
365.219;   27.750; -686.000; -816.000
365.351;  -70.150; -526.000; -572.000
365.482;   47.000;  300.000;  240.000
365.614;  -55.650; -402.000; -314.000
365.746; -103.150; -729.000; -752.000
365.877;  -97.000; -706.000; -672.000
366.009;  271.600;  -35.000;  -62.000
366.141;  -78.025;-1249.000;-1134.000
366.272; -114.525; -803.000; -719.000
366.404; -131.925;-1005.000; -874.000
366.535;  -10.900; -139.000;  -12.000
366.667; -111.600; -644.000; -649.000
366.799;   27.825;  353.000;  203.000
366.930; -132.075; -862.000; -996.000
367.062;  107.425; -639.000; -613.000
367.193;  150.650; -872.000; -842.000
367.325;  -60.500; -580.000; -684.000
367.456;   30.025; -246.000;   31.000
367.588;  149.675; -371.000; -318.000
367.719;   22.675;  -44.000;  -45.000
367.851;  -35.875; -222.000; -241.000
367.982;  -67.775; -875.000; -732.000
368.113;   79.175; -475.000; -358.000
368.245; -132.875; -960.000; -841.000
368.376;  -27.275; -254.000; -302.000
368.508;  -27.150; -188.000; -263.000
368.639; -150.600;-1166.000;-1034.000
368.770;  -26.900; -670.000; -589.000
368.902;  -77.800; -836.000; -926.000
369.033; -106.325; -906.000; -855.000
369.164;  -59.975; -720.000; -653.000
369.296;  -99.975; -452.000; -601.000
369.427;   -9.775; -209.000; -144.000
369.558;  -57.375; -593.000; -377.000
369.689; -100.350; -721.000; -569.000
369.821; -127.175; -951.000; -845.000
369.952;  -26.325;   42.000; -108.000
370.083;  -66.125; -229.000; -108.000
370.214;  -94.425; -735.000; -650.000
370.345;  -21.750;   65.000;   81.000
370.477; -105.625; -810.000; -790.000
370.608;  175.975; -328.000; -264.000
370.739;  -81.000;-1233.000;-1292.000
370.870;  -64.800;-1102.000; -923.000
371.001;   58.350; -378.000; -467.000
371.132;  -70.300; -754.000; -735.000
371.263;  -28.300;  -42.000; -148.000
371.394; -130.675; -841.000; -748.000
371.525;   22.225;  345.000;  225.000
371.657;  -91.475; -808.000; -670.000
371.788;   49.650;  103.000;  199.000
371.919;  121.175; -384.000; -304.000
372.050; 3149.725;  -91.000; -156.000
372.181;  931.425; -188.000; -294.000
372.311;  308.250;   42.000; -127.000
372.442;   22.100; -457.000; -451.000
372.573;  -21.125; -444.000; -340.000
372.704; -128.750;-1008.000; -980.000
372.835;   47.250; -228.000; -289.000
372.966;  -90.725; -646.000; -554.000
373.097;  -75.650; -575.000; -711.000
373.228;  -52.425; -717.000; -542.000
373.359;   83.200; -824.000; -536.000
373.490;  762.500; -881.000; -727.000
373.620;  940.500;-1001.000; -803.000
373.751; 1512.025; -332.000; -396.000
373.882;  645.125; -663.000; -733.000
374.013;   30.100; -449.000; -262.000
374.143;  -49.550; -581.000; -659.000
374.274; -113.175; -987.000; -908.000
374.405;  130.125; -388.000; -276.000
374.536;  355.175; -526.000; -387.000
374.666;  925.375; -759.000; -807.000
374.797;  149.700; -817.000; -868.000
374.928;  681.700; -710.000; -560.000
375.058;  727.275; -535.000; -500.000
375.189;   47.325;  -59.000;  -93.000
375.320; -121.175; -928.000;-1034.000
375.450;  -53.000; -625.000; -616.000
375.581;  -60.500; -526.000; -436.000
375.712;  -41.550; -574.000; -250.000
375.842;  241.800; -438.000; -415.000
375.973;  155.100; -554.000; -513.000
376.103;  -64.975; -665.000; -648.000
376.234;  -92.525; -531.000; -552.000
376.364;  -56.550; -944.000; -867.000
376.495;  287.575;  925.000;  529.000
376.625;  -41.025; -472.000; -485.000
376.756;   33.325; -709.000; -678.000
376.886;  -98.650;-1178.000;-1026.000
377.017;   62.875;-1048.000;-1061.000
377.147;  355.100; -786.000; -782.000
377.278;   39.625;  174.000;  228.000
377.408; -132.725; -801.000; -815.000
377.538; -106.650; -707.000; -693.000
377.669;  -79.625; -537.000; -613.000
377.799; -105.375; -645.000; -635.000
377.929;  -76.150; -610.000; -428.000
378.060; -132.675; -781.000; -847.000
378.190;  -61.025; -726.000; -531.000
378.320;  -59.525; -401.000; -406.000
378.451;  -20.325; -131.000;  -22.000
378.581;  -23.075;  -67.000; -110.000
378.711;  126.250; 1035.000;  866.000
378.841;  -36.250; -533.000; -675.000
378.972;  -92.375; -871.000; -751.000
379.102;  -34.225; -652.000; -579.000
379.232;  -38.300; -126.000;  -73.000
379.362; -123.700;-1001.000; -885.000
379.492;   -5.500; -373.000; -424.000
379.623;   80.925;    0.000;  111.000
379.753; -118.825;-1107.000; -974.000
379.883;  170.700;   59.000;  156.000
380.013;  -24.175;-1081.000;-1017.000
380.143; -115.125;-1097.000;-1056.000
380.273; -123.300; -985.000; -861.000
380.403;  -14.700; -344.000; -257.000
380.533;  -51.050; -651.000; -664.000
380.663;   47.850;  173.000;  128.000
380.793; -116.150;-1027.000;-1074.000
380.923;  -30.800; -103.000;  -34.000
381.053;  -92.450; -613.000; -623.000
381.183;  -42.575; -106.000; -248.000
381.313;   -2.500; -656.000; -470.000
381.443;    0.900; -692.000; -473.000
381.573;  135.225; -402.000; -409.000
381.703;  191.775;-1249.000;-1095.000
381.833; -150.550;-1454.000;-1336.000
381.963;   90.475; -134.000;  -87.000
382.093; 1238.350; -925.000; -909.000
382.223;  339.675; -713.000; -602.000
382.353;  -42.075; -801.000; -608.000
382.482;  298.875;-1091.000; -964.000
382.612;  638.975; -872.000; -644.000
382.742;  351.200; -695.000; -622.000
382.872;  192.300; -565.000; -551.000
383.002;   52.050;  347.000; -132.000
383.131;  -25.400; -226.000; -160.000
383.261;  -42.125; -706.000; -768.000
383.391;  278.325; -552.000; -377.000
383.521; 3388.150;  451.000;  263.000
383.650;  790.950; -947.000; -904.000
383.780;  -20.050; -783.000; -656.000
383.910;  114.250;  880.000;  802.000
384.039;   -4.025; -794.000; -656.000
384.169;  131.650;-1205.000;-1017.000
384.299;  -40.600; -650.000; -662.000
384.428;  -99.000; -764.000; -680.000
384.558;  -67.525; -308.000; -275.000
384.687;  -62.600; -414.000; -334.000
384.817;    2.200;   75.000;   -2.000
384.947;   -5.275; -234.000; -141.000
385.076;  234.375;  982.000;  912.000
385.206;   83.200;  369.000;  480.000
385.335;  -49.275; -549.000; -417.000
385.465;  -86.450; -655.000; -663.000
385.594;   91.625;  -53.000;  -44.000
385.724;  336.225; -868.000; -838.000
385.853;   90.925; -296.000; -270.000
385.982; 1149.650; -743.000; -787.000
386.112; 1784.425;-1052.000; -871.000
386.241;  113.475; -307.000; -312.000
386.371;    0.900; -174.000;  -87.000
386.500;  -34.975; -825.000; -789.000
386.629;    6.725; -874.000; -817.000
386.759;   48.700;  -43.000;   68.000
386.888;  -32.825; -170.000; -250.000
387.017;  -86.750; -648.000; -620.000
387.147;  -93.050; -771.000; -798.000
387.276;  -29.575; -410.000; -397.000
387.405;  -12.825; -398.000; -342.000
387.535;  -68.050; -452.000; -361.000
387.664;  -74.400; -692.000; -620.000
387.793;   36.400; -198.000; -113.000
387.922;  434.025;  255.000;  200.000
388.052;    5.350; -576.000; -423.000
388.181;  -14.000; -342.000; -472.000
388.310;  -40.875; -889.000; -710.000
388.439;  -74.825; -749.000; -742.000
388.568;  136.800;  365.000;  244.000
388.697;  848.975; -756.000; -653.000
388.826;  148.625; -768.000; -666.000
388.956;   22.450; -285.000; -307.000
389.085;  -48.800; -347.000; -287.000
389.214; -115.550; -842.000; -872.000
389.343;  -70.550; -645.000; -413.000
389.472;  396.050;  126.000;  149.000
389.601;  500.150;   91.000;    0.000
389.730;   -7.550; -568.000; -687.000
389.859;   49.425;  226.000;   46.000
389.988;  147.250; -423.000; -408.000
390.117;   95.700; -168.000; -146.000
390.246;  -22.875; -331.000; -320.000
390.375;   56.450; -673.000; -626.000
390.504;  -65.725; -703.000; -621.000
390.633; -104.825; -672.000; -726.000
390.761;  -77.875; -732.000; -645.000
390.890;   -3.850;   -4.000; -130.000
391.019;  -55.800; -421.000; -441.000
391.148; -127.250; -826.000; -855.000
391.277;  -80.525; -576.000; -493.000
391.406;  -95.500; -821.000; -805.000
391.534;   12.500;  574.000; -301.000
391.663;  -72.250; -583.000; -645.000
391.792;  -96.900; -673.000; -701.000
391.921;   56.225;   -3.000;   15.000
392.050;  129.425; -287.000; -228.000
392.178;  -76.550;-1206.000;-1061.000
392.307;   91.250; -758.000; -712.000
392.436;   32.000; -427.000; -641.000
392.564;    2.750;  166.000;   -6.000
392.693; -102.975; -860.000; -682.000
392.822;  151.450; -529.000; -534.000
392.950;   38.450; -880.000; -714.000
393.079;  251.750; -188.000; -328.000
393.208;   -2.500; -488.000; -511.000
393.336;  -35.575; -170.000; -145.000
393.465;  -51.350; -317.000; -199.000
393.593;  -11.875;   62.000;   79.000
393.722; -167.925;-1121.000; -916.000
393.850;  -40.875; -188.000;  -61.000
393.979; -147.625; -926.000; -805.000
394.107;  -60.625; -517.000; -537.000
394.236;  -48.400; -570.000; -507.000
394.364;  165.750;  383.000;  206.000
394.493;  215.825; -911.000; -767.000
394.621;  -35.150; -955.000; -916.000
394.750;  734.725; -873.000; -923.000
394.878; 3020.775; -247.000; -149.000
395.007; 4121.200; -721.000; -807.000
395.135;  315.575; -790.000; -721.000
395.263;  -88.125;-1038.000;-1040.000
395.392;  -11.850;  -25.000; -107.000
395.520; -147.625; -818.000; -679.000
395.648; -105.250; -865.000; -915.000
395.777;  -41.450; -366.000; -405.000
395.905;  -57.075; -449.000; -564.000
396.033;    0.550;  217.000;  172.000
396.162;  407.775; -399.000; -453.000
396.290;  374.150;  -17.000;   -2.000
396.418;   59.575; -555.000; -514.000
396.546;  -99.100; -571.000; -466.000
396.674; -106.775; -850.000; -878.000
396.803;    9.150;  -72.000;  -23.000
396.931;   46.600; -179.000; -199.000
397.059;   11.325;-1026.000; -989.000
397.187; -135.925;-1026.000; -975.000
397.315; -143.750; -884.000; -649.000
397.443; -111.500; -592.000; -443.000
397.572; -107.475; -578.000; -424.000
397.700;  -40.050; -607.000; -614.000
397.828;   -5.800;  120.000;  -90.000
397.956;  -49.050; -508.000; -478.000
398.084;  -68.100; -767.000; -626.000
398.212;   12.850;  137.000;  124.000
398.340;   -7.100;  -56.000;  159.000
398.468;    8.775; -390.000; -169.000
398.596; -144.700; -993.000; -953.000
398.724; -126.900; -762.000; -767.000
398.852; -167.100;-1024.000; -976.000
398.980;  -76.875; -560.000; -560.000
399.108;  -57.725; -982.000; -735.000
399.236;   23.225;   13.000;    8.000
399.363;   -4.075;  222.000;  196.000
399.491;  -71.825; -404.000; -398.000
399.619; -140.375; -829.000; -800.000
399.747; -107.150; -859.000; -771.000
399.875;   63.300;  220.000;  234.000
400.003;  -62.975; -359.000; -284.000
400.130;  -97.700; -421.000; -341.000
400.258;  -30.275;  -83.000;   38.000
400.386;  -69.250; -352.000; -168.000
400.514;  -61.550; -526.000; -587.000
400.641; -109.300; -928.000; -802.000
400.769; -155.925; -979.000; -888.000
400.897; -120.900; -838.000; -793.000
401.025;  -34.800; -166.000; -152.000
401.152;   -1.750;  220.000;   38.000
401.280;  -90.475; -430.000; -429.000
401.408; -123.650; -712.000; -576.000
401.535; -117.700; -735.000; -758.000
401.663; -188.825;-1134.000;-1054.000
401.790;  -89.525; -514.000; -525.000
401.918;   29.525;  436.000;  405.000
402.046;  -18.725;  134.000;  122.000
402.173;  -47.950;  -18.000;    7.000
402.301;  -80.450; -519.000; -397.000
402.428;   39.750;  528.000;  383.000
402.556; -150.675;-1188.000; -913.000
402.683;  -36.675;  -20.000;   -1.000
402.811;  -34.150;  -37.000; -206.000
402.938;   -3.700;   20.000;   27.000
403.066;  143.825; -574.000; -558.000
403.193;  276.675;  299.000;  239.000
403.321;  206.900; -396.000; -574.000
403.448;  290.825;   83.000;   27.000
403.575;  114.275;  -90.000;  -46.000
403.703; -105.950; -732.000; -557.000
403.830;  -80.250; -531.000; -496.000
403.957; -145.275;-1117.000;-1023.000
404.085;    3.725;  -61.000; -172.000
404.212;   78.550;  -50.000;   63.000
404.339;  271.750; -566.000; -306.000
404.467; 6001.450; -612.000; -524.000
404.594; 3780.025; -287.000; -227.000
404.721;  824.525; -869.000; -764.000
404.848;   77.400; -113.000; -202.000
404.976;  -91.875; -856.000; -783.000
405.103;   -7.425;  -14.000;  -82.000
405.230;  -16.575;  190.000;  226.000
405.357;    7.425;  117.000;   44.000
405.484;  279.325;  -49.000;    5.000
405.612;   36.600; -548.000; -563.000
405.739;  -56.425; -488.000; -243.000
405.866;   68.000;  669.000;  385.000
405.993;  -53.025; -398.000; -102.000
406.120; -149.700; -801.000; -887.000
406.247;  -70.450; -323.000; -342.000
406.374;  341.750;  540.000;  629.000
406.501;   53.900; -632.000; -702.000
406.628;  -81.625; -621.000; -589.000
406.755; -105.250; -803.000; -620.000
406.882;  -45.375; -228.000; -277.000
407.009; -115.700; -719.000; -628.000
407.136;   22.775; -480.000; -401.000
407.263;   61.575; -939.000; -829.000
407.390;  -90.125; -692.000; -614.000
407.517; -174.525;-1139.000;-1187.000
407.644;  -65.800; -332.000; -256.000
407.771;  -75.450; -249.000; -287.000
407.898;   -0.700;  168.000;  328.000
408.025;  -77.725; -421.000; -313.000
408.151;  -19.550;   82.000;  153.000
408.278;  -78.050; -267.000; -216.000
408.405; -125.825; -931.000; -899.000
408.532;  -77.450; -549.000; -542.000
408.659; -116.225; -677.000; -648.000
408.785; -202.725;-1298.000;-1170.000
408.912;  -69.675; -412.000; -296.000
409.039; -112.100; -610.000; -686.000
409.166; -121.075; -591.000; -555.000
409.292; -112.750; -571.000; -534.000
409.419; -137.275; -665.000; -649.000
409.546;  -86.500; -431.000; -192.000
409.672; -115.825; -713.000; -545.000
409.799;  -37.325;  -36.000;   34.000
409.926;  -47.175; -180.000; -179.000
410.052; -191.400;-1127.000;-1091.000
410.179;  -65.825; -368.000; -392.000
410.305;  -92.300; -375.000; -493.000
410.432;  -64.575; -220.000; -333.000
410.558;  -94.675; -305.000; -380.000
410.685; -126.475; -688.000; -431.000
410.812; -101.075; -409.000; -588.000
410.938; -137.250; -964.000; -808.000
411.065; -118.200; -671.000; -645.000
411.191;  -26.750; -189.000; -174.000
411.317; -117.250; -823.000; -742.000
411.444;  -79.975; -317.000; -246.000
411.570;  -87.650; -339.000; -294.000
411.697; -135.325; -758.000; -752.000
411.823; -185.875; -989.000; -999.000
411.949;  -40.400;  -56.000;   17.000
412.076; -129.725; -539.000; -519.000
412.202; -128.675; -758.000; -757.000
412.329; -131.925; -798.000; -752.000
412.455; -121.475; -821.000; -657.000
412.581;  -24.200;  -15.000;  172.000
412.707;  -76.275; -540.000; -457.000
412.834;    4.975;  156.000;  219.000
412.960;  -97.700; -785.000; -784.000
413.086; -116.475; -743.000; -701.000
413.212;  125.275;  604.000;  578.000
413.339;  -93.800; -685.000; -701.000
413.465;  -19.375; -364.000; -310.000
413.591;  -95.800; -757.000; -474.000
413.717;  -62.725; -358.000; -366.000
413.843; -153.625; -839.000; -861.000
413.969;  -61.225;  -47.000; -292.000
414.096; -118.800; -679.000; -679.000
414.222;  -17.475;  -33.000;   85.000
414.348;  -58.400; -652.000; -385.000
414.474;   61.675;   38.000;  -52.000
414.600;  -36.350; -126.000; -144.000
414.726;  -16.850;  -96.000;  -55.000
414.852;  -78.150; -365.000; -342.000
414.978;   23.150;  104.000;  -18.000
415.104;   27.425;   38.000;   80.000
415.230;   21.050; -329.000; -330.000
415.356;   28.125; -409.000; -514.000
415.482;  187.450;   13.000;  -35.000
415.608;  283.450; -247.000; -323.000
415.734;  980.750;   67.000;   38.000
415.860;20332.800; -875.000; -767.000
415.986;14712.150; -685.000; -607.000
416.111; 1260.850; -798.000; -652.000
416.237;  258.900; -424.000; -571.000
416.363; 1178.925; -765.000; -733.000
416.489; 4349.975; -324.000; -251.000
416.615;  461.550; -707.000; -742.000
416.741;  -22.025; -677.000; -784.000
416.866;  -95.375; -673.000; -736.000
416.992; -123.850; -801.000; -818.000
417.118;  -37.775;  -41.000;  -80.000
417.244;  -76.775; -798.000; -531.000
417.369;  -88.875; -801.000; -612.000
417.495;  -22.250; -325.000; -254.000
417.621; -101.575;-1015.000; -803.000
417.746;   -5.050; -579.000; -572.000
417.872;   45.175; -254.000; -144.000
417.998;   62.700; -515.000; -530.000
418.123; 1107.225;-1073.000; -845.000
418.249; 5598.025; -512.000; -601.000
418.374;  770.550; -916.000; -824.000
418.500;  100.525; -383.000; -482.000
418.626;  101.500;   70.000;  -59.000
418.751;  113.800; -549.000; -448.000
418.877;  206.250; -637.000; -643.000
419.002; 1869.250; -688.000; -560.000
419.128;12997.575; -930.000; -721.000
419.253; 3192.975; -967.000; -837.000
419.379;  423.850; -391.000; -338.000
419.504;  398.950;  325.000;  415.000
419.629;  529.800; -393.000; -212.000
419.755; 3733.550; -317.000; -254.000
419.880;22252.200;  -98.000;   67.000
420.006;11844.850; -280.000; -221.000
420.131;30320.825; -662.000; -775.000
420.256; 4309.575; -315.000; -316.000
420.382;  570.450; -665.000; -687.000
420.507;   81.325; -649.000; -778.000
420.632;   90.475; -337.000; -339.000
420.758;  180.525; -251.000; -425.000
420.883;  -93.225; -876.000; -672.000
421.008; -114.800; -775.000; -619.000
421.133;  -79.850; -509.000; -467.000
421.259;  -40.550; -325.000; -259.000
421.384; -124.925; -834.000; -693.000
421.509;  -72.400;-1052.000; -862.000
421.634;  887.375; -936.000; -820.000
421.759;  372.900; -359.000; -327.000
421.885;  -65.775; -717.000; -656.000
422.010;  -88.275; -673.000; -542.000
422.135; -150.350; -695.000; -727.000
422.260;   21.525;  340.000;  280.000
422.385;  -45.275;   12.000;  -98.000
422.510;  -11.100;  151.000;  -26.000
422.635;   -4.950;  -87.000;  -43.000
422.760;   79.950; -766.000; -791.000
422.885;   42.925;  -57.000;  -80.000
423.010;  -43.775; -112.000; -169.000
423.135;  -91.750; -481.000; -561.000
423.260;  -34.750; -150.000; -245.000
423.385;   57.950;  476.000;  222.000
423.510;   23.875;   71.000;  -22.000
423.635;   61.250;  133.000;   45.000
423.760;   47.275;  383.000;  328.000
423.885;   32.175;  336.000;  391.000
424.010;    7.375;  -68.000;  -13.000
424.135;  -16.925;    5.000;  -33.000
424.259; -110.250; -654.000; -457.000
424.384;  -71.925; -279.000; -272.000
424.509;  -34.125; -260.000; -186.000
424.634;  -97.225; -761.000; -623.000
424.759;  -41.500; -688.000; -544.000
424.883;  -18.650; -506.000; -527.000
425.008;  165.400; -502.000; -410.000
425.133; 2031.550; -679.000; -653.000
425.258;  952.400; -517.000; -381.000
425.382;  891.125; -867.000; -774.000
425.507; 2291.075; -487.000; -543.000
425.632;  396.525; -802.000; -663.000
425.756;  459.325; -256.000; -146.000
425.881; 6948.250; -831.000; -857.000
426.006;18856.125; -604.000; -355.000
426.130; 2908.775; -696.000; -508.000
426.255;  370.025; -611.000; -491.000
426.379;  166.050; -189.000; -577.000
426.504;  365.925;  660.000;  544.000
426.629; 4088.350; -519.000; -466.000
426.753; 2808.925;   64.000;  -46.000
426.878;  328.250; -252.000; -288.000
427.002;  123.625; -651.000; -668.000
427.127; 1617.050;  -35.000; -158.000
427.251;11837.150;  372.000;  401.000
427.375; 3318.125; -191.000; -173.000
427.500; 2047.825; -616.000; -610.000
427.624;  691.775; -234.000; -400.000
427.749;   60.325; -216.000; -225.000
427.873;  -55.300; -499.000; -412.000
427.997;  -57.900; -222.000; -230.000
428.122;   83.025;  795.000;  703.000
428.246;   63.025;  433.000;  434.000
428.371; -131.225; -869.000; -773.000
428.495; -116.250; -624.000; -646.000
428.619;  -41.375; -186.000; -117.000
428.743;   12.400;   65.000;  132.000
428.868;  -24.800; -732.000; -643.000
428.992; 1207.225; -219.000; -326.000
429.116;  462.725; -329.000; -357.000
429.240;  223.550;  419.000;  426.000
429.365;  -32.625; -454.000; -574.000
429.489;  -55.825; -638.000; -647.000
429.613;    0.625; -236.000; -177.000
429.737;   23.525; -563.000; -432.000
429.861;  264.675; -247.000; -133.000
429.985; 5711.000; -425.000; -305.000
430.109; 6256.300; -770.000; -908.000
430.234;  697.225;   76.000;  -50.000
430.358;   49.475; -250.000; -160.000
430.482;  -74.100; -672.000; -564.000
430.606;  -60.625; -655.000; -375.000
430.730;  -31.775; -437.000; -388.000
430.854;   57.600; -909.000; -835.000
430.978;  -87.825; -795.000; -764.000
431.102; -113.975; -499.000; -422.000
431.226; -128.425; -874.000; -815.000
431.350;   24.850;  345.000;  422.000
431.474;  -85.725; -661.000; -373.000
431.597; -158.050;-1060.000; -848.000
431.721;  -84.650; -276.000; -267.000
431.845; -134.875; -704.000; -472.000
431.969;  -83.700; -304.000; -349.000
432.093;  -95.100; -395.000; -317.000
432.217;  -41.650;   32.000;   82.000
432.341;  -92.175; -523.000; -518.000
432.464;  -16.850;   96.000;   40.000
432.588;  142.050; -401.000; -329.000
432.712;   68.825;  -52.000;  -52.000
432.836;   47.275;  213.000;  263.000
432.959;  -26.700; -372.000; -311.000
433.083;   78.925;   11.000;    2.000
433.207;  377.250;  285.000;  930.000
433.330; 5253.300; -391.000; -200.000
433.454; 6507.000; -654.000; -638.000
433.578; 3721.550;  583.000;  278.000
433.701;  676.350; -623.000; -675.000
433.825;  112.600; -292.000; -299.000
433.949;  115.075;   28.000;  -72.000
434.072;    4.225; -410.000; -323.000
434.196;  -21.950; -309.000; -117.000
434.319; 3704.275;25482.000;25124.000
434.443;  706.100; -656.000; -603.000
434.566; 2713.050;  281.000;   62.000
434.690;  450.350; -637.000; -383.000
434.813;   40.700; -251.000; -173.000
434.937;  -91.725; -569.000; -696.000
435.060;  -68.525; -423.000; -332.000
435.184;  191.900; -492.000; -217.000
435.307;  107.550;  159.000;  102.000
435.431;  -31.800;  -40.000;   24.000
435.554;  -85.975; -399.000; -240.000
435.677;  -97.050; -350.000; -258.000
435.801;  -40.950;  -25.000;   49.000
435.924;  -31.325;    1.000;  -67.000
436.048; -150.100;-1019.000; -732.000
436.171;  -89.425; -240.000;  -66.000
436.294;  -30.500; -248.000; -229.000
436.417;   91.350; -963.000; -849.000
436.541;  -86.850; -814.000; -840.000
436.664;  -54.975; -242.000; -316.000
436.787;  -37.275;   13.000;  113.000
436.910; -130.350; -792.000; -422.000
437.034;   -8.450;  142.000;  143.000
437.157;   25.375;  -11.000;    0.000
437.280;  -78.100; -392.000; -292.000
437.403; -112.075; -982.000; -869.000
437.526;  440.300; -903.000; -865.000
437.649; 1749.025; -505.000; -332.000
437.772;  220.825; -692.000; -540.000
437.896;  102.300;  700.000;  544.000
438.019; -112.075; -758.000; -503.000
438.142;  -95.025; -596.000; -506.000
438.265;  -44.725; -639.000; -670.000
438.388;  398.350; -520.000; -410.000
438.511;   35.700; -597.000; -394.000
438.634;  -58.150; -247.000; -125.000
438.757; -143.800; -693.000; -619.000
438.880;  -33.275;  -34.000;  -57.000
439.003;  -91.475; -417.000; -437.000
439.126;  -70.500; -287.000; -167.000
439.248;  -72.675;  -98.000; -139.000
439.371;  -66.275;    9.000;  -53.000
439.494;   14.575;  510.000;  439.000
439.617;  -63.550;   65.000;  -88.000
439.740; -171.125; -968.000; -816.000
439.863; -146.300; -755.000; -595.000
439.986; -131.950; -476.000; -431.000
440.108;  -51.725; -161.000; -112.000
440.231; -161.075; -950.000; -836.000
440.354;  -42.625;  -64.000; -150.000
440.477;  -12.800; -566.000; -542.000
440.599;  -40.150; -200.000; -225.000
440.722; -128.250; -709.000; -586.000
440.845;   67.050;  751.000;  928.000
440.968; -108.325; -415.000; -311.000
441.090;  -73.575; -199.000;  -33.000
441.213; -173.275;-1021.000; -825.000
441.336;  -67.075; -159.000;   -5.000
441.458;  -92.550; -549.000; -396.000
441.581;  -99.575; -628.000; -629.000
441.703;  -69.725; -152.000;   13.000
441.826; -110.900; -557.000; -400.000
441.948;  -51.650;   56.000;   51.000
442.071;   18.150;  555.000;  424.000
442.193; -118.375; -531.000; -485.000
442.316;   10.825;  152.000;   97.000
442.438;   40.200; -233.000;  -10.000
442.561;   55.825;  272.000;  262.000
442.683;  384.700; -809.000; -522.000
442.806;  901.500;   -8.000;   74.000
442.928;  -29.625; -859.000; -604.000
443.051;  -83.275; -577.000; -373.000
443.173; -103.075; -341.000; -339.000
443.295;  -96.225; -263.000; -371.000
443.418;  -79.275; -321.000;  -29.000
443.540;  -16.100; -106.000;   -4.000
443.662; -120.475; -563.000; -465.000
443.785;  -11.175;  335.000;  199.000
443.907;  -96.075; -362.000; -208.000
444.029; -143.250; -767.000; -494.000
444.152; -143.425; -644.000; -554.000
444.274;  -38.800;  -18.000;  -24.000
444.396; -131.550; -461.000; -221.000
444.518; -137.500; -691.000; -454.000
444.640;  -99.975; -268.000; -111.000
444.763;  -24.475;  388.000;  249.000
444.885; -126.075; -432.000; -392.000
445.007;  -48.875;   35.000;   86.000
445.129; -129.300; -610.000; -515.000
445.251; -101.950; -372.000; -439.000
445.373; -148.775; -537.000; -386.000
445.495;  -10.500;  242.000;  350.000
445.617;   55.550;  853.000;  753.000
445.739;  -86.325; -215.000;  -97.000
445.861;  -47.575; -245.000; -112.000
445.984;  -28.450; -267.000; -101.000
446.105;  124.750; -418.000; -251.000
446.227;  475.225; -176.000;  -19.000
446.349;  -27.400; -358.000; -249.000
446.471; -112.100; -615.000; -448.000
446.593;  -83.025; -316.000;   19.000
446.715;  -22.375;  -67.000;   41.000
446.837;   57.100;  697.000;  832.000
446.959; -108.425; -457.000; -478.000
447.081; -136.200; -628.000; -518.000
447.203;   45.975;  862.000;  834.000
447.325;  -82.375; -270.000;   42.000
447.446;  -25.925;  286.000;  530.000
447.568; -163.925; -921.000; -803.000
447.690;  -93.050; -236.000; -245.000
447.812; -160.925; -798.000; -519.000
447.933;  -31.825;  155.000;  127.000
448.055;  -72.550; -306.000; -261.000
448.177;  111.400;   31.000;   79.000
448.299;   34.500; -935.000; -727.000
448.420;   -1.650;  -25.000;  159.000
448.542;  -60.175;   -3.000;   33.000
448.664;  -35.250;  109.000;  322.000
448.785;  -57.475;  265.000;   83.000
448.907;  -96.450; -614.000; -353.000
449.028;  -51.550; -771.000; -471.000
449.150;   37.200;  492.000;  589.000
449.272; -179.750;-1044.000; -913.000
449.393;   12.925;  612.000;  694.000
449.515; -143.500; -634.000; -581.000
449.636;  -54.700; -264.000; -155.000
449.758;   73.025;  763.000;  622.000
449.879;  -95.625; -498.000; -396.000
450.001;  -79.600; -149.000;  -49.000
450.122;  -48.025;  -95.000;  162.000
450.244;  -21.050;   37.000;  364.000
450.365; -105.625; -495.000; -301.000
450.486;  -34.050;   80.000;  268.000
450.608;   22.050;  393.000;  326.000
450.729;   65.000;  578.000;  645.000
450.850;    0.575; -574.000; -466.000
450.972;  800.525; -552.000; -389.000
451.093; 5192.000;  190.000;  588.000
451.214; 2257.225; -516.000; -337.000
451.336;  416.150;  773.000;  579.000
451.457;   60.525;  264.000;  393.000
451.578;  -53.575; -118.000;  -74.000
451.699; -121.550; -546.000; -540.000
451.821;  -82.325; -284.000;  -50.000
451.942;  -18.550;  278.000;  285.000
452.063;   33.775;  228.000;  419.000
452.184;  573.500;  -54.000;  -49.000
452.305; 1127.100;  103.000;  170.000
452.427;  122.850; -549.000; -301.000
452.548;  -33.125;   23.000;   79.000
452.669;  -68.900; -257.000;  -89.000
452.790;  -41.600;    3.000;  -18.000
452.911;    9.975;  195.000;  259.000
453.032;  -72.175; -289.000;  -60.000
453.153;  -61.625;  -29.000;   81.000
453.274;   49.050;  737.000;  868.000
453.395;  -52.825;  -51.000;  175.000
453.516;  104.425; 1317.000; 1388.000
453.637;  -84.575; -205.000; -150.000
453.758;  -66.550;   15.000;   69.000
453.879; -129.750; -462.000; -250.000
454.000;   75.775; 1086.000;  948.000
454.121; -124.525; -554.000; -326.000
454.242; -115.550; -599.000; -383.000
454.362;  -65.650;  -99.000;  114.000
454.483;  -59.000; -309.000; -229.000
454.604;   54.125;  512.000;  580.000
454.725; -142.625; -627.000; -555.000
454.846; -141.225; -474.000; -406.000
454.967;  -27.250;  230.000;  539.000
455.087;  -54.125;  179.000;  153.000
455.208;    6.475;  554.000;  856.000
455.329;  -70.450;  -22.000;   82.000
455.450;   21.900;  473.000;  633.000
455.570;  -85.700; -234.000; -211.000
455.691;  -37.025;  201.000;  407.000
455.812; -115.575; -270.000;  -92.000
455.932;  -79.225;  107.000;  -97.000
456.053;  -89.500;   36.000;   24.000
456.173; -115.450; -433.000; -355.000
456.294; -136.175; -476.000; -303.000
456.415;  -71.525;  -73.000;   70.000
456.535;  -37.475;  297.000;  273.000
456.656;  -41.850;  132.000;  240.000
456.776;  -82.725;    3.000;  298.000
456.897;  -10.050;  308.000;  513.000
457.017;  -86.975; -153.000;   -3.000
457.138; -116.775; -402.000; -249.000
457.258;  -41.175;  263.000;  224.000
457.379;  -19.425;  509.000;  521.000
457.499;  -28.525;  443.000;  432.000
457.620; -136.825; -407.000; -231.000
457.740; -111.050; -132.000;  -11.000
457.860;  -59.900;   87.000;   44.000
457.981;  -74.800;  132.000;  124.000
458.101;  -86.125;  -89.000;   40.000
458.221;  -19.675;  336.000;  402.000
458.342;  -63.925;   -4.000;  -37.000
458.462;   24.025;  617.000;  352.000
458.582;  -42.875; -302.000; -294.000
458.703;   18.875;  303.000;  154.000
458.823;  -26.525;   22.000;  163.000
458.943;   19.550;  341.000;  467.000
459.063;  -37.375; 1124.000;  192.000
459.183;  -34.375;  328.000;  313.000
459.304;   -3.675;  315.000;  517.000
459.424;  -59.450; -246.000;  -89.000
459.544;  336.475;  388.000;  764.000
459.664;  848.675;  499.000;  506.000
459.784;  321.550; 1004.000; 1175.000
459.904;   43.825;  867.000;  744.000
460.024;   68.700;  867.000;  684.000
460.144;    7.200;  449.000;  554.000
460.264;  -12.550;  515.000;  327.000
460.385; -101.025; -145.000; -119.000
460.505;   26.875;  905.000;  858.000
460.625;  -91.325;  -17.000;  -68.000
460.745;  -29.375;  396.000;  541.000
460.864;  -48.775;  153.000;  469.000
460.984;   -3.725;  499.000;  573.000
461.104;  127.800; 1656.000; 1775.000
461.224;   19.300;  657.000;  650.000
461.344;  -34.200;  431.000;  360.000
461.464;  -48.700;  258.000;  513.000
461.584;  -24.425;  283.000;  466.000
461.704;  -67.800;   58.000;  108.000
461.824;  -60.900;  238.000;  259.000
461.943;  -61.675;  191.000;  130.000
462.063;  -77.125;    2.000;  324.000
462.183;   20.950;  639.000;  717.000
462.303;   93.050; 1678.000; 1230.000
462.422;   37.200;  781.000;  840.000
462.542;  -47.400;  271.000;  391.000
462.662;   45.025;  353.000;  380.000
462.782;  241.100;  833.000;  572.000
462.901;  480.925;  545.000;  717.000
463.021;  298.525; 1702.000; 1638.000
463.141;  -19.525;  337.000;  770.000
463.260;  -17.625;  614.000;  474.000
463.380;    7.350;  902.000;  884.000
463.499;  -53.600;  342.000;  332.000
463.619;  -44.550;  581.000;  559.000
463.738;  110.675; 1644.000;  903.000
463.858;   -0.825;  657.000;  811.000
463.978;  -40.325;  542.000;  396.000
464.097;   43.600;  921.000; 1114.000
464.217;  127.125; 1196.000; 1143.000
464.336;  119.900; 1068.000; 1130.000
464.455;  -42.350;  328.000;  659.000
464.575;   32.750;  597.000;  602.000
464.694;  150.125; 1204.000; 1179.000
464.814;  113.500; 1190.000; 1138.000
464.933;   57.875; 1095.000; 1027.000
465.052;  105.675; 1412.000; 1054.000
465.172;   67.350;  922.000;  799.000
465.291;  132.325; 1376.000; 1320.000
465.410;   10.300;  462.000;  735.000
465.530;   83.575; 1355.000; 1310.000
465.649;   50.450; 1209.000; 1273.000
465.768;  115.525; 1673.000; 1508.000
465.888;   39.850;  941.000; 1174.000
466.007;   92.275; 1335.000; 1440.000
466.126;    1.225;  721.000;  641.000
466.245;   43.975; 1176.000; 1187.000
466.364;    9.975;  950.000; 1060.000
466.484;   51.725; 1024.000; 1213.000
466.603;   43.625; 1101.000; 1222.000
466.722;  109.475; 1490.000; 1769.000
466.841;   61.300; 1151.000; 1401.000
466.960;   33.875; 1069.000;  972.000
467.079;  118.300; 1971.000; 1786.000
467.198;   44.425; 1238.000; 1181.000
467.317;   87.475; 1768.000; 1162.000
467.436;   72.500; 1709.000; 1261.000
467.555;  121.475; 1796.000; 1746.000
467.674;   60.550; 1227.000; 1329.000
467.793;   33.350; 1376.000; 1374.000
467.912;   80.100; 1658.000; 1539.000
468.031;  122.425; 2038.000; 1930.000
468.150;  144.075; 1842.000; 1837.000
468.269;  194.375; 2313.000; 2090.000
468.388;  192.675; 2168.000; 2339.000
468.507;  248.775; 2884.000; 2903.000
468.626;  212.425; 2555.000; 2541.000
468.744;  139.000; 2018.000; 2174.000
468.863;  190.825; 2312.000; 2523.000
468.982;   87.800; 1503.000; 1555.000
469.101;  217.900; 2788.000; 2692.000
469.220;  157.400; 2333.000; 2176.000
469.338;  253.350; 2935.000; 3051.000
469.457;  194.875; 2719.000; 2545.000
469.576;  327.200; 3953.000; 3784.000
469.695;  232.225; 2877.000; 3066.000
469.813;  419.725; 4148.000; 4192.000
469.932;  412.500; 4255.000; 4485.000
470.051;  411.700; 4075.000; 4161.000
470.169;  871.700; 4470.000; 4338.000
470.288; 1497.925; 4700.000; 4809.000
470.406;  880.900; 5059.000; 5194.000
470.525;  617.325; 6101.000; 5787.000
470.644;  658.225; 6847.000; 6794.000
470.762;  840.025; 8397.000; 7873.000
470.881;  916.125; 8651.000; 8464.000
470.999; 1036.850; 9685.000; 9151.000
471.118; 1109.900;11174.000;10711.000

