
Integration time [ms]: 200.000
Averaging Nr. [scans]: 10
Smoothing Nr. [pixels]: 0
Data measured with spectrometer [name]: 2101012U2
Wave   ;Sample   ;Dark     ;Reference
[nm]   ;[counts] ;[counts] ;[counts] 

197.733;  119.000;  516.000;  404.000
197.879; -136.300; -610.000; -634.000
198.025; -116.400; -475.000; -420.000
198.171; -160.000; -602.000; -612.000
198.317;  -44.500; -401.000; -316.000
198.463; -136.200; -655.000; -404.000
198.609;   66.500;  181.000; -137.000
198.755; -162.500; -644.000; -410.000
198.901; -169.300; -505.000; -424.000
199.047; -132.300; -615.000; -488.000
199.193;  -92.300; -230.000; -468.000
199.339;  -90.800; -222.000; -369.000
199.485;   60.000;  330.000;  271.000
199.631;   63.900;  227.000;  310.000
199.777; -109.600; -466.000; -398.000
199.923; -104.300; -610.000; -424.000
200.069;    5.100; -141.000;  -58.000
200.215;  115.200;  128.000;  453.000
200.361;   96.300;  243.000;  477.000
200.507; -131.300; -600.000; -373.000
200.653;  -85.900; -371.000; -194.000
200.798;  -66.600; -215.000; -125.000
200.944;  -13.900; -146.000;  -41.000
201.090;   79.200;   61.000;  222.000
201.236;   26.300; -116.000; -158.000
201.382;  287.500;  874.000;  903.000
201.528;   -5.100;  -58.000;  -48.000
201.674;  -58.100; -386.000; -293.000
201.819; -143.600; -540.000; -439.000
201.965; -143.100; -699.000; -447.000
202.111;  -43.400; -273.000; -226.000
202.257;  -40.500; -250.000; -238.000
202.402;   15.500;   13.000;  -36.000
202.548;  -49.000; -169.000; -116.000
202.694;  173.800;  410.000; -183.000
202.840; -143.100; -603.000; -531.000
202.985; -143.300; -681.000; -639.000
203.131; -228.200; -832.000; -666.000
203.277;  -42.500; -199.000; -262.000
203.423; -109.300; -434.000; -520.000
203.568; -118.500; -462.000; -237.000
203.714; -114.500; -535.000; -542.000
203.860; -168.200; -682.000; -641.000
204.005;   56.800;  112.000;  167.000
204.151;  155.900;  561.000;  556.000
204.296;  -73.800; -354.000; -221.000
204.442; -140.800; -600.000; -547.000
204.588; -146.100; -592.000; -579.000
204.733;   32.800;  178.000;  168.000
204.879; -253.500;-1018.000; -822.000
205.025;   19.400;  -99.000;  126.000
205.170;   11.900;  -17.000;   94.000
205.316;  170.800;  438.000;  661.000
205.461; -157.000; -698.000; -554.000
205.607;  182.700;  609.000;  665.000
205.752; -163.700; -626.000; -551.000
205.898; -126.000; -501.000; -391.000
206.043; -109.900; -578.000; -506.000
206.189;  -92.200; -243.000; -285.000
206.334;  180.300;  554.000;  606.000
206.480;  174.100;  409.000;  239.000
206.625; -155.300; -529.000; -552.000
206.771; -120.800; -451.000; -373.000
206.916;  -40.900; -210.000; -537.000
207.062; -144.600; -545.000; -591.000
207.207;  -86.200; -546.000; -443.000
207.353;   79.100;  185.000;  460.000
207.498;   29.900;  196.000;   85.000
207.643; -103.900; -501.000; -370.000
207.789; -271.700;-1069.000; -910.000
207.934; -206.900; -665.000; -713.000
208.080;  -57.200; -154.000;   66.000
208.225;  -26.000;  -22.000;  -57.000
208.370; -179.400; -727.000; -619.000
208.516; -167.600; -741.000; -487.000
208.661;  -41.100; -127.000;  -69.000
208.806;  -78.100; -165.000; -171.000
208.952; -249.600;-1044.000; -731.000
209.097;  157.300;  378.000;  349.000
209.242;  -75.500; -307.000; -382.000
209.387;  110.400;  392.000;  350.000
209.533;  -86.000; -321.000; -350.000
209.678;  143.100;  472.000;  543.000
209.823;  -85.800; -408.000; -310.000
209.969; -218.400; -860.000; -757.000
210.114; -192.500; -907.000; -719.000
210.259; -238.200; -939.000; -889.000
210.404;   -4.700; -171.000;  103.000
210.549;    6.500;  108.000;    3.000
210.695;  -16.000;   -3.000;  -95.000
210.840;   69.400;   94.000;   67.000
210.985; -106.100; -484.000; -303.000
211.130;  136.900;  268.000;  406.000
211.275;   47.400;  207.000;  199.000
211.420; -127.600; -300.000; -289.000
211.566; -140.000; -536.000; -489.000
211.711;   37.300;  218.000;  157.000
211.856; -139.200; -545.000; -519.000
212.001;   -7.600;  151.000;   44.000
212.146;   20.100;  153.000;   49.000
212.291;  -47.900; -210.000; -186.000
212.436;  -26.100; -280.000;   -6.000
212.581; -155.100; -685.000; -653.000
212.726; -145.000; -487.000; -538.000
212.871; -123.500; -552.000; -217.000
213.016; -319.100;-1172.000;-1029.000
213.161;  133.900;  406.000;  291.000
213.306; -150.500; -435.000; -577.000
213.451; -218.700; -778.000; -689.000
213.596;  -84.600; -455.000; -347.000
213.741; -130.900; -448.000; -538.000
213.886; -125.500; -498.000; -517.000
214.031;  -42.400; -294.000; -124.000
214.176;  -60.700; -408.000; -341.000
214.321;  -32.200; -296.000; -157.000
214.466;  -15.700; -163.000;  -43.000
214.611;    2.400;  -61.000;  -10.000
214.756; -235.200; -948.000; -858.000
214.901;  -84.600; -388.000; -226.000
215.046; -234.300; -797.000; -825.000
215.191;   31.500;  128.000;   35.000
215.336;   -3.300; -157.000;  -19.000
215.480; -141.800; -684.000; -505.000
215.625;   -5.600; -175.000;  -19.000
215.770; -158.500; -757.000; -662.000
215.915;   15.800;   -5.000;  -97.000
216.060;   13.500; -113.000;  -21.000
216.205; -247.900; -731.000; -779.000
216.349; -166.000; -470.000; -533.000
216.494; -272.700; -939.000; -867.000
216.639; -240.900; -823.000; -888.000
216.784; -167.800; -577.000; -525.000
216.929;  120.900;  392.000;  281.000
217.073;    0.700; -244.000;  -31.000
217.218;   20.500;   78.000;  -47.000
217.363; -155.500; -656.000; -618.000
217.507; -186.400; -623.000; -588.000
217.652; -249.600; -845.000; -874.000
217.797; -197.600; -708.000; -659.000
217.942; -241.900; -856.000; -720.000
218.086;  177.800;  608.000;  539.000
218.231;  -12.600; -174.000;  -26.000
218.376;  -75.000; -337.000; -229.000
218.520;   -8.200;  -41.000;   96.000
218.665;  -78.200; -338.000; -204.000
218.810;  -49.200; -275.000; -233.000
218.954;   60.100;  201.000;   35.000
219.099; -214.900; -713.000; -963.000
219.243; -113.200; -589.000; -554.000
219.388;  -60.100; -264.000; -136.000
219.532;  -21.300; -116.000; -116.000
219.677; -125.500; -564.000; -521.000
219.822;   15.500;   33.000;   89.000
219.966;   37.500;   17.000;  -99.000
220.111;  -65.500; -328.000;  -40.000
220.255; -175.700; -797.000; -750.000
220.400;  -43.000; -180.000; -146.000
220.544; -115.100; -516.000; -450.000
220.689; -113.000; -422.000; -451.000
220.833;  -15.200; -123.000;  -58.000
220.978; -107.000; -393.000; -563.000
221.122;   84.000;  319.000;  307.000
221.267; -220.300; -906.000; -837.000
221.411; -121.100; -478.000; -394.000
221.555;  -34.600; -104.000;  -23.000
221.700;  -56.900; -329.000; -222.000
221.844;   82.100;  255.000;  272.000
221.989;  -80.900; -328.000; -311.000
222.133;  -74.200; -289.000; -307.000
222.277;    2.600;    5.000;   78.000
222.422;   28.100;  227.000;  113.000
222.566;  -70.500; -381.000; -214.000
222.711;  -86.300; -414.000; -479.000
222.855; -154.600; -643.000; -586.000
222.999; -183.100; -642.000; -717.000
223.144;  -61.900; -195.000; -194.000
223.288;  130.100;  423.000;  251.000
223.432;   22.500;  184.000;  230.000
223.576;   27.600;  152.000;  -21.000
223.721;  101.100;  364.000;  273.000
223.865; -108.200; -472.000; -475.000
224.009;  559.700; 1673.000; 1631.000
224.153; -149.000; -660.000; -671.000
224.298; -118.900; -531.000; -489.000
224.442;  -15.200;  -74.000;  -33.000
224.586;   -4.400; -169.000; -106.000
224.730; -195.300; -858.000; -670.000
224.875; -198.700; -739.000; -688.000
225.019;   34.700;  102.000;  188.000
225.163;  110.400;  208.000;  341.000
225.307;   18.200;   97.000;  -91.000
225.451;  122.800;  360.000;  481.000
225.595;   31.500;  264.000;  176.000
225.739;    9.600; -170.000;  -94.000
225.884;   10.800;   86.000;    5.000
226.028; -179.000; -760.000; -626.000
226.172;  -95.700; -260.000; -273.000
226.316; -219.500; -941.000; -902.000
226.460; -138.600; -645.000; -493.000
226.604;  -95.900; -406.000; -400.000
226.748; -206.400; -836.000; -733.000
226.892;  -55.700; -227.000; -181.000
227.036;  -88.800; -537.000; -447.000
227.180; -121.400; -551.000; -375.000
227.324; -119.000; -561.000; -580.000
227.468; -235.400; -819.000; -717.000
227.612;   -1.200;  242.000;  -28.000
227.756; -227.100; -845.000; -698.000
227.900;  135.700;  342.000;  441.000
228.044;  -97.600; -509.000; -290.000
228.188;   94.600;  448.000;  568.000
228.332; -174.000; -546.000; -472.000
228.476;  -58.800; -223.000; -149.000
228.620;  -26.400; -210.000; -150.000
228.764;  149.800;  431.000;  349.000
228.908;  -19.100; -155.000;   30.000
229.052; -138.300; -615.000; -528.000
229.195;   -0.400; -172.000;   13.000
229.339;  -86.400; -235.000; -305.000
229.483;  -35.200;    5.000; -162.000
229.627;  -14.100; -156.000;  139.000
229.771;  -78.700; -218.000; -294.000
229.915;   52.800;  230.000;   79.000
230.059; -180.800; -648.000; -663.000
230.202;  -79.200; -370.000; -317.000
230.346;  -56.300; -107.000;  107.000
230.490; -110.600; -489.000; -521.000
230.634; -197.900; -736.000; -553.000
230.777;  181.500;  478.000;  509.000
230.921; -101.000; -450.000; -359.000
231.065;  -68.800; -246.000; -286.000
231.209;   61.700;  261.000;  265.000
231.352;   24.400;   54.000;   40.000
231.496;   55.600;  568.000;  188.000
231.640; -156.500; -693.000; -621.000
231.783;  191.500;  546.000;  525.000
231.927;  -73.300; -294.000; -365.000
232.071; -244.400; -962.000; -736.000
232.214; -218.400; -980.000; -764.000
232.358; -191.700; -683.000; -599.000
232.502;   -4.800;  -19.000;    7.000
232.645; -306.000;-1090.000; -927.000
232.789;  -44.400; -257.000; -218.000
232.933;  -37.000; -407.000; -224.000
233.076; -258.300;-1038.000; -897.000
233.220; -200.400; -752.000; -777.000
233.363; -153.800; -669.000; -477.000
233.507;  140.200;  371.000;  129.000
233.650; -202.300; -764.000; -834.000
233.794;  125.600;  438.000;  461.000
233.938; -139.100; -530.000; -362.000
234.081;   -7.100;  -93.000;   31.000
234.225; -127.800; -631.000; -539.000
234.368; -194.300; -773.000; -723.000
234.512;  -60.900; -385.000; -299.000
234.655; -171.100; -582.000; -555.000
234.798; -138.300; -493.000; -466.000
234.942; -266.600; -884.000;-1002.000
235.085; -132.000; -651.000; -443.000
235.229; -143.200; -405.000; -410.000
235.372; -107.200; -247.000; -191.000
235.516;  -91.500; -397.000; -321.000
235.659;   50.100;   92.000;  121.000
235.802;   16.100;  -38.000;  -22.000
235.946;   62.800;  335.000;  215.000
236.089;   47.700;  126.000;  250.000
236.233;  114.200;  275.000;  298.000
236.376;  -68.500; -235.000; -378.000
236.519;  -78.300; -297.000; -319.000
236.663;  -44.200; -215.000; -117.000
236.806; -295.800;-1029.000; -999.000
236.949;  167.900;  543.000;  431.000
237.092;  144.600;  412.000;  391.000
237.236; -166.700; -589.000; -502.000
237.379;  127.300;  352.000;  428.000
237.522; -233.100; -879.000; -768.000
237.666;  -40.100; -271.000;   18.000
237.809; -260.800; -851.000; -823.000
237.952;   81.100;  469.000;  271.000
238.095; -104.400; -447.000; -442.000
238.238;  192.400;  688.000;  700.000
238.382;   22.600;  166.000;  103.000
238.525; -158.100; -598.000; -511.000
238.668; -277.400;-1060.000; -985.000
238.811; -178.800; -638.000; -643.000
238.954; -116.800; -483.000; -334.000
239.097;  186.000;  617.000;  664.000
239.241;   67.100;  394.000;  326.000
239.384;  -77.600; -254.000; -214.000
239.527; -114.000; -424.000; -224.000
239.670; -288.700; -994.000;-1091.000
239.813; -236.700; -696.000; -658.000
239.956;  149.800;  579.000;  473.000
240.099; -222.700; -778.000; -725.000
240.242;  124.300;  428.000;  432.000
240.385;  112.600;  466.000;  450.000
240.528; -154.100; -706.000; -473.000
240.671;   59.200;  189.000;  134.000
240.814; -102.500; -441.000; -158.000
240.957; -166.800; -767.000; -578.000
241.100; -153.300; -779.000; -755.000
241.243; -275.200;-1234.000; -893.000
241.386; -135.900; -508.000; -379.000
241.529; -140.800; -735.000; -547.000
241.672; -130.200; -566.000; -495.000
241.815; -235.500; -832.000; -808.000
241.958;  -39.900; -125.000; -182.000
242.101; -125.000; -545.000; -390.000
242.244;  -97.700; -270.000; -325.000
242.387;  -61.200; -304.000; -246.000
242.530;   83.300;  470.000;  134.000
242.673;  -92.100; -381.000; -309.000
242.815; -242.300; -925.000; -899.000
242.958; -131.400; -482.000; -381.000
243.101;   35.300;  132.000;  187.000
243.244; -162.300; -564.000; -521.000
243.387;  -53.100; -313.000; -316.000
243.530; -170.500; -657.000; -674.000
243.672;  -15.500;   43.000;  -92.000
243.815;  -71.600; -355.000; -283.000
243.958;    0.800;   98.000;  -26.000
244.101;   45.200;   59.000;  -16.000
244.243;   -2.800;  -47.000;  101.000
244.386; -206.400; -761.000; -630.000
244.529;  -34.400; -132.000; -139.000
244.672; -319.200;-1154.000; -951.000
244.814; -183.300; -621.000; -794.000
244.957;  -92.300; -380.000; -304.000
245.100; -159.600; -489.000; -489.000
245.242;  -84.700; -387.000; -374.000
245.385;   12.500;  -59.000;  -39.000
245.528; -224.000; -871.000; -705.000
245.670;  169.400;  612.000;  634.000
245.813; -138.500; -599.000; -547.000
245.956;  -61.000; -324.000; -275.000
246.098; -152.800; -508.000; -650.000
246.241;   33.900;  194.000;   48.000
246.383;  -36.100; -119.000;  -73.000
246.526; -141.600; -454.000; -525.000
246.669; -248.900; -889.000; -780.000
246.811;   30.100;  172.000;   -1.000
246.954; -105.200; -512.000; -426.000
247.096;  -56.800;  -84.000;   -6.000
247.239; -125.200; -482.000; -445.000
247.381; -149.500; -647.000; -488.000
247.524;  212.500;  645.000;  679.000
247.666;   -0.700;   58.000;   11.000
247.809; -207.500; -887.000; -691.000
247.951;  -14.400;  -75.000;  138.000
248.094;  100.800;  432.000;  308.000
248.236; -314.900;-1262.000;-1238.000
248.378;   28.900; -356.000;  -81.000
248.521;  -38.300; -334.000; -337.000
248.663;  -58.500; -236.000; -267.000
248.806;  -75.600; -300.000; -266.000
248.948; -187.100; -886.000; -763.000
249.090;  -84.100; -428.000; -398.000
249.233;  -61.700; -344.000; -381.000
249.375; -118.300; -474.000; -451.000
249.518;  -33.600;  -83.000; -133.000
249.660;    5.900; -103.000;    3.000
249.802; -321.500;-1303.000;-1189.000
249.945; -168.900; -612.000; -540.000
250.087; -217.900; -834.000; -768.000
250.229; -105.200; -362.000; -480.000
250.371; -113.000; -494.000; -439.000
250.514;  -96.800; -310.000; -244.000
250.656; -113.800;   69.000;  102.000
250.798; -207.000; -849.000; -800.000
250.940;  -73.100; -322.000; -322.000
251.083;  -13.800; -335.000; -111.000
251.225;  150.200;  338.000;  310.000
251.367;  -63.700; -274.000; -373.000
251.509;  -61.000; -265.000; -210.000
251.651; -178.200; -731.000; -671.000
251.794;  120.300;  538.000;  632.000
251.936; -202.400; -821.000; -747.000
252.078; -127.300; -540.000; -461.000
252.220; -109.900; -645.000; -477.000
252.362;  146.800;  344.000;  462.000
252.504; -162.300; -677.000; -584.000
252.646; -223.800; -875.000; -722.000
252.788;  -25.500;   14.000; -128.000
252.931;  -57.700; -257.000; -253.000
253.073;  -48.800; -376.000; -317.000
253.215;    1.700;  141.000;  122.000
253.357;  -41.800;   82.000; -153.000
253.499; -105.400; -374.000; -234.000
253.641; -145.600; -749.000; -594.000
253.783; -167.500; -609.000; -527.000
253.925; -170.300; -586.000; -591.000
254.067; -191.000; -744.000; -667.000
254.209;  -46.900; -391.000; -259.000
254.351; -243.900; -865.000; -883.000
254.493; -134.100; -441.000; -417.000
254.635; -209.100; -936.000; -818.000
254.777; -163.300; -752.000; -687.000
254.918; -142.500; -512.000; -430.000
255.060; -112.300; -551.000; -395.000
255.202; -109.400; -473.000; -261.000
255.344; -136.900; -658.000; -455.000
255.486; -113.100; -471.000; -406.000
255.628; -202.500; -780.000; -781.000
255.770; -159.800; -676.000; -536.000
255.912; -136.400; -559.000; -468.000
256.053; -172.900; -730.000; -508.000
256.195;  343.100; 1008.000;  903.000
256.337; -208.300; -861.000; -595.000
256.479;  169.600;  532.000;  416.000
256.621;  -42.500; -394.000; -212.000
256.762; -180.400; -789.000; -742.000
256.904;  172.800;  485.000;  487.000
257.046;  -64.600; -381.000; -271.000
257.188;  -53.300; -351.000; -264.000
257.329; -164.900; -525.000; -464.000
257.471; -194.100; -939.000; -807.000
257.613;  -92.600; -584.000; -498.000
257.755; -281.900;-1073.000; -982.000
257.896;   33.500;  286.000;  392.000
258.038; -115.700; -403.000; -352.000
258.180;  -87.500; -354.000; -279.000
258.321; -142.600; -581.000; -457.000
258.463;  -26.100;  -71.000;  133.000
258.605; -169.900; -562.000; -570.000
258.746; -200.400; -886.000; -772.000
258.888; -261.000;-1026.000;-1020.000
259.029;   43.800;  121.000;   -8.000
259.171; -159.300; -614.000; -550.000
259.313;   28.600;  -49.000;  -47.000
259.454; -158.400; -536.000; -414.000
259.596;  -97.200; -483.000; -390.000
259.737; -129.900; -590.000; -474.000
259.879;  107.200;  217.000;  311.000
260.020;  247.100;  901.000;  636.000
260.162;  -64.000; -146.000; -253.000
260.303; -220.200; -768.000; -687.000
260.445; -136.600; -609.000; -613.000
260.586;   70.600;  392.000;  157.000
260.728;  -98.000; -360.000; -248.000
260.869;  -85.300; -350.000; -343.000
261.011;  159.100;  706.000;  537.000
261.152; -102.400; -479.000; -319.000
261.293; -178.100; -576.000; -595.000
261.435;  -13.800; -219.000; -184.000
261.576;  -75.300; -455.000; -325.000
261.718;  122.900;  420.000;  470.000
261.859; -248.500; -940.000; -949.000
262.000; -252.600; -951.000;-1016.000
262.142;  -26.400;  -52.000;  -60.000
262.283; -202.000; -808.000; -691.000
262.424; -165.900; -666.000; -625.000
262.566; -280.500;-1161.000; -983.000
262.707; -242.600; -840.000; -830.000
262.848; -215.600; -769.000; -726.000
262.990;  -82.100; -362.000; -345.000
263.131;  215.600;  650.000;  681.000
263.272;   17.400;  -61.000;  -41.000
263.413; -143.500; -589.000; -561.000
263.555; -122.800; -669.000; -143.000
263.696; -154.300; -550.000; -641.000
263.837;  -95.300; -449.000; -551.000
263.978;   40.600;   -5.000;  -77.000
264.119;  -69.200; -283.000; -264.000
264.261; -184.100; -847.000; -630.000
264.402;   19.700;   33.000;   40.000
264.543; -109.200; -509.000; -524.000
264.684;  -26.000;   61.000;  -50.000
264.825; -169.100; -816.000; -538.000
264.966;  -13.000;  -84.000;  -67.000
265.107; -214.000; -646.000; -670.000
265.248; -237.800; -825.000; -812.000
265.390;    5.000;  152.000;   -9.000
265.531;  -24.600; -238.000; -107.000
265.672; -185.600; -557.000; -630.000
265.813;  167.100;  563.000;  439.000
265.954; -251.600; -959.000; -940.000
266.095;    3.500; -372.000; -322.000
266.236; -178.500; -686.000; -548.000
266.377;  -99.300; -243.000; -297.000
266.518; -103.300; -619.000; -547.000
266.659;   94.700;  170.000;  268.000
266.800;   50.200;   83.000;   85.000
266.941; -137.300; -487.000; -478.000
267.082;   39.900;  354.000;   99.000
267.223;  -66.800; -344.000; -273.000
267.364; -216.300; -892.000; -686.000
267.504;    3.000;    3.000;  135.000
267.645;   33.300;  160.000;   67.000
267.786;  -65.200; -147.000;  -86.000
267.927; -125.100; -473.000; -379.000
268.068;  -28.500; -186.000;  -61.000
268.209;  -92.100; -175.000; -413.000
268.350; -131.800; -388.000; -532.000
268.490; -119.700; -648.000; -521.000
268.631;  108.300;  127.000;  225.000
268.772; -190.500; -874.000; -647.000
268.913;  -43.000; -328.000; -476.000
269.054;  -29.700; -117.000;   12.000
269.194; -113.600; -418.000; -402.000
269.335; -287.300;-1137.000;-1074.000
269.476;  -23.000;   33.000;  -35.000
269.617;  -51.500; -347.000; -392.000
269.757; -183.900; -713.000; -646.000
269.898; -162.200; -856.000; -613.000
270.039; -113.300; -415.000; -405.000
270.180; -241.900; -952.000; -816.000
270.320;  -48.900; -190.000; -250.000
270.461;  -54.900; -277.000; -249.000
270.602;  -12.200; -186.000; -156.000
270.742; -248.200; -868.000; -943.000
270.883;  -83.600; -442.000; -390.000
271.023; -100.600; -358.000; -357.000
271.164; -140.500; -607.000; -528.000
271.305; -175.400; -666.000; -654.000
271.445; -178.800; -722.000; -683.000
271.586;  -85.900; -462.000; -283.000
271.726;  -88.700; -397.000; -322.000
271.867; -124.800; -594.000; -534.000
272.008;  281.400; -473.000; -285.000
272.148;  296.700;  462.000;  468.000
272.289;   26.200; -113.000; -181.000
272.429;   25.600;   19.000;  185.000
272.570; -188.200; -633.000; -737.000
272.710; -205.200; -825.000; -775.000
272.851;  -49.300;  113.000; -130.000
272.991; -290.500;-1173.000;-1077.000
273.131; -140.500; -419.000; -459.000
273.272; -200.700; -683.000; -723.000
273.412;    9.000; -143.000;  -31.000
273.553;  -68.500; -488.000; -507.000
273.693;  271.800;  913.000;  858.000
273.834; -172.800; -894.000; -692.000
273.974; -126.800; -664.000; -615.000
274.114; -181.100; -772.000; -560.000
274.255;  152.400;  414.000;  373.000
274.395;   44.100; -180.000; -125.000
274.535;  104.100;  199.000;  350.000
274.676;   84.700;  225.000;   94.000
274.816;   22.800;  110.000;   34.000
274.956; -171.700; -624.000; -690.000
275.097; -141.800;-1014.000; -922.000
275.237; -174.100; -913.000; -803.000
275.377; -192.500; -778.000; -689.000
275.517; -254.700; -878.000; -937.000
275.658; -113.800; -590.000; -555.000
275.798; -119.100; -606.000; -413.000
275.938;   44.200;  215.000;  323.000
276.078; -159.400; -626.000; -395.000
276.218;   19.000;   99.000;  104.000
276.359; -245.300;-1026.000;-1024.000
276.499; -158.600; -605.000; -446.000
276.639;  -33.100; -305.000; -151.000
276.779;  -94.600; -475.000; -357.000
276.919; -168.700; -783.000; -624.000
277.059;  -28.200; -261.000; -212.000
277.199;  -42.200; -357.000; -259.000
277.340;  121.300;  287.000;  175.000
277.480; -188.400; -840.000; -693.000
277.620;   79.700;  192.000;   16.000
277.760; -385.400;-1533.000;-1294.000
277.900;   57.800;  113.000;   33.000
278.040;   67.300;  137.000;  159.000
278.180;  104.600;  270.000;  170.000
278.320;   21.800;   21.000;   56.000
278.460; -103.100; -443.000; -469.000
278.600; -147.600; -708.000; -598.000
278.740;  143.400;  448.000;  224.000
278.880; -113.700; -768.000; -791.000
279.020;   49.600; -194.000; -144.000
279.160; -168.900; -672.000; -595.000
279.300; -201.400; -926.000; -873.000
279.440; -150.600; -709.000; -622.000
279.579;  -77.500;-1014.000; -929.000
279.719;  -56.600; -410.000; -394.000
279.859;  142.000;   -4.000;   41.000
279.999;   82.400; -208.000;  101.000
280.139;  -50.800; -435.000; -387.000
280.279; -148.900; -708.000; -745.000
280.419;    4.900; -229.000; -147.000
280.559;  -26.900; -259.000; -180.000
280.698; -139.400; -790.000; -639.000
280.838; -174.000; -778.000; -800.000
280.978; -174.700; -846.000; -790.000
281.118; -189.900; -811.000; -704.000
281.257;   34.500;   24.000;    6.000
281.397; -226.100;-1094.000; -960.000
281.537; -191.500; -599.000; -712.000
281.677;  -19.100; -150.000; -101.000
281.816; -171.900; -700.000; -630.000
281.956;  -11.900; -193.000; -257.000
282.096; -105.500; -539.000; -396.000
282.235; -159.000; -672.000; -638.000
282.375;  -50.000; -243.000;  -98.000
282.515; -166.700; -715.000; -707.000
282.654;   69.500;   29.000;  106.000
282.794;   93.300;  388.000;  244.000
282.934; -107.700; -530.000; -491.000
283.073; -229.200;-1030.000; -857.000
283.213;  -70.900; -460.000; -467.000
283.353;  -33.000; -408.000; -349.000
283.492;  -55.800; -264.000; -296.000
283.632;  -26.000; -254.000; -168.000
283.771; -194.400; -859.000; -730.000
283.911;  -65.000; -369.000; -260.000
284.050; -195.500; -794.000; -748.000
284.190; -285.600;-1229.000;-1096.000
284.329; -256.800;-1055.000; -964.000
284.469;  -88.300; -516.000; -591.000
284.608; -125.700; -559.000; -598.000
284.748; -132.500; -614.000; -570.000
284.887;   20.100;  -87.000;  -20.000
285.027; -208.700; -844.000; -892.000
285.166;  -46.500; -192.000; -249.000
285.306;   56.000; -116.000;  -33.000
285.445;  -63.800; -229.000; -343.000
285.584; -150.500; -630.000; -494.000
285.724;  -49.600; -282.000; -322.000
285.863; -194.800; -857.000; -507.000
286.002;  -92.300; -366.000; -276.000
286.142; -185.800; -715.000; -622.000
286.281; -102.300; -525.000; -493.000
286.420; -119.800; -554.000; -417.000
286.560;  214.700;  653.000;  623.000
286.699; -255.200; -958.000; -912.000
286.838; -154.900; -590.000; -591.000
286.978; -148.900; -533.000; -537.000
287.117; -266.000;-1085.000; -950.000
287.256;  -37.900; -228.000; -211.000
287.395;  -96.100; -197.000; -378.000
287.535;  -93.100; -370.000; -298.000
287.674; -147.600; -509.000; -484.000
287.813;  185.400;  661.000;  533.000
287.952; -266.500;-1010.000; -871.000
288.091; -274.700;-1049.000; -915.000
288.231;   79.300;   13.000;   15.000
288.370; -320.200;-1217.000;-1200.000
288.509; -160.800; -728.000; -645.000
288.648; -155.700; -770.000; -548.000
288.787;  -30.500; -243.000;  -87.000
288.926;  -51.900; -454.000; -475.000
289.065;  265.900;  859.000;  672.000
289.204;  -63.300; -377.000; -217.000
289.344; -179.600; -791.000; -690.000
289.483;  101.200;  416.000;  304.000
289.622;  -14.600; -291.000; -149.000
289.761;    9.600; -309.000; -166.000
289.900; -173.800; -785.000; -626.000
290.039;   14.100;  -12.000;  -95.000
290.178;  -61.500; -274.000; -180.000
290.317; -126.100; -618.000; -479.000
290.456; -111.900; -463.000; -451.000
290.595; -269.600; -961.000; -833.000
290.734; -251.800; -904.000; -891.000
290.873; -134.000; -456.000; -420.000
291.011; -207.900; -833.000; -843.000
291.150; -157.200; -770.000; -682.000
291.289;  -32.600; -343.000; -110.000
291.428; -156.800; -599.000; -480.000
291.567; -102.800; -370.000; -442.000
291.706;    5.500;  109.000;  154.000
291.845; -163.200; -597.000; -505.000
291.984; -309.600;-1234.000;-1061.000
292.122;  199.700;  602.000;  582.000
292.261;  141.500;  620.000;  463.000
292.400;   72.400; -144.000;  211.000
292.539; -192.000; -959.000; -813.000
292.678;  -37.600; -325.000; -300.000
292.816; -266.300;-1136.000; -965.000
292.955; -159.700; -844.000; -684.000
293.094;  -15.000; -173.000; -337.000
293.233;  -78.400; -556.000; -400.000
293.371;  -22.800; -225.000;  -84.000
293.510; -193.500; -866.000; -780.000
293.649; -220.800; -959.000; -924.000
293.787; -141.600;-1083.000;-1012.000
293.926;   27.200; -113.000;  -32.000
294.065;  -74.600; -379.000; -290.000
294.203;  134.500;  298.000;  406.000
294.342;   94.900;   74.000;  156.000
294.481;11871.000;51180.000; -836.000
294.619;  -37.500; -425.000; -582.000
294.758; -267.800;-1230.000;-1137.000
294.896;  141.700; -125.000;    5.000
295.035; -237.500;-1040.000;-1006.000
295.174; -221.500;-1082.000; -954.000
295.312;  -30.200; -323.000; -203.000
295.451;  -43.300; -307.000; -428.000
295.589;  -85.800; -389.000; -518.000
295.728;   54.600; -292.000; -165.000
295.866;   60.800;  -36.000;  -51.000
296.005; -120.600; -584.000; -341.000
296.143; -102.300; -558.000; -596.000
296.282; -194.800; -957.000; -881.000
296.420; -100.400; -657.000; -557.000
296.559; -176.800; -892.000; -633.000
296.697;   38.700; -847.000; -665.000
296.835;   84.100;-1141.000;-1002.000
296.974;  118.000;  -23.000;   39.000
297.112;   30.300; -443.000; -504.000
297.251; -138.000; -815.000; -755.000
297.389;  164.200; -576.000; -438.000
297.527;  115.900; -145.000;  -83.000
297.666;  -71.500; -486.000; -438.000
297.804;  -74.400; -404.000; -264.000
297.942;   24.400; -136.000; -161.000
298.081;   35.900; -183.000;   63.000
298.219;  140.200;  -17.000;  -19.000
298.357;   92.600; -144.000;  -71.000
298.495;   42.100; -810.000; -812.000
298.634;  171.800;  245.000;  219.000
298.772;  117.900; -220.000; -338.000
298.910;  -56.400; -309.000; -182.000
299.048;  -12.900; -130.000; -153.000
299.187;  -23.200; -350.000; -250.000
299.325;   70.300;   52.000;  122.000
299.463;  117.100; -389.000; -299.000
299.601;  213.400; -327.000; -271.000
299.739; -180.400; -908.000; -883.000
299.877; -127.200; -791.000; -703.000
300.016;  -65.100;-1095.000; -935.000
300.154;  291.100;  -19.000; -161.000
300.292;   88.600; -428.000; -348.000
300.430;   69.500; -408.000; -291.000
300.568; -156.900; -940.000; -874.000
300.706;  -45.600; -366.000; -469.000
300.844; -137.500;-1108.000; -979.000
300.982;  265.400;  246.000;  282.000
301.120; -197.300; -965.000; -866.000
301.258; -138.500; -812.000; -705.000
301.396;  110.700;  104.000;  -41.000
301.534;  148.300; -218.000; -293.000
301.672;   53.100; -664.000; -521.000
301.810;   70.200; -613.000; -545.000
301.948;  255.400;   53.000;  149.000
302.086;  988.200; -250.000;  -32.000
302.224; 1616.600; -610.000; -585.000
302.362;   68.000; -558.000; -622.000
302.500;  -45.700; -923.000; -893.000
302.638;  224.300;  128.000;  245.000
302.776;   38.200; -352.000; -408.000
302.913;  164.200;  447.000;  236.000
303.051;   24.600;  -86.000;  -23.000
303.189;  144.600;   90.000;  118.000
303.327;  -57.100; -341.000; -256.000
303.465; -128.300; -832.000; -588.000
303.603; -129.300; -805.000; -604.000
303.740;  212.700;  417.000;  241.000
303.878;   80.900; -800.000; -759.000
304.016; -179.000; -915.000; -790.000
304.154; -228.000;-1123.000;-1152.000
304.291;  -57.300; -505.000; -554.000
304.429;   69.400;  102.000;   74.000
304.567; -246.300; -908.000; -893.000
304.705; -101.300; -408.000; -515.000
304.842;  135.000; -616.000; -540.000
304.980;  170.000;  215.000;   35.000
305.118;  109.400; -367.000; -365.000
305.255; -150.700; -945.000; -927.000
305.393;  130.100;  178.000;  239.000
305.531; -193.800;-1173.000; -956.000
305.668; -103.000; -663.000; -582.000
305.806;  190.900; -358.000; -439.000
305.943;  190.600; -629.000; -637.000
306.081;  105.000; -378.000; -267.000
306.219; -185.500; -863.000; -748.000
306.356;   71.600;  158.000;   27.000
306.494;  273.000;  981.000;  761.000
306.631;   31.600;  -11.000;  -55.000
306.769;   25.500; -613.000; -485.000
306.906;   25.300; -284.000; -258.000
307.044;  -79.800; -473.000; -488.000
307.181;  -51.800; -410.000; -332.000
307.319;  109.100;  112.000;   87.000
307.456; -287.900;-1191.000;-1153.000
307.594; -170.400; -980.000; -727.000
307.731;   27.900; -371.000; -164.000
307.868;   29.900;  -15.000;   20.000
308.006; -223.200; -961.000; -847.000
308.143; -118.200; -618.000; -330.000
308.281;  405.400;  -37.000; -254.000
308.418;   23.000; -748.000; -640.000
308.555;  -73.900; -400.000; -250.000
308.693; -138.000; -577.000; -573.000
308.830; -165.700; -712.000; -657.000
308.967;   13.700; -215.000;  -95.000
309.105;  -10.700; -507.000; -396.000
309.242;  125.500; -468.000; -367.000
309.379;  712.900; -577.000; -655.000
309.517;  -85.300; -936.000; -948.000
309.654; -152.000; -910.000; -734.000
309.791; -142.400; -662.000; -580.000
309.928; -174.600; -977.000; -914.000
310.065;  400.300;  819.000;  697.000
310.203;  -26.800; -825.000; -850.000
310.340;    0.500; -465.000; -321.000
310.477; -118.200; -412.000; -516.000
310.614; -118.500; -383.000; -473.000
310.751;  -94.500; -427.000; -518.000
310.889;    9.700;    1.000;   11.000
311.026; -265.700;-1161.000; -939.000
311.163;  -62.000; -386.000; -380.000
311.300; -112.000; -512.000; -479.000
311.437; -140.100; -658.000; -619.000
311.574; -273.600;-1226.000; -985.000
311.711;  -92.700; -595.000; -433.000
311.848;  -16.800; -380.000; -388.000
311.985;   72.500;  270.000;   93.000
312.122; -178.400; -932.000; -762.000
312.259; -192.700; -941.000; -994.000
312.396;  -95.500; -508.000; -551.000
312.533; -147.700; -812.000; -790.000
312.670; -201.200;-1070.000; -898.000
312.807;    2.800; -352.000; -367.000
312.944;  -70.200; -513.000; -611.000
313.081;  -20.200; -150.000; -415.000
313.218; -197.500;-1111.000; -867.000
313.355;   50.200; -531.000; -449.000
313.492;   72.400; -455.000; -292.000
313.629;  320.000;  815.000;  735.000
313.766; -260.100;-1176.000;-1008.000
313.902;   11.000; -186.000;   21.000
314.039;  -57.100; -372.000; -289.000
314.176;   82.000;  286.000;  192.000
314.313;  -83.400; -569.000; -473.000
314.450; -117.700; -788.000; -684.000
314.587;  -61.500; -468.000; -480.000
314.723;   26.400;  -78.000;  130.000
314.860;  138.000;  318.000;  332.000
314.997;   93.800;  223.000;  142.000
315.134;  -25.800; -385.000; -368.000
315.270;  -57.000; -480.000; -496.000
315.407; -222.300;-1094.000; -967.000
315.544;  -75.400; -657.000; -538.000
315.681;  -51.200; -681.000; -565.000
315.817;   65.600; -133.000; -176.000
315.954;   68.600; -613.000; -392.000
316.091; -243.300;-1045.000;-1023.000
316.227;   17.800;  -71.000; -179.000
316.364;   59.300;   23.000;    6.000
316.500;  -42.300; -113.000; -300.000
316.637;  -33.400; -181.000; -302.000
316.774; -128.200; -625.000; -358.000
316.910; -154.700; -598.000; -629.000
317.047;  -64.800; -487.000; -351.000
317.183;  -73.600; -435.000; -566.000
317.320;   32.700; -367.000; -321.000
317.456; -126.500; -733.000; -805.000
317.593; -127.200; -598.000; -641.000
317.729;   42.100;  168.000;  -67.000
317.866; -352.800;-1434.000;-1285.000
318.002; -136.600; -708.000; -948.000
318.139; -171.100; -883.000; -867.000
318.275; -192.700;-1003.000; -738.000
318.412;  -59.400; -517.000; -336.000
318.548;  -54.900; -751.000; -720.000
318.685; -180.900; -985.000; -888.000
318.821; -150.200; -762.000; -735.000
318.957;   38.900;   34.000;  -23.000
319.094;  101.800;  297.000;  154.000
319.230;  -81.300; -756.000; -742.000
319.367;  220.200; -471.000; -520.000
319.503;  137.700; -538.000; -436.000
319.639; -161.300; -877.000; -793.000
319.775; -112.000; -750.000; -685.000
319.912;  -79.500; -424.000; -519.000
320.048; -184.900;-1184.000;-1184.000
320.184;  188.300;   59.000;   70.000
320.321;  -76.700; -497.000; -467.000
320.457;  171.800;  475.000;  662.000
320.593;  -87.100; -375.000; -382.000
320.729; -187.100; -732.000; -734.000
320.866; -131.600; -577.000; -635.000
321.002; -162.100; -759.000; -809.000
321.138;   12.500; -135.000; -211.000
321.274;  158.000; -148.000; -115.000
321.410;  -29.100; -585.000; -353.000
321.546;  -63.700;-1011.000; -911.000
321.683;  159.100;  400.000;  185.000
321.819;   82.500;  -48.000; -117.000
321.955; -219.700; -743.000; -722.000
322.091;  -99.800; -585.000; -540.000
322.227;   24.000; -382.000; -202.000
322.363;  -14.800; -320.000; -215.000
322.499;  -52.400; -343.000; -331.000
322.635;  324.100;  636.000;  443.000
322.771;   51.900; -139.000;   12.000
322.907;  202.700;  129.000;  327.000
323.043;   -5.100; -115.000; -206.000
323.179;  -37.400; -394.000; -363.000
323.315;   73.900; -401.000; -371.000
323.451;  203.000; -328.000; -236.000
323.587;  181.700;  -60.000;  -77.000
323.723;   34.300; -682.000; -601.000
323.859;  -38.100; -258.000;  -76.000
323.995;  -60.100; -467.000; -409.000
324.131; -213.100; -967.000; -892.000
324.267;  -44.700; -254.000; -276.000
324.402; -220.900; -960.000; -983.000
324.538;   -2.300; -279.000; -104.000
324.674;   89.600;  164.000;   77.000
324.810;  303.900;  226.000;  308.000
324.946;   58.300; -810.000; -658.000
325.082; -119.600; -568.000; -475.000
325.217;    2.400;  -62.000;   16.000
325.353; -156.200; -764.000; -659.000
325.489; -148.900; -540.000; -506.000
325.625; -101.400; -579.000; -525.000
325.760;  173.000;  517.000;  376.000
325.896;  -31.800; -515.000; -702.000
326.032;  -43.100; -403.000; -352.000
326.168;  -80.200; -462.000; -369.000
326.303;  -60.100; -352.000; -461.000
326.439;    7.800; -336.000; -276.000
326.575;   44.400; -190.000;  -29.000
326.710;   35.100; -156.000;  -30.000
326.846;   62.400;  146.000;  103.000
326.982; -131.300; -530.000; -548.000
327.117; -128.900; -481.000; -442.000
327.253; -156.300; -745.000; -742.000
327.388; -242.700;-1137.000;-1153.000
327.524;  -24.700; -811.000; -578.000
327.659;   -9.800;  -58.000;  -22.000
327.795;   40.500;   69.000;   45.000
327.931; -105.100; -723.000; -499.000
328.066;   -5.900; -417.000; -276.000
328.202;   48.600;   12.000; -129.000
328.337;  219.600;  957.000;  713.000
328.473;    5.200;  -12.000;  -74.000
328.608;   13.700; -256.000; -267.000
328.743; -119.700; -799.000; -664.000
328.879;   75.600;  214.000;  114.000
329.014;  -69.600; -102.000; -122.000
329.150; -136.100; -358.000; -483.000
329.285;  -98.800; -465.000; -466.000
329.421;  -62.600; -548.000; -246.000
329.556;   -2.100;  -36.000;   85.000
329.691; -160.300; -633.000; -615.000
329.827; -104.300; -626.000; -480.000
329.962;  -59.800;  131.000; -301.000
330.097; -131.500; -673.000; -585.000
330.233;  -88.600; -410.000; -223.000
330.368; -189.300; -839.000; -628.000
330.503;   -6.100;    3.000;   98.000
330.638;   38.400;  -93.000; -125.000
330.774;  -77.500; -609.000; -530.000
330.909;  -28.500; -434.000; -244.000
331.044; -158.400; -714.000; -708.000
331.179; -309.400;-1217.000;-1109.000
331.315;   69.000;   77.000;   20.000
331.450;   87.800;  157.000;  285.000
331.585; -164.000; -805.000; -706.000
331.720; -114.400; -510.000; -460.000
331.855;   23.500;  -35.000; -102.000
331.990;  538.800;   62.000;  138.000
332.126;  270.300; -110.000;   71.000
332.261;   18.500; -379.000; -265.000
332.396;    7.100; -135.000; -242.000
332.531; -148.300;-1074.000;-1031.000
332.666;  101.200; -519.000; -363.000
332.801; -170.600; -726.000; -807.000
332.936;    3.000; -192.000; -122.000
333.071; -206.100; -870.000; -817.000
333.206;   58.800;  307.000;  379.000
333.341;  128.400;  344.000;  418.000
333.476; -121.900; -627.000; -623.000
333.611;   -0.900; -251.000; -173.000
333.746;  -43.700; -381.000; -464.000
333.881; -190.900; -973.000; -935.000
334.016; -212.300; -936.000; -917.000
334.151; -214.200; -746.000; -702.000
334.286;  125.200;  152.000;  186.000
334.421;   34.300; -125.000; -178.000
334.556; -127.300; -611.000; -567.000
334.690; -127.700; -631.000; -577.000
334.825;  171.600;  381.000;   83.000
334.960;  -63.100; -285.000; -413.000
335.095;   54.800;  135.000;  -91.000
335.230; -175.900; -722.000; -738.000
335.365; -290.800;-1084.000; -990.000
335.499; -241.300;-1108.000;-1037.000
335.634;  100.400;    9.000;  534.000
335.769; -165.600; -755.000; -720.000
335.904; -100.800; -603.000; -561.000
336.038;  -77.600; -735.000; -657.000
336.173; -251.500;-1206.000;-1194.000
336.308;   44.300; -116.000; -189.000
336.443;   62.900; -544.000; -634.000
336.577; -113.800; -936.000; -787.000
336.712;  153.400;   -4.000;  -12.000
336.847;  -63.100; -724.000; -607.000
336.981;  128.700; -272.000; -208.000
337.116;  543.800;  615.000;  501.000
337.250;  258.800; -434.000; -421.000
337.385;  552.700; -297.000; -208.000
337.520;  240.000; -632.000; -603.000
337.654;  -40.200; -215.000; -126.000
337.789; -245.800; -989.000; -933.000
337.923;  -16.100; -104.000; -205.000
338.058; -151.000; -673.000; -738.000
338.192;  -15.800; -611.000; -488.000
338.327;   14.400;  -18.000; -155.000
338.461;  -47.800; -299.000; -469.000
338.596; -153.800; -780.000; -638.000
338.730; -147.700; -767.000; -803.000
338.865;  207.400;  -46.000; -140.000
338.999;  -41.300; -846.000; -702.000
339.134;  -12.400; -634.000; -536.000
339.268;   44.000; -741.000; -603.000
339.403;  672.600; -740.000; -775.000
339.537;  301.200; -894.000; -820.000
339.671; -185.800; -829.000; -813.000
339.806;  -97.300; -556.000; -512.000
339.940;  104.200; -261.000; -235.000
340.074; -116.700; -685.000; -510.000
340.209;  -42.200; -351.000; -230.000
340.343; -137.500; -517.000; -573.000
340.477;  339.100;  998.000; 1036.000
340.612;  -72.300;-1033.000; -900.000
340.746;  298.600; -199.000; -243.000
340.880;  -98.800; -924.000; -785.000
341.014;   13.700;  -45.000; -154.000
341.149; -177.900; -756.000; -718.000
341.283; -199.000; -839.000; -754.000
341.417; -153.500;-1124.000; -938.000
341.551;  180.900; -768.000; -708.000
341.685;  -31.400; -633.000; -611.000
341.820;  -83.500; -562.000; -493.000
341.954;  -49.400; -218.000; -349.000
342.088; -272.000;-1102.000;-1019.000
342.222;  154.100;  565.000;  618.000
342.356; -105.200; -395.000; -335.000
342.490; -147.700; -880.000; -841.000
342.624;  -66.100; -339.000; -242.000
342.758;   34.200; -364.000; -312.000
342.892; -124.700; -710.000; -585.000
343.026;  -29.800;  -58.000; -116.000
343.160;  -67.800; -426.000; -376.000
343.294; -131.000; -474.000; -337.000
343.428;  -28.700; -488.000; -448.000
343.562;   48.200; -172.000;  -23.000
343.696;   -7.800; -385.000; -314.000
343.830;    8.200; -362.000; -356.000
343.964;   49.900; -231.000; -168.000
344.098; 1572.600;  199.000;   70.000
344.232; 1279.300; -266.000; -127.000
344.366;  219.500; -567.000; -453.000
344.500;  116.700; -665.000; -744.000
344.634;   90.500; -324.000; -164.000
344.768;    2.500; -531.000; -341.000
344.902;   46.200;  278.000;  256.000
345.035; -130.700; -556.000; -496.000
345.169; -219.700; -933.000; -656.000
345.303;  -13.100; -308.000; -482.000
345.437; -131.600; -826.000; -717.000
345.571;  -95.100; -675.000; -594.000
345.704;  -98.700; -309.000; -532.000
345.838;    6.900; -331.000; -284.000
345.972;  -25.200; -543.000; -495.000
346.106;  345.700; -179.000; -190.000
346.239;  782.200; -312.000; -243.000
346.373;   50.000; -343.000; -302.000
346.507; -228.500; -950.000; -962.000
346.640;  257.900;  -30.000;   13.000
346.774;  -55.800; -650.000; -797.000
346.908;   14.600; -138.000;  -11.000
347.041; -119.700; -646.000; -593.000
347.175;   52.000;  259.000;   27.000
347.309; -101.300; -698.000; -628.000
347.442; -191.000; -883.000; -732.000
347.576;  538.500;  670.000;  668.000
347.709;  407.900; -123.000;  -52.000
347.843; -145.400; -933.000; -825.000
347.976;  120.500;  235.000;  294.000
348.110; -288.100;-1268.000;-1186.000
348.243; -172.400; -679.000; -772.000
348.377;   58.200;  -26.000;   60.000
348.510;  163.500;  403.000;  540.000
348.644;  -32.900;  -37.000; -159.000
348.777;   36.600;  180.000;  191.000
348.911;  -43.600; -142.000; -112.000
349.044;  321.500;  471.000;  448.000
349.178;  232.400;-1069.000;-1006.000
349.311;  275.700;  141.000;  255.000
349.444;    0.900; -927.000; -813.000
349.578;    9.400; -347.000; -200.000
349.711; -147.500; -959.000; -862.000
349.845;   11.600; -661.000; -591.000
349.978; -275.500;-1224.000;-1137.000
350.111; -122.100; -546.000; -612.000
350.244; -126.400; -596.000; -700.000
350.378;   35.800; -392.000; -393.000
350.511;  -92.000; -393.000; -426.000
350.644; -177.700; -808.000; -806.000
350.778;   86.100;  168.000;  104.000
350.911;   48.700;  134.000;  140.000
351.044; -119.300; -685.000; -615.000
351.177;  -32.300; -321.000; -281.000
351.310;   24.400;    3.000; -131.000
351.444; -163.700; -888.000; -788.000
351.577;  262.800;  140.000;   90.000
351.710;  224.100;  593.000;  417.000
351.843;  -15.200; -165.000;  -77.000
351.976;   53.500;  149.000;  -79.000
352.109; -161.500; -621.000; -612.000
352.242;  -27.800; -464.000; -419.000
352.376;  -91.700; -580.000; -636.000
352.509;  315.900; -437.000; -356.000
352.642;  -17.100; -654.000; -604.000
352.775;  125.200; -141.000;  -98.000
352.908; -163.200; -933.000; -904.000
353.041; -173.500; -814.000; -824.000
353.174;  -38.700; -551.000; -424.000
353.307; -158.000; -753.000; -764.000
353.440;  167.800;  541.000;  453.000
353.573; -217.800; -957.000;-1008.000
353.706;  -82.400; -384.000; -558.000
353.839;  -31.600; -264.000; -220.000
353.971; -145.500; -657.000; -512.000
354.104; -171.500; -896.000; -835.000
354.237;  -23.800; -627.000; -662.000
354.370; -153.100; -846.000; -879.000
354.503; -289.400;-1231.000;-1308.000
354.636;  -50.000; -529.000; -348.000
354.769; -229.000; -937.000; -860.000
354.902;    1.200; -230.000; -139.000
355.034;    2.700; -164.000; -220.000
355.167;  -23.100; -262.000; -162.000
355.300; -149.100;-1061.000; -880.000
355.433; 1880.300;  -71.000;  -14.000
355.565; 3020.600; -402.000; -384.000
355.698;  739.600; -356.000; -296.000
355.831;   -5.600; -882.000; -801.000
355.964;  154.100; -285.000; -170.000
356.096; -109.400; -856.000; -843.000
356.229;   35.300; -523.000; -530.000
356.362;  658.200; -373.000; -266.000
356.494; 1233.200; -229.000; -162.000
356.627;  940.700;  269.000;  377.000
356.760; 1327.100;  120.000;   53.000
356.892; 1948.800; -286.000; -601.000
357.025; 1190.800;  403.000;  389.000
357.157; 1058.700; -167.000; -179.000
357.290; 1316.300; -856.000; -713.000
357.423;  447.400; -667.000; -556.000
357.555;  218.300; -217.000; -228.000
357.688;  229.600; -483.000; -364.000
357.820;  708.700; -870.000; -877.000
357.953; 6018.200; -563.000; -589.000
358.085; 1331.200; -632.000; -612.000
358.218; 1944.800;-1131.000; -932.000
358.350;  381.900;  -58.000;  312.000
358.483; -201.400;-1300.000;-1187.000
358.615;  -21.800;-1182.000;-1078.000
358.747;  -87.600;-1187.000;-1058.000
358.880;   54.200; -810.000; -744.000
359.012;   46.100; -376.000; -202.000
359.145;  -13.000; -480.000; -511.000
359.277;   73.000; -962.000; -913.000
359.409; 5131.700;  536.000;  231.000
359.542; 1275.900; -738.000; -688.000
359.674;  151.800;   46.000;   13.000
359.806;  -48.700; -565.000; -438.000
359.939;  -40.800; -617.000; -516.000
360.071;    8.500; -583.000; -579.000
360.203;   -5.600; -411.000; -364.000
360.335;  149.100;  164.000;  -16.000
360.468;  367.500; -249.000; -307.000
360.600; 4182.800; -547.000; -454.000
360.732; 5427.200; -546.000; -423.000
360.864;  709.200;-1216.000;-1044.000
360.996;  526.100; -516.000; -554.000
361.129;  114.200; -389.000; -598.000
361.261;   72.400;  110.000; -113.000
361.393;   11.900; -252.000; -214.000
361.525;   77.900;   94.000;  244.000
361.657;  -49.800; -821.000; -703.000
361.789;   40.500; -139.000; -155.000
361.921;  424.600; -642.000; -593.000
362.053;  520.300;  524.000;  541.000
362.185;  149.100;  288.000;   72.000
362.318; -124.300; -709.000; -705.000
362.450;  277.000;  294.000;  444.000
362.582;  163.900; -913.000; -870.000
362.714;  -33.100; -353.000; -332.000
362.846; -125.400; -606.000; -490.000
362.978; -228.400; -941.000; -811.000
363.109;  117.000; -161.000; -260.000
363.241;  846.400; -739.000; -749.000
363.373;  858.300; -649.000; -564.000
363.505; 1391.300; -186.000;  -91.000
363.637;  324.000; -787.000; -601.000
363.769; -188.000;-1067.000;-1080.000
363.901; -118.200; -596.000; -654.000
364.033; -189.900;-1103.000;-1062.000
364.165;   34.100; -283.000; -283.000
364.296;  217.500; -316.000; -177.000
364.428;  134.400;-1344.000;-1220.000
364.560;  -88.700; -679.000; -661.000
364.692; -113.100; -738.000; -835.000
364.824;  469.200; -588.000; -456.000
364.955;  819.400; -402.000; -564.000
365.087; 1812.100;-1097.000; -852.000
365.219;   84.400; -686.000; -816.000
365.351;  -86.600; -526.000; -572.000
365.482;  136.900;  300.000;  240.000
365.614;  -32.100; -402.000; -314.000
365.746; -165.700; -729.000; -752.000
365.877; -132.600; -706.000; -672.000
366.009;  520.400;  -35.000;  -62.000
366.141; -139.300;-1249.000;-1134.000
366.272; -177.200; -803.000; -719.000
366.404; -195.000;-1005.000; -874.000
366.535;   60.500; -139.000;  -12.000
366.667; -125.800; -644.000; -649.000
366.799;  158.200;  353.000;  203.000
366.930; -191.000; -862.000; -996.000
367.062;  244.000; -639.000; -613.000
367.193;  325.000; -872.000; -842.000
367.325;  -87.600; -580.000; -684.000
367.456;  162.500; -246.000;   31.000
367.588;  321.500; -371.000; -318.000
367.719;  106.700;  -44.000;  -45.000
367.851;    7.600; -222.000; -241.000
367.982;  -71.300; -875.000; -732.000
368.113;  170.900; -475.000; -358.000
368.245; -195.100; -960.000; -841.000
368.376;  -27.300; -254.000; -302.000
368.508;  -12.400; -188.000; -263.000
368.639; -223.600;-1166.000;-1034.000
368.770;  -18.000; -670.000; -589.000
368.902;  -88.400; -836.000; -926.000
369.033; -161.500; -906.000; -855.000
369.164;  -37.300; -720.000; -653.000
369.296; -138.100; -452.000; -601.000
369.427;   59.700; -209.000; -144.000
369.558;  -39.500; -593.000; -377.000
369.689; -156.900; -721.000; -569.000
369.821; -201.000; -951.000; -845.000
369.952;   12.500;   42.000; -108.000
370.083;  -32.100; -229.000; -108.000
370.214; -129.700; -735.000; -650.000
370.345;   64.600;   65.000;   81.000
370.477; -157.400; -810.000; -790.000
370.608;  436.000; -328.000; -264.000
370.739; -125.000;-1233.000;-1292.000
370.870;  -46.500;-1102.000; -923.000
371.001;  176.500; -378.000; -467.000
371.132; -100.000; -754.000; -735.000
371.263;  -13.100;  -42.000; -148.000
371.394; -215.800; -841.000; -748.000
371.525;  121.800;  345.000;  225.000
371.657; -137.200; -808.000; -670.000
371.788;  199.500;  103.000;  199.000
371.919;  354.600; -384.000; -304.000
372.050; 6093.200;  -91.000; -156.000
372.181; 1774.800; -188.000; -294.000
372.311;  673.900;   42.000; -127.000
372.442;   59.700; -457.000; -451.000
372.573;   -3.500; -444.000; -340.000
372.704; -189.200;-1008.000; -980.000
372.835;  161.300; -228.000; -289.000
372.966; -112.500; -646.000; -554.000
373.097; -138.000; -575.000; -711.000
373.228;  -19.000; -717.000; -542.000
373.359;  249.000; -824.000; -536.000
373.490; 1529.000; -881.000; -727.000
373.620; 1909.300;-1001.000; -803.000
373.751; 3008.200; -332.000; -396.000
373.882; 1239.200; -663.000; -733.000
374.013;  176.500; -449.000; -262.000
374.143;  -49.900; -581.000; -659.000
374.274; -171.400; -987.000; -908.000
374.405;  329.300; -388.000; -276.000
374.536;  796.000; -526.000; -387.000
374.666; 1793.000; -759.000; -807.000
374.797;  395.700; -817.000; -868.000
374.928; 1440.300; -710.000; -560.000
375.058; 1485.600; -535.000; -500.000
375.189;  147.800;  -59.000;  -93.000
375.320; -151.800; -928.000;-1034.000
375.450;  -54.000; -625.000; -616.000
375.581;  -27.200; -526.000; -436.000
375.712;  -44.100; -574.000; -250.000
375.842;  547.500; -438.000; -415.000
375.973;  384.700; -554.000; -513.000
376.103;  -40.400; -665.000; -648.000
376.234; -144.000; -531.000; -552.000
376.364;  -48.300; -944.000; -867.000
376.495;  662.800;  925.000;  529.000
376.625;   13.500; -472.000; -485.000
376.756;  115.500; -709.000; -678.000
376.886; -121.700;-1178.000;-1026.000
377.017;  130.200;-1048.000;-1061.000
377.147;  687.700; -786.000; -782.000
377.278;  169.100;  174.000;  228.000
377.408; -212.600; -801.000; -815.000
377.538; -160.700; -707.000; -693.000
377.669; -110.100; -537.000; -613.000
377.799; -148.800; -645.000; -635.000
377.929;  -93.900; -610.000; -428.000
378.060; -231.000; -781.000; -847.000
378.190;  -34.800; -726.000; -531.000
378.320;  -55.900; -401.000; -406.000
378.451;   50.300; -131.000;  -22.000
378.581;   22.800;  -67.000; -110.000
378.711;  342.600; 1035.000;  866.000
378.841;   16.400; -533.000; -675.000
378.972; -110.400; -871.000; -751.000
379.102;  -14.600; -652.000; -579.000
379.232;  -25.500; -126.000;  -73.000
379.362; -178.700;-1001.000; -885.000
379.492;   80.800; -373.000; -424.000
379.623;  210.900;    0.000;  111.000
379.753; -145.000;-1107.000; -974.000
379.883;  426.400;   59.000;  156.000
380.013;   31.900;-1081.000;-1017.000
380.143; -193.900;-1097.000;-1056.000
380.273; -167.900; -985.000; -861.000
380.403;   28.900; -344.000; -257.000
380.533;  -10.700; -651.000; -664.000
380.663;  178.500;  173.000;  128.000
380.793; -153.900;-1027.000;-1074.000
380.923;    3.600; -103.000;  -34.000
381.053; -126.900; -613.000; -623.000
381.183;    8.500; -106.000; -248.000
381.313;   94.200; -656.000; -470.000
381.443;   93.300; -692.000; -473.000
381.573;  383.000; -402.000; -409.000
381.703;  465.000;-1249.000;-1095.000
381.833; -251.300;-1454.000;-1336.000
381.963;  231.500; -134.000;  -87.000
382.093; 2387.000; -925.000; -909.000
382.223;  666.800; -713.000; -602.000
382.353;   -0.700; -801.000; -608.000
382.482;  614.300;-1091.000; -964.000
382.612; 1341.400; -872.000; -644.000
382.742;  728.300; -695.000; -622.000
382.872;  456.900; -565.000; -551.000
383.002;  167.000;  347.000; -132.000
383.131;   37.200; -226.000; -160.000
383.261;  -47.900; -706.000; -768.000
383.391;  592.500; -552.000; -377.000
383.521; 6222.300;  451.000;  263.000
383.650; 1459.100; -947.000; -904.000
383.780;    8.800; -783.000; -656.000
383.910;  306.700;  880.000;  802.000
384.039;   53.100; -794.000; -656.000
384.169;  368.300;-1205.000;-1017.000
384.299;  -12.100; -650.000; -662.000
384.428; -114.000; -764.000; -680.000
384.558;  -50.700; -308.000; -275.000
384.687;   -5.900; -414.000; -334.000
384.817;   91.800;   75.000;   -2.000
384.947;  114.900; -234.000; -141.000
385.076;  617.800;  982.000;  912.000
385.206;  265.900;  369.000;  480.000
385.335;   -5.400; -549.000; -417.000
385.465; -103.700; -655.000; -663.000
385.594;  266.300;  -53.000;  -44.000
385.724;  722.300; -868.000; -838.000
385.853;  221.500; -296.000; -270.000
385.982; 2304.200; -743.000; -787.000
386.112; 3394.700;-1052.000; -871.000
386.241;  274.400; -307.000; -312.000
386.371;  120.000; -174.000;  -87.000
386.500;   77.900; -825.000; -789.000
386.629;   80.800; -874.000; -817.000
386.759;  169.100;  -43.000;   68.000
386.888;   49.100; -170.000; -250.000
387.017;  -68.200; -648.000; -620.000
387.147;  -89.500; -771.000; -798.000
387.276;   65.400; -410.000; -397.000
387.405;   34.100; -398.000; -342.000
387.535;  -45.100; -452.000; -361.000
387.664;  -97.500; -692.000; -620.000
387.793;  172.500; -198.000; -113.000
387.922;  911.000;  255.000;  200.000
388.052;   70.000; -576.000; -423.000
388.181;   59.600; -342.000; -472.000
388.310;   43.200; -889.000; -710.000
388.439;  -85.500; -749.000; -742.000
388.568;  380.000;  365.000;  244.000
388.697; 1740.300; -756.000; -653.000
388.826;  360.000; -768.000; -666.000
388.956;  145.500; -285.000; -307.000
389.085;   18.800; -347.000; -287.000
389.214; -172.100; -842.000; -872.000
389.343; -102.100; -645.000; -413.000
389.472;  875.500;  126.000;  149.000
389.601; 1019.400;   91.000;    0.000
389.730;   61.100; -568.000; -687.000
389.859;  205.100;  226.000;   46.000
389.988;  357.700; -423.000; -408.000
390.117;  293.400; -168.000; -146.000
390.246;   20.400; -331.000; -320.000
390.375;  187.900; -673.000; -626.000
390.504;  -89.000; -703.000; -621.000
390.633; -137.300; -672.000; -726.000
390.761; -105.400; -732.000; -645.000
390.890;   83.200;   -4.000; -130.000
391.019;  -27.400; -421.000; -441.000
391.148; -192.900; -826.000; -855.000
391.277; -109.400; -576.000; -493.000
391.406; -118.500; -821.000; -805.000
391.534;  115.200;  574.000; -301.000
391.663;  -59.800; -583.000; -645.000
391.792; -132.800; -673.000; -701.000
391.921;  198.400;   -3.000;   15.000
392.050;  354.000; -287.000; -228.000
392.178;  -81.700;-1206.000;-1061.000
392.307;  262.200; -758.000; -712.000
392.436;  112.600; -427.000; -641.000
392.564;  106.500;  166.000;   -6.000
392.693; -144.300; -860.000; -682.000
392.822;  379.000; -529.000; -534.000
392.950;  181.600; -880.000; -714.000
393.079;  578.800; -188.000; -328.000
393.208;   69.900; -488.000; -511.000
393.336;   48.500; -170.000; -145.000
393.465;  -31.800; -317.000; -199.000
393.593;   57.000;   62.000;   79.000
393.722; -236.900;-1121.000; -916.000
393.850;   13.200; -188.000;  -61.000
393.979; -225.600; -926.000; -805.000
394.107;  -86.500; -517.000; -537.000
394.236;   28.000; -570.000; -507.000
394.364;  533.000;  383.000;  206.000
394.493;  814.700; -911.000; -767.000
394.621;   46.800; -955.000; -916.000
394.750; 1480.500; -873.000; -923.000
394.878; 5977.900; -247.000; -149.000
395.007; 7712.800; -721.000; -807.000
395.135;  550.700; -790.000; -721.000
395.263;  -92.300;-1038.000;-1040.000
395.392;   56.100;  -25.000; -107.000
395.520; -136.000; -818.000; -679.000
395.648; -142.100; -865.000; -915.000
395.777;    2.000; -366.000; -405.000
395.905;  -31.400; -449.000; -564.000
396.033;   95.400;  217.000;  172.000
396.162; 1342.400; -399.000; -453.000
396.290; 1117.300;  -17.000;   -2.000
396.418;  202.600; -555.000; -514.000
396.546;  -96.100; -571.000; -466.000
396.674; -158.500; -850.000; -878.000
396.803;  114.900;  -72.000;  -23.000
396.931;  178.700; -179.000; -199.000
397.059;   55.700;-1026.000; -989.000
397.187; -187.700;-1026.000; -975.000
397.315; -223.300; -884.000; -649.000
397.443; -164.700; -592.000; -443.000
397.572; -120.800; -578.000; -424.000
397.700;    3.100; -607.000; -614.000
397.828;   93.100;  120.000;  -90.000
397.956;  -64.300; -508.000; -478.000
398.084;  -75.900; -767.000; -626.000
398.212;  112.000;  137.000;  124.000
398.340;  115.400;  -56.000;  159.000
398.468;   52.100; -390.000; -169.000
398.596; -201.600; -993.000; -953.000
398.724; -207.700; -762.000; -767.000
398.852; -267.200;-1024.000; -976.000
398.980; -105.300; -560.000; -560.000
399.108; -102.000; -982.000; -735.000
399.236;   91.500;   13.000;    8.000
399.363;   94.000;  222.000;  196.000
399.491;  -83.100; -404.000; -398.000
399.619; -185.400; -829.000; -800.000
399.747; -151.100; -859.000; -771.000
399.875;  221.500;  220.000;  234.000
400.003;  -60.100; -359.000; -284.000
400.130; -118.300; -421.000; -341.000
400.258;   -0.500;  -83.000;   38.000
400.386;  -37.000; -352.000; -168.000
400.514;  -51.300; -526.000; -587.000
400.641; -115.500; -928.000; -802.000
400.769; -261.000; -979.000; -888.000
400.897; -145.300; -838.000; -793.000
401.025;   26.200; -166.000; -152.000
401.152;   99.200;  220.000;   38.000
401.280;  -87.100; -430.000; -429.000
401.408; -167.300; -712.000; -576.000
401.535; -172.400; -735.000; -758.000
401.663; -311.000;-1134.000;-1054.000
401.790;  -82.800; -514.000; -525.000
401.918;  176.000;  436.000;  405.000
402.046;   28.600;  134.000;  122.000
402.173;  -13.200;  -18.000;    7.000
402.301;  -59.400; -519.000; -397.000
402.428;  158.000;  528.000;  383.000
402.556; -234.800;-1188.000; -913.000
402.683;   37.300;  -20.000;   -1.000
402.811;    5.000;  -37.000; -206.000
402.938;   52.100;   20.000;   27.000
403.066;  344.100; -574.000; -558.000
403.193;  584.000;  299.000;  239.000
403.321;  455.700; -396.000; -574.000
403.448;  577.100;   83.000;   27.000
403.575;  277.300;  -90.000;  -46.000
403.703; -154.700; -732.000; -557.000
403.830;  -81.200; -531.000; -496.000
403.957; -209.500;-1117.000;-1023.000
404.085;   82.100;  -61.000; -172.000
404.212;  283.400;  -50.000;   63.000
404.339;  604.100; -566.000; -306.000
404.467;11821.000; -612.000; -524.000
404.594; 7104.000; -287.000; -227.000
404.721; 1568.700; -869.000; -764.000
404.848;  172.900; -113.000; -202.000
404.976; -158.900; -856.000; -783.000
405.103;   37.100;  -14.000;  -82.000
405.230;   70.500;  190.000;  226.000
405.357;   93.300;  117.000;   44.000
405.484;  603.000;  -49.000;    5.000
405.612;  110.100; -548.000; -563.000
405.739;   -7.000; -488.000; -243.000
405.866;  213.100;  669.000;  385.000
405.993;  -11.900; -398.000; -102.000
406.120; -230.900; -801.000; -887.000
406.247;   -6.500; -323.000; -342.000
406.374;  850.600;  540.000;  629.000
406.501;  183.900; -632.000; -702.000
406.628; -130.400; -621.000; -589.000
406.755; -134.100; -803.000; -620.000
406.882;  -26.900; -228.000; -277.000
407.009; -131.900; -719.000; -628.000
407.136;  140.700; -480.000; -401.000
407.263;  231.800; -939.000; -829.000
407.390; -108.500; -692.000; -614.000
407.517; -262.900;-1139.000;-1187.000
407.644;  -59.800; -332.000; -256.000
407.771;  -65.400; -249.000; -287.000
407.898;   71.700;  168.000;  328.000
408.025;  -76.700; -421.000; -313.000
408.151;   45.900;   82.000;  153.000
408.278;  -46.800; -267.000; -216.000
408.405; -205.500; -931.000; -899.000
408.532;  -79.400; -549.000; -542.000
408.659; -202.000; -677.000; -648.000
408.785; -314.900;-1298.000;-1170.000
408.912;  -57.000; -412.000; -296.000
409.039; -157.900; -610.000; -686.000
409.166; -117.600; -591.000; -555.000
409.292; -186.300; -571.000; -534.000
409.419; -178.600; -665.000; -649.000
409.546;  -73.400; -431.000; -192.000
409.672; -172.300; -713.000; -545.000
409.799;    6.600;  -36.000;   34.000
409.926;   -8.300; -180.000; -179.000
410.052; -285.400;-1127.000;-1091.000
410.179;  -67.300; -368.000; -392.000
410.305; -106.100; -375.000; -493.000
410.432;  -56.500; -220.000; -333.000
410.558; -116.000; -305.000; -380.000
410.685; -156.100; -688.000; -431.000
410.812;  -89.200; -409.000; -588.000
410.938; -240.800; -964.000; -808.000
411.065; -122.000; -671.000; -645.000
411.191;  -11.300; -189.000; -174.000
411.317; -183.000; -823.000; -742.000
411.444;  -69.700; -317.000; -246.000
411.570;  -70.300; -339.000; -294.000
411.697; -195.100; -758.000; -752.000
411.823; -285.400; -989.000; -999.000
411.949;   -8.200;  -56.000;   17.000
412.076; -127.000; -539.000; -519.000
412.202; -181.400; -758.000; -757.000
412.329; -220.700; -798.000; -752.000
412.455; -193.300; -821.000; -657.000
412.581;   44.500;  -15.000;  172.000
412.707;  -94.600; -540.000; -457.000
412.834;   90.800;  156.000;  219.000
412.960; -133.600; -785.000; -784.000
413.086; -133.500; -743.000; -701.000
413.212;  321.000;  604.000;  578.000
413.339;  -90.400; -685.000; -701.000
413.465;   42.900; -364.000; -310.000
413.591; -163.000; -757.000; -474.000
413.717;  -55.300; -358.000; -366.000
413.843; -203.600; -839.000; -861.000
413.969;  -43.800;  -47.000; -292.000
414.096; -116.900; -679.000; -679.000
414.222;   55.000;  -33.000;   85.000
414.348;   11.900; -652.000; -385.000
414.474;  188.000;   38.000;  -52.000
414.600;   32.000; -126.000; -144.000
414.726;   65.400;  -96.000;  -55.000
414.852;  -79.400; -365.000; -342.000
414.978;  114.700;  104.000;  -18.000
415.104;  149.800;   38.000;   80.000
415.230;  112.400; -329.000; -330.000
415.356;  126.200; -409.000; -514.000
415.482;  423.600;   13.000;  -35.000
415.608;  617.800; -247.000; -323.000
415.734; 2056.200;   67.000;   38.000
415.860;40969.600; -875.000; -767.000
415.986;27160.300; -685.000; -607.000
416.111; 2239.900; -798.000; -652.000
416.237;  504.500; -424.000; -571.000
416.363; 2443.500; -765.000; -733.000
416.489; 8196.400; -324.000; -251.000
416.615;  813.800; -707.000; -742.000
416.741;  -17.300; -677.000; -784.000
416.866;  -99.900; -673.000; -736.000
416.992; -192.500; -801.000; -818.000
417.118;   45.000;  -41.000;  -80.000
417.244;  -69.800; -798.000; -531.000
417.369;  -76.900; -801.000; -612.000
417.495;   15.800; -325.000; -254.000
417.621; -140.100;-1015.000; -803.000
417.746;   37.400; -579.000; -572.000
417.872;  179.300; -254.000; -144.000
417.998;  182.300; -515.000; -530.000
418.123; 2270.800;-1073.000; -845.000
418.249;10739.300; -512.000; -601.000
418.374; 1378.500; -916.000; -824.000
418.500;  235.700; -383.000; -482.000
418.626;  296.700;   70.000;  -59.000
418.751;  289.400; -549.000; -448.000
418.877;  422.000; -637.000; -643.000
419.002; 3992.200; -688.000; -560.000
419.128;25197.500; -930.000; -721.000
419.253; 5510.400; -967.000; -837.000
419.379;  863.600; -391.000; -338.000
419.504;  794.900;  325.000;  415.000
419.629; 1132.400; -393.000; -212.000
419.755; 7772.600; -317.000; -254.000
419.880;41472.200;  -98.000;   67.000
420.006;23255.000; -280.000; -221.000
420.131;56257.300; -662.000; -775.000
420.256; 7303.300; -315.000; -316.000
420.382; 1073.000; -665.000; -687.000
420.507;  166.800; -649.000; -778.000
420.632;  289.200; -337.000; -339.000
420.758;  391.300; -251.000; -425.000
420.883;  -86.300; -876.000; -672.000
421.008; -137.700; -775.000; -619.000
421.133;  -88.100; -509.000; -467.000
421.259;  -20.600; -325.000; -259.000
421.384; -173.700; -834.000; -693.000
421.509;  -70.000;-1052.000; -862.000
421.634; 1937.200; -936.000; -820.000
421.759;  726.800; -359.000; -327.000
421.885;  -43.200; -717.000; -656.000
422.010; -127.900; -673.000; -542.000
422.135; -227.900; -695.000; -727.000
422.260;  145.700;  340.000;  280.000
422.385;    0.100;   12.000;  -98.000
422.510;  105.700;  151.000;  -26.000
422.635;  132.400;  -87.000;  -43.000
422.760;  232.300; -766.000; -791.000
422.885;  157.600;  -57.000;  -80.000
423.010;  -11.800; -112.000; -169.000
423.135; -109.900; -481.000; -561.000
423.260;   26.400; -150.000; -245.000
423.385;  225.800;  476.000;  222.000
423.510;   91.800;   71.000;  -22.000
423.635;  216.800;  133.000;   45.000
423.760;  179.800;  383.000;  328.000
423.885;  198.100;  336.000;  391.000
424.010;   83.800;  -68.000;  -13.000
424.135;   46.700;    5.000;  -33.000
424.259; -100.600; -654.000; -457.000
424.384;  -30.900; -279.000; -272.000
424.509;    0.000; -260.000; -186.000
424.634; -114.900; -761.000; -623.000
424.759;  -21.000; -688.000; -544.000
424.883;   44.200; -506.000; -527.000
425.008;  402.000; -502.000; -410.000
425.133; 4152.500; -679.000; -653.000
425.258; 1712.700; -517.000; -381.000
425.382; 1854.200; -867.000; -774.000
425.507; 4254.100; -487.000; -543.000
425.632;  797.800; -802.000; -663.000
425.756;  901.100; -256.000; -146.000
425.881;14108.300; -831.000; -857.000
426.006;34047.300; -604.000; -355.000
426.130; 4822.300; -696.000; -508.000
426.255;  656.600; -611.000; -491.000
426.379;  356.300; -189.000; -577.000
426.504;  845.700;  660.000;  544.000
426.629; 8534.000; -519.000; -466.000
426.753; 5170.900;   64.000;  -46.000
426.878;  694.000; -252.000; -288.000
427.002;  404.000; -651.000; -668.000
427.127; 3447.800;  -35.000; -158.000
427.251;22989.400;  372.000;  401.000
427.375; 5730.800; -191.000; -173.000
427.500; 3906.600; -616.000; -610.000
427.624; 1191.100; -234.000; -400.000
427.749;  198.200; -216.000; -225.000
427.873;  -42.000; -499.000; -412.000
427.997;   -6.800; -222.000; -230.000
428.122;  272.100;  795.000;  703.000
428.246;  204.300;  433.000;  434.000
428.371; -185.600; -869.000; -773.000
428.495; -152.600; -624.000; -646.000
428.619;   31.700; -186.000; -117.000
428.743;  101.400;   65.000;  132.000
428.868;   78.100; -732.000; -643.000
428.992; 2358.600; -219.000; -326.000
429.116;  929.900; -329.000; -357.000
429.240;  535.500;  419.000;  426.000
429.365;   26.300; -454.000; -574.000
429.489;  -19.500; -638.000; -647.000
429.613;  135.800; -236.000; -177.000
429.737;  133.900; -563.000; -432.000
429.861;  627.200; -247.000; -133.000
429.985;11824.500; -425.000; -305.000
430.109;11742.100; -770.000; -908.000
430.234; 1324.300;   76.000;  -50.000
430.358;  214.200; -250.000; -160.000
430.482;  -98.500; -672.000; -564.000
430.606;  -43.900; -655.000; -375.000
430.730;  109.600; -437.000; -388.000
430.854;  236.600; -909.000; -835.000
430.978; -109.000; -795.000; -764.000
431.102;  -94.900; -499.000; -422.000
431.226; -175.000; -874.000; -815.000
431.350;  163.900;  345.000;  422.000
431.474;  -85.700; -661.000; -373.000
431.597; -236.400;-1060.000; -848.000
431.721;  -95.000; -276.000; -267.000
431.845; -195.000; -704.000; -472.000
431.969;  -70.700; -304.000; -349.000
432.093; -103.400; -395.000; -317.000
432.217;   32.900;   32.000;   82.000
432.341; -131.800; -523.000; -518.000
432.464;   33.700;   96.000;   40.000
432.588;  421.800; -401.000; -329.000
432.712;  185.800;  -52.000;  -52.000
432.836;  156.700;  213.000;  263.000
432.959;   31.600; -372.000; -311.000
433.083;  257.000;   11.000;    2.000
433.207;  852.300;  285.000;  930.000
433.330;10825.100; -391.000; -200.000
433.454;12045.700; -654.000; -638.000
433.578; 7095.600;  583.000;  278.000
433.701; 1208.600; -623.000; -675.000
433.825;  292.400; -292.000; -299.000
433.949;  307.700;   28.000;  -72.000
434.072;  101.000; -410.000; -323.000
434.196;   29.300; -309.000; -117.000
434.319; 7872.300;25482.000;25124.000
434.443; 1530.400; -656.000; -603.000
434.566; 5364.200;  281.000;   62.000
434.690;  821.600; -637.000; -383.000
434.813;  120.700; -251.000; -173.000
434.937; -111.800; -569.000; -696.000
435.060;  -56.000; -423.000; -332.000
435.184;  532.400; -492.000; -217.000
435.307;  324.800;  159.000;  102.000
435.431;   23.100;  -40.000;   24.000
435.554;  -61.700; -399.000; -240.000
435.677; -104.300; -350.000; -258.000
435.801;   34.500;  -25.000;   49.000
435.924;   21.500;    1.000;  -67.000
436.048; -187.800;-1019.000; -732.000
436.171;  -87.800; -240.000;  -66.000
436.294;   49.800; -248.000; -229.000
436.417;  229.600; -963.000; -849.000
436.541; -108.800; -814.000; -840.000
436.664;  -37.600; -242.000; -316.000
436.787;   83.500;   13.000;  113.000
436.910; -155.800; -792.000; -422.000
437.034;   68.500;  142.000;  143.000
437.157;  161.100;  -11.000;    0.000
437.280;  -50.800; -392.000; -292.000
437.403; -149.800; -982.000; -869.000
437.526; 1102.800; -903.000; -865.000
437.649; 3461.300; -505.000; -332.000
437.772;  460.300; -692.000; -540.000
437.896;  246.600;  700.000;  544.000
438.019; -129.100; -758.000; -503.000
438.142; -130.200; -596.000; -506.000
438.265;   20.600; -639.000; -670.000
438.388; 1015.600; -520.000; -410.000
438.511;  185.700; -597.000; -394.000
438.634;  -62.500; -247.000; -125.000
438.757; -189.600; -693.000; -619.000
438.880;  -19.400;  -34.000;  -57.000
439.003;  -85.000; -417.000; -437.000
439.126;  -66.100; -287.000; -167.000
439.248;  -47.500;  -98.000; -139.000
439.371;  -28.700;    9.000;  -53.000
439.494;  148.000;  510.000;  439.000
439.617;  -41.500;   65.000;  -88.000
439.740; -278.600; -968.000; -816.000
439.863; -242.300; -755.000; -595.000
439.986; -160.700; -476.000; -431.000
440.108;  -22.800; -161.000; -112.000
440.231; -278.000; -950.000; -836.000
440.354;   14.400;  -64.000; -150.000
440.477;  103.000; -566.000; -542.000
440.599;   39.700; -200.000; -225.000
440.722; -173.700; -709.000; -586.000
440.845;  201.000;  751.000;  928.000
440.968; -138.500; -415.000; -311.000
441.090;  -48.800; -199.000;  -33.000
441.213; -256.800;-1021.000; -825.000
441.336;  -52.600; -159.000;   -5.000
441.458; -126.900; -549.000; -396.000
441.581; -104.000; -628.000; -629.000
441.703;  -69.200; -152.000;   13.000
441.826; -181.000; -557.000; -400.000
441.948;  -15.000;   56.000;   51.000
442.071;  131.400;  555.000;  424.000
442.193; -173.600; -531.000; -485.000
442.316;   98.300;  152.000;   97.000
442.438;  159.600; -233.000;  -10.000
442.561;  195.400;  272.000;  262.000
442.683;  953.300; -809.000; -522.000
442.806; 1858.700;   -8.000;   74.000
442.928;   12.200; -859.000; -604.000
443.051; -102.200; -577.000; -373.000
443.173; -108.500; -341.000; -339.000
443.295; -122.400; -263.000; -371.000
443.418;  -64.000; -321.000;  -29.000
443.540;   71.900; -106.000;   -4.000
443.662; -179.700; -563.000; -465.000
443.785;   51.200;  335.000;  199.000
443.907; -136.500; -362.000; -208.000
444.029; -207.000; -767.000; -494.000
444.152; -203.800; -644.000; -554.000
444.274;    0.300;  -18.000;  -24.000
444.396; -143.700; -461.000; -221.000
444.518; -216.400; -691.000; -454.000
444.640; -138.700; -268.000; -111.000
444.763;   60.300;  388.000;  249.000
444.885; -145.100; -432.000; -392.000
445.007;  -16.400;   35.000;   86.000
445.129; -171.700; -610.000; -515.000
445.251; -191.900; -372.000; -439.000
445.373; -191.700; -537.000; -386.000
445.495;   65.200;  242.000;  350.000
445.617;  215.300;  853.000;  753.000
445.739;  -89.600; -215.000;  -97.000
445.861;  -26.300; -245.000; -112.000
445.984;  -29.300; -267.000; -101.000
446.105;  411.300; -418.000; -251.000
446.227; 1006.500; -176.000;  -19.000
446.349;  -33.200; -358.000; -249.000
446.471; -167.500; -615.000; -448.000
446.593;  -66.300; -316.000;   19.000
446.715;   92.400;  -67.000;   41.000
446.837;  215.500;  697.000;  832.000
446.959; -175.700; -457.000; -478.000
447.081; -192.000; -628.000; -518.000
447.203;  201.700;  862.000;  834.000
447.325; -102.300; -270.000;   42.000
447.446;   36.700;  286.000;  530.000
447.568; -242.400; -921.000; -803.000
447.690; -102.400; -236.000; -245.000
447.812; -238.500; -798.000; -519.000
447.933;    1.500;  155.000;  127.000
448.055;  -75.200; -306.000; -261.000
448.177;  317.800;   31.000;   79.000
448.299;  126.500; -935.000; -727.000
448.420;   69.000;  -25.000;  159.000
448.542;   16.200;   -3.000;   33.000
448.664;   10.700;  109.000;  322.000
448.785;   -6.200;  265.000;   83.000
448.907;  -89.300; -614.000; -353.000
449.028;  -40.800; -771.000; -471.000
449.150;  184.100;  492.000;  589.000
449.272; -282.900;-1044.000; -913.000
449.393;  127.700;  612.000;  694.000
449.515; -190.900; -634.000; -581.000
449.636;  -50.100; -264.000; -155.000
449.758;  227.700;  763.000;  622.000
449.879; -129.100; -498.000; -396.000
450.001;  -32.100; -149.000;  -49.000
450.122;  -19.800;  -95.000;  162.000
450.244;   22.800;   37.000;  364.000
450.365; -120.400; -495.000; -301.000
450.486;  -24.300;   80.000;  268.000
450.608;  116.200;  393.000;  326.000
450.729;  223.100;  578.000;  645.000
450.850;   83.000; -574.000; -466.000
450.972; 1695.700; -552.000; -389.000
451.093;10215.700;  190.000;  588.000
451.214; 3866.700; -516.000; -337.000
451.336;  774.700;  773.000;  579.000
451.457;  210.500;  264.000;  393.000
451.578;    2.000; -118.000;  -74.000
451.699; -136.200; -546.000; -540.000
451.821;  -65.200; -284.000;  -50.000
451.942;   62.700;  278.000;  285.000
452.063;  171.400;  228.000;  419.000
452.184; 1285.900;  -54.000;  -49.000
452.305; 2238.100;  103.000;  170.000
452.427;  257.500; -549.000; -301.000
452.548;   38.500;   23.000;   79.000
452.669;  -19.100; -257.000;  -89.000
452.790;  -33.000;    3.000;  -18.000
452.911;   80.000;  195.000;  259.000
453.032;  -83.000; -289.000;  -60.000
453.153;  -16.200;  -29.000;   81.000
453.274;  230.100;  737.000;  868.000
453.395;    2.800;  -51.000;  175.000
453.516;  306.800; 1317.000; 1388.000
453.637;  -69.400; -205.000; -150.000
453.758;  -55.100;   15.000;   69.000
453.879; -168.600; -462.000; -250.000
454.000;  244.500; 1086.000;  948.000
454.121; -167.300; -554.000; -326.000
454.242; -183.400; -599.000; -383.000
454.362;   -2.200;  -99.000;  114.000
454.483;  -20.000; -309.000; -229.000
454.604;  205.400;  512.000;  580.000
454.725; -205.100; -627.000; -555.000
454.846; -175.400; -474.000; -406.000
454.967;   24.700;  230.000;  539.000
455.087;  -23.800;  179.000;  153.000
455.208;  100.100;  554.000;  856.000
455.329;  -82.900;  -22.000;   82.000
455.450;  192.000;  473.000;  633.000
455.570;  -94.000; -234.000; -211.000
455.691;  -36.400;  201.000;  407.000
455.812; -138.900; -270.000;  -92.000
455.932;  -47.600;  107.000;  -97.000
456.053;  -82.900;   36.000;   24.000
456.173; -167.500; -433.000; -355.000
456.294; -173.400; -476.000; -303.000
456.415;  -45.400;  -73.000;   70.000
456.535;  -15.300;  297.000;  273.000
456.656;  -31.400;  132.000;  240.000
456.776;  -51.900;    3.000;  298.000
456.897;   45.700;  308.000;  513.000
457.017;  -66.000; -153.000;   -3.000
457.138; -159.200; -402.000; -249.000
457.258;    3.500;  263.000;  224.000
457.379;   35.400;  509.000;  521.000
457.499;   53.900;  443.000;  432.000
457.620; -209.600; -407.000; -231.000
457.740; -127.200; -132.000;  -11.000
457.860;  -61.200;   87.000;   44.000
457.981;  -47.100;  132.000;  124.000
458.101; -126.900;  -89.000;   40.000
458.221;   46.600;  336.000;  402.000
458.342;  -62.000;   -4.000;  -37.000
458.462;  143.000;  617.000;  352.000
458.582;  -25.700; -302.000; -294.000
458.703;  117.400;  303.000;  154.000
458.823;    8.500;   22.000;  163.000
458.943;  161.900;  341.000;  467.000
459.063;   22.000; 1124.000;  192.000
459.183;   39.900;  328.000;  313.000
459.304;   88.900;  315.000;  517.000
459.424;  -56.000; -246.000;  -89.000
459.544;  732.700;  388.000;  764.000
459.664; 1693.900;  499.000;  506.000
459.784;  611.400; 1004.000; 1175.000
459.904;  203.900;  867.000;  744.000
460.024;  228.300;  867.000;  684.000
460.144;   98.000;  449.000;  554.000
460.264;   76.600;  515.000;  327.000
460.385; -120.700; -145.000; -119.000
460.505;  131.800;  905.000;  858.000
460.625; -157.200;  -17.000;  -68.000
460.745;    0.200;  396.000;  541.000
460.864;  -18.300;  153.000;  469.000
460.984;  128.800;  499.000;  573.000
461.104;  389.200; 1656.000; 1775.000
461.224;   85.400;  657.000;  650.000
461.344;   54.900;  431.000;  360.000
461.464;  -16.600;  258.000;  513.000
461.584;   65.500;  283.000;  466.000
461.704;  -60.500;   58.000;  108.000
461.824;  -34.300;  238.000;  259.000
461.943;  -16.500;  191.000;  130.000
462.063;  -83.500;    2.000;  324.000
462.183;  145.700;  639.000;  717.000
462.303;  282.700; 1678.000; 1230.000
462.422;  133.100;  781.000;  840.000
462.542;    3.900;  271.000;  391.000
462.662;  132.300;  353.000;  380.000
462.782;  609.500;  833.000;  572.000
462.901; 1054.800;  545.000;  717.000
463.021;  636.700; 1702.000; 1638.000
463.141;   59.100;  337.000;  770.000
463.260;   67.100;  614.000;  474.000
463.380;   65.400;  902.000;  884.000
463.499;  -24.600;  342.000;  332.000
463.619;   -3.100;  581.000;  559.000
463.738;  305.900; 1644.000;  903.000
463.858;   87.400;  657.000;  811.000
463.978;   40.200;  542.000;  396.000
464.097;  164.300;  921.000; 1114.000
464.217;  340.200; 1196.000; 1143.000
464.336;  279.900; 1068.000; 1130.000
464.455;   22.800;  328.000;  659.000
464.575;  148.100;  597.000;  602.000
464.694;  435.100; 1204.000; 1179.000
464.814;  336.300; 1190.000; 1138.000
464.933;  218.500; 1095.000; 1027.000
465.052;  248.100; 1412.000; 1054.000
465.172;  248.300;  922.000;  799.000
465.291;  349.100; 1376.000; 1320.000
465.410;  124.300;  462.000;  735.000
465.530;  244.400; 1355.000; 1310.000
465.649;  203.500; 1209.000; 1273.000
465.768;  347.900; 1673.000; 1508.000
465.888;  168.600;  941.000; 1174.000
466.007;  268.400; 1335.000; 1440.000
466.126;   81.600;  721.000;  641.000
466.245;  117.700; 1176.000; 1187.000
466.364;  175.600;  950.000; 1060.000
466.484;  211.300; 1024.000; 1213.000
466.603;  190.800; 1101.000; 1222.000
466.722;  317.700; 1490.000; 1769.000
466.841;  237.900; 1151.000; 1401.000
466.960;  166.600; 1069.000;  972.000
467.079;  349.400; 1971.000; 1786.000
467.198;  184.800; 1238.000; 1181.000
467.317;  277.100; 1768.000; 1162.000
467.436;  225.200; 1709.000; 1261.000
467.555;  341.700; 1796.000; 1746.000
467.674;  187.100; 1227.000; 1329.000
467.793;  164.700; 1376.000; 1374.000
467.912;  236.700; 1658.000; 1539.000
468.031;  386.900; 2038.000; 1930.000
468.150;  370.200; 1842.000; 1837.000
468.269;  453.900; 2313.000; 2090.000
468.388;  422.900; 2168.000; 2339.000
468.507;  616.100; 2884.000; 2903.000
468.626;  643.600; 2555.000; 2541.000
468.744;  364.800; 2018.000; 2174.000
468.863;  455.600; 2312.000; 2523.000
468.982;  277.100; 1503.000; 1555.000
469.101;  506.000; 2788.000; 2692.000
469.220;  385.600; 2333.000; 2176.000
469.338;  593.400; 2935.000; 3051.000
469.457;  491.100; 2719.000; 2545.000
469.576;  781.900; 3953.000; 3784.000
469.695;  585.400; 2877.000; 3066.000
469.813;  912.600; 4148.000; 4192.000
469.932;  897.600; 4255.000; 4485.000
470.051;  868.900; 4075.000; 4161.000
470.169; 1899.600; 4470.000; 4338.000
470.288; 3066.300; 4700.000; 4809.000
470.406; 1780.600; 5059.000; 5194.000
470.525; 1349.300; 6101.000; 5787.000
470.644; 1362.100; 6847.000; 6794.000
470.762; 1722.000; 8397.000; 7873.000
470.881; 1897.300; 8651.000; 8464.000
470.999; 2199.700; 9685.000; 9151.000
471.118; 2347.800;11174.000;10711.000

