
Integration time [ms]: 100.000
Averaging Nr. [scans]: 40
Smoothing Nr. [pixels]: 0
Data measured with spectrometer [name]: 2101012U2
Wave   ;Sample   ;Dark     ;Reference
[nm]   ;[counts] ;[counts] ;[counts] 

197.733;   64.975;  516.000;  404.000
197.879;  -81.275; -610.000; -634.000
198.025;  -52.225; -475.000; -420.000
198.171;  -69.000; -602.000; -612.000
198.317;  -14.675; -401.000; -316.000
198.463;  -62.025; -655.000; -404.000
198.609;   35.625;  181.000; -137.000
198.755;  -86.625; -644.000; -410.000
198.901;  -42.600; -505.000; -424.000
199.047;  -66.700; -615.000; -488.000
199.193;  -17.975; -230.000; -468.000
199.339;  -48.375; -222.000; -369.000
199.485;   51.400;  330.000;  271.000
199.631;   10.600;  227.000;  310.000
199.777;  -40.375; -466.000; -398.000
199.923;  -60.750; -610.000; -424.000
200.069;    7.425; -141.000;  -58.000
200.215;   51.250;  128.000;  453.000
200.361;   61.250;  243.000;  477.000
200.507;  -69.400; -600.000; -373.000
200.653;  -26.200; -371.000; -194.000
200.798;  -41.350; -215.000; -125.000
200.944;  -12.075; -146.000;  -41.000
201.090;   26.425;   61.000;  222.000
201.236;   16.800; -116.000; -158.000
201.382;  123.975;  874.000;  903.000
201.528;   16.925;  -58.000;  -48.000
201.674;  -37.800; -386.000; -293.000
201.819;  -54.300; -540.000; -439.000
201.965;  -83.250; -699.000; -447.000
202.111;  -19.150; -273.000; -226.000
202.257;  -34.725; -250.000; -238.000
202.402;   17.775;   13.000;  -36.000
202.548;  -32.025; -169.000; -116.000
202.694;   92.475;  410.000; -183.000
202.840;  -77.075; -603.000; -531.000
202.985;  -62.675; -681.000; -639.000
203.131; -114.050; -832.000; -666.000
203.277;  -19.500; -199.000; -262.000
203.423;  -47.575; -434.000; -520.000
203.568;  -29.275; -462.000; -237.000
203.714;  -49.575; -535.000; -542.000
203.860;  -61.325; -682.000; -641.000
204.005;   15.500;  112.000;  167.000
204.151;   80.200;  561.000;  556.000
204.296;  -33.375; -354.000; -221.000
204.442;  -56.125; -600.000; -547.000
204.588;  -74.000; -592.000; -579.000
204.733;   19.525;  178.000;  168.000
204.879; -130.750;-1018.000; -822.000
205.025;   20.450;  -99.000;  126.000
205.170;  -18.225;  -17.000;   94.000
205.316;   92.525;  438.000;  661.000
205.461;  -77.575; -698.000; -554.000
205.607;   78.500;  609.000;  665.000
205.752;  -67.225; -626.000; -551.000
205.898;  -42.875; -501.000; -391.000
206.043;  -55.950; -578.000; -506.000
206.189;  -30.375; -243.000; -285.000
206.334;   66.875;  554.000;  606.000
206.480;   89.800;  409.000;  239.000
206.625;  -77.450; -529.000; -552.000
206.771;  -43.400; -451.000; -373.000
206.916;  -33.575; -210.000; -537.000
207.062;  -66.325; -545.000; -591.000
207.207;  -61.625; -546.000; -443.000
207.353;   47.850;  185.000;  460.000
207.498;    9.400;  196.000;   85.000
207.643;  -47.050; -501.000; -370.000
207.789; -133.100;-1069.000; -910.000
207.934;  -89.525; -665.000; -713.000
208.080;  -37.175; -154.000;   66.000
208.225;   10.125;  -22.000;  -57.000
208.370;  -93.950; -727.000; -619.000
208.516;  -60.700; -741.000; -487.000
208.661;  -35.325; -127.000;  -69.000
208.806;   -5.400; -165.000; -171.000
208.952; -125.350;-1044.000; -731.000
209.097;   79.425;  378.000;  349.000
209.242;  -44.250; -307.000; -382.000
209.387;   77.025;  392.000;  350.000
209.533;  -55.700; -321.000; -350.000
209.678;   90.875;  472.000;  543.000
209.823;  -51.375; -408.000; -310.000
209.969;  -89.600; -860.000; -757.000
210.114; -101.925; -907.000; -719.000
210.259; -104.850; -939.000; -889.000
210.404;   -1.425; -171.000;  103.000
210.549;   18.700;  108.000;    3.000
210.695;  -21.025;   -3.000;  -95.000
210.840;   32.800;   94.000;   67.000
210.985;  -64.800; -484.000; -303.000
211.130;   79.100;  268.000;  406.000
211.275;   17.625;  207.000;  199.000
211.420;  -38.250; -300.000; -289.000
211.566;  -62.525; -536.000; -489.000
211.711;   28.000;  218.000;  157.000
211.856;  -74.550; -545.000; -519.000
212.001;   15.025;  151.000;   44.000
212.146;   23.850;  153.000;   49.000
212.291;  -21.225; -210.000; -186.000
212.436;  -28.300; -280.000;   -6.000
212.581;  -73.250; -685.000; -653.000
212.726;  -71.675; -487.000; -538.000
212.871;  -41.000; -552.000; -217.000
213.016; -140.950;-1172.000;-1029.000
213.161;   60.825;  406.000;  291.000
213.306;  -67.500; -435.000; -577.000
213.451;  -85.600; -778.000; -689.000
213.596;  -48.825; -455.000; -347.000
213.741;  -41.250; -448.000; -538.000
213.886;  -86.325; -498.000; -517.000
214.031;  -15.800; -294.000; -124.000
214.176;  -57.800; -408.000; -341.000
214.321;  -20.700; -296.000; -157.000
214.466;  -42.675; -163.000;  -43.000
214.611;   -4.175;  -61.000;  -10.000
214.756; -124.775; -948.000; -858.000
214.901;   -6.650; -388.000; -226.000
215.046; -146.650; -797.000; -825.000
215.191;   27.075;  128.000;   35.000
215.336;  -22.050; -157.000;  -19.000
215.480;  -43.450; -684.000; -505.000
215.625;  -15.225; -175.000;  -19.000
215.770;  -79.525; -757.000; -662.000
215.915;  -15.900;   -5.000;  -97.000
216.060;   -6.075; -113.000;  -21.000
216.205; -116.200; -731.000; -779.000
216.349;  -62.775; -470.000; -533.000
216.494; -142.350; -939.000; -867.000
216.639; -109.725; -823.000; -888.000
216.784;  -93.450; -577.000; -525.000
216.929;   52.125;  392.000;  281.000
217.073;  -10.325; -244.000;  -31.000
217.218;    7.750;   78.000;  -47.000
217.363;  -93.650; -656.000; -618.000
217.507;  -67.650; -623.000; -588.000
217.652; -129.225; -845.000; -874.000
217.797;  -78.100; -708.000; -659.000
217.942; -106.475; -856.000; -720.000
218.086;   67.600;  608.000;  539.000
218.231;  -21.475; -174.000;  -26.000
218.376;  -23.525; -337.000; -229.000
218.520;   -3.900;  -41.000;   96.000
218.665;  -20.625; -338.000; -204.000
218.810;  -53.350; -275.000; -233.000
218.954;   28.750;  201.000;   35.000
219.099; -111.300; -713.000; -963.000
219.243;  -58.925; -589.000; -554.000
219.388;  -40.025; -264.000; -136.000
219.532;  -17.400; -116.000; -116.000
219.677;  -83.675; -564.000; -521.000
219.822;   19.500;   33.000;   89.000
219.966;    0.025;   17.000;  -99.000
220.111;   -8.350; -328.000;  -40.000
220.255;  -99.600; -797.000; -750.000
220.400;   -2.525; -180.000; -146.000
220.544;  -61.175; -516.000; -450.000
220.689;  -46.000; -422.000; -451.000
220.833;  -12.325; -123.000;  -58.000
220.978;  -44.525; -393.000; -563.000
221.122;   23.575;  319.000;  307.000
221.267; -108.700; -906.000; -837.000
221.411;  -72.025; -478.000; -394.000
221.555;   -0.525; -104.000;  -23.000
221.700;  -54.350; -329.000; -222.000
221.844;   43.325;  255.000;  272.000
221.989;  -61.425; -328.000; -311.000
222.133;  -33.975; -289.000; -307.000
222.277;  -21.775;    5.000;   78.000
222.422;   35.150;  227.000;  113.000
222.566;  -50.325; -381.000; -214.000
222.711;  -43.325; -414.000; -479.000
222.855;  -91.800; -643.000; -586.000
222.999;  -69.800; -642.000; -717.000
223.144;  -35.325; -195.000; -194.000
223.288;   63.050;  423.000;  251.000
223.432;   25.900;  184.000;  230.000
223.576;   16.275;  152.000;  -21.000
223.721;   40.675;  364.000;  273.000
223.865;  -45.975; -472.000; -475.000
224.009;  239.200; 1673.000; 1631.000
224.153;  -64.775; -660.000; -671.000
224.298;  -70.575; -531.000; -489.000
224.442;  -23.650;  -74.000;  -33.000
224.586;  -22.650; -169.000; -106.000
224.730;  -82.675; -858.000; -670.000
224.875; -113.700; -739.000; -688.000
225.019;   16.475;  102.000;  188.000
225.163;   44.150;  208.000;  341.000
225.307;   24.400;   97.000;  -91.000
225.451;   44.350;  360.000;  481.000
225.595;   39.000;  264.000;  176.000
225.739;  -18.400; -170.000;  -94.000
225.884;   18.125;   86.000;    5.000
226.028;  -96.200; -760.000; -626.000
226.172;  -21.600; -260.000; -273.000
226.316; -119.300; -941.000; -902.000
226.460;  -62.025; -645.000; -493.000
226.604;  -46.900; -406.000; -400.000
226.748;  -93.875; -836.000; -733.000
226.892;  -38.075; -227.000; -181.000
227.036;  -32.850; -537.000; -447.000
227.180;  -52.175; -551.000; -375.000
227.324;  -47.525; -561.000; -580.000
227.468; -120.800; -819.000; -717.000
227.612;   10.925;  242.000;  -28.000
227.756; -100.375; -845.000; -698.000
227.900;   63.275;  342.000;  441.000
228.044;  -72.100; -509.000; -290.000
228.188;   71.900;  448.000;  568.000
228.332;  -87.975; -546.000; -472.000
228.476;  -15.875; -223.000; -149.000
228.620;  -40.325; -210.000; -150.000
228.764;   78.625;  431.000;  349.000
228.908;  -24.350; -155.000;   30.000
229.052;  -71.850; -615.000; -528.000
229.195;  -18.300; -172.000;   13.000
229.339;  -32.025; -235.000; -305.000
229.483;  -26.575;    5.000; -162.000
229.627;    5.300; -156.000;  139.000
229.771;  -42.350; -218.000; -294.000
229.915;   27.800;  230.000;   79.000
230.059;  -93.250; -648.000; -663.000
230.202;  -37.175; -370.000; -317.000
230.346;  -18.200; -107.000;  107.000
230.490;  -50.175; -489.000; -521.000
230.634;  -94.850; -736.000; -553.000
230.777;   83.675;  478.000;  509.000
230.921;  -66.150; -450.000; -359.000
231.065;  -41.600; -246.000; -286.000
231.209;   14.375;  261.000;  265.000
231.352;   24.350;   54.000;   40.000
231.496;    6.550;  568.000;  188.000
231.640;  -71.450; -693.000; -621.000
231.783;   58.625;  546.000;  525.000
231.927;  -39.325; -294.000; -365.000
232.071; -116.575; -962.000; -736.000
232.214; -111.700; -980.000; -764.000
232.358; -102.275; -683.000; -599.000
232.502;   23.050;  -19.000;    7.000
232.645; -141.325;-1090.000; -927.000
232.789;  -25.425; -257.000; -218.000
232.933;  -32.825; -407.000; -224.000
233.076; -114.000;-1038.000; -897.000
233.220; -105.500; -752.000; -777.000
233.363;  -69.400; -669.000; -477.000
233.507;   53.750;  371.000;  129.000
233.650;  -84.200; -764.000; -834.000
233.794;   38.775;  438.000;  461.000
233.938;  -48.100; -530.000; -362.000
234.081;  -15.275;  -93.000;   31.000
234.225;  -69.475; -631.000; -539.000
234.368; -116.850; -773.000; -723.000
234.512;  -29.675; -385.000; -299.000
234.655;  -84.950; -582.000; -555.000
234.798;  -61.100; -493.000; -466.000
234.942; -123.125; -884.000;-1002.000
235.085;  -70.500; -651.000; -443.000
235.229;  -79.625; -405.000; -410.000
235.372;  -47.000; -247.000; -191.000
235.516;  -69.050; -397.000; -321.000
235.659;   23.550;   92.000;  121.000
235.802;  -23.625;  -38.000;  -22.000
235.946;   34.925;  335.000;  215.000
236.089;   18.475;  126.000;  250.000
236.233;   51.000;  275.000;  298.000
236.376;  -60.125; -235.000; -378.000
236.519;  -50.400; -297.000; -319.000
236.663;  -24.750; -215.000; -117.000
236.806; -123.275;-1029.000; -999.000
236.949;   54.825;  543.000;  431.000
237.092;   61.975;  412.000;  391.000
237.236;  -87.025; -589.000; -502.000
237.379;   82.575;  352.000;  428.000
237.522; -122.850; -879.000; -768.000
237.666;   -8.875; -271.000;   18.000
237.809; -131.625; -851.000; -823.000
237.952;   46.225;  469.000;  271.000
238.095;  -70.550; -447.000; -442.000
238.238;   87.975;  688.000;  700.000
238.382;   -4.275;  166.000;  103.000
238.525;  -61.300; -598.000; -511.000
238.668; -141.300;-1060.000; -985.000
238.811;  -78.400; -638.000; -643.000
238.954;  -53.025; -483.000; -334.000
239.097;   89.850;  617.000;  664.000
239.241;   20.125;  394.000;  326.000
239.384;  -29.600; -254.000; -214.000
239.527;  -73.250; -424.000; -224.000
239.670; -133.800; -994.000;-1091.000
239.813; -108.700; -696.000; -658.000
239.956;   87.025;  579.000;  473.000
240.099; -116.725; -778.000; -725.000
240.242;   67.300;  428.000;  432.000
240.385;   32.250;  466.000;  450.000
240.528;  -69.075; -706.000; -473.000
240.671;   12.125;  189.000;  134.000
240.814;  -32.525; -441.000; -158.000
240.957; -109.850; -767.000; -578.000
241.100;  -86.400; -779.000; -755.000
241.243; -159.375;-1234.000; -893.000
241.386;  -64.825; -508.000; -379.000
241.529;  -81.950; -735.000; -547.000
241.672;  -52.675; -566.000; -495.000
241.815; -119.775; -832.000; -808.000
241.958;  -15.700; -125.000; -182.000
242.101;  -84.375; -545.000; -390.000
242.244;  -36.825; -270.000; -325.000
242.387;  -34.825; -304.000; -246.000
242.530;   61.900;  470.000;  134.000
242.673;  -55.250; -381.000; -309.000
242.815;  -93.650; -925.000; -899.000
242.958;  -83.200; -482.000; -381.000
243.101;   17.300;  132.000;  187.000
243.244;  -89.425; -564.000; -521.000
243.387;  -27.625; -313.000; -316.000
243.530;  -93.075; -657.000; -674.000
243.672;   14.725;   43.000;  -92.000
243.815;  -52.625; -355.000; -283.000
243.958;    9.650;   98.000;  -26.000
244.101;   -6.475;   59.000;  -16.000
244.243;   -5.600;  -47.000;  101.000
244.386; -114.650; -761.000; -630.000
244.529;   -7.550; -132.000; -139.000
244.672; -156.400;-1154.000; -951.000
244.814;  -95.175; -621.000; -794.000
244.957;  -61.300; -380.000; -304.000
245.100;  -66.975; -489.000; -489.000
245.242;  -64.050; -387.000; -374.000
245.385;    0.925;  -59.000;  -39.000
245.528; -129.975; -871.000; -705.000
245.670;   76.900;  612.000;  634.000
245.813;  -96.775; -599.000; -547.000
245.956;  -27.350; -324.000; -275.000
246.098;  -79.200; -508.000; -650.000
246.241;   26.475;  194.000;   48.000
246.383;  -14.875; -119.000;  -73.000
246.526;  -74.900; -454.000; -525.000
246.669; -121.025; -889.000; -780.000
246.811;   23.775;  172.000;   -1.000
246.954;  -79.200; -512.000; -426.000
247.096;   -3.900;  -84.000;   -6.000
247.239;  -75.450; -482.000; -445.000
247.381;  -70.750; -647.000; -488.000
247.524;   79.800;  645.000;  679.000
247.666;   -5.550;   58.000;   11.000
247.809; -119.550; -887.000; -691.000
247.951;   -6.150;  -75.000;  138.000
248.094;   17.200;  432.000;  308.000
248.236; -158.550;-1262.000;-1238.000
248.378;    1.425; -356.000;  -81.000
248.521;  -22.800; -334.000; -337.000
248.663;  -35.650; -236.000; -267.000
248.806;  -22.975; -300.000; -266.000
248.948;  -93.500; -886.000; -763.000
249.090;  -32.250; -428.000; -398.000
249.233;  -55.100; -344.000; -381.000
249.375;  -58.075; -474.000; -451.000
249.518;  -26.275;  -83.000; -133.000
249.660;   -2.275; -103.000;    3.000
249.802; -168.600;-1303.000;-1189.000
249.945;  -67.025; -612.000; -540.000
250.087; -109.600; -834.000; -768.000
250.229;  -39.250; -362.000; -480.000
250.371;  -78.875; -494.000; -439.000
250.514;  -42.875; -310.000; -244.000
250.656;   -9.250;   69.000;  102.000
250.798; -105.425; -849.000; -800.000
250.940;  -66.350; -322.000; -322.000
251.083;  -27.275; -335.000; -111.000
251.225;   57.800;  338.000;  310.000
251.367;  -22.525; -274.000; -373.000
251.509;  -44.425; -265.000; -210.000
251.651;  -88.675; -731.000; -671.000
251.794;   54.950;  538.000;  632.000
251.936;  -98.425; -821.000; -747.000
252.078;  -74.950; -540.000; -461.000
252.220;  -57.725; -645.000; -477.000
252.362;   66.925;  344.000;  462.000
252.504;  -51.100; -677.000; -584.000
252.646; -119.175; -875.000; -722.000
252.788;    2.550;   14.000; -128.000
252.931;  -35.025; -257.000; -253.000
253.073;  -40.625; -376.000; -317.000
253.215;  -11.825;  141.000;  122.000
253.357;  -19.575;   82.000; -153.000
253.499;  -66.900; -374.000; -234.000
253.641;  -64.450; -749.000; -594.000
253.783;  -97.000; -609.000; -527.000
253.925;  -74.875; -586.000; -591.000
254.067;  -97.875; -744.000; -667.000
254.209;  -16.950; -391.000; -259.000
254.351; -143.375; -865.000; -883.000
254.493;  -37.900; -441.000; -417.000
254.635; -144.250; -936.000; -818.000
254.777;  -85.500; -752.000; -687.000
254.918;  -72.275; -512.000; -430.000
255.060;  -59.025; -551.000; -395.000
255.202;  -66.725; -473.000; -261.000
255.344;  -73.250; -658.000; -455.000
255.486;  -75.500; -471.000; -406.000
255.628;  -98.175; -780.000; -781.000
255.770;  -89.000; -676.000; -536.000
255.912;  -63.200; -559.000; -468.000
256.053;  -99.675; -730.000; -508.000
256.195;  148.725; 1008.000;  903.000
256.337;  -93.525; -861.000; -595.000
256.479;   66.575;  532.000;  416.000
256.621;  -49.825; -394.000; -212.000
256.762;  -98.550; -789.000; -742.000
256.904;   51.175;  485.000;  487.000
257.046;  -32.700; -381.000; -271.000
257.188;  -56.175; -351.000; -264.000
257.329;  -75.275; -525.000; -464.000
257.471; -117.400; -939.000; -807.000
257.613;  -50.200; -584.000; -498.000
257.755; -152.050;-1073.000; -982.000
257.896;   38.800;  286.000;  392.000
258.038;  -70.975; -403.000; -352.000
258.180;  -30.800; -354.000; -279.000
258.321;  -94.675; -581.000; -457.000
258.463;    2.350;  -71.000;  133.000
258.605;  -94.875; -562.000; -570.000
258.746;  -91.975; -886.000; -772.000
258.888; -158.600;-1026.000;-1020.000
259.029;   17.525;  121.000;   -8.000
259.171;  -88.400; -614.000; -550.000
259.313;    5.650;  -49.000;  -47.000
259.454;  -85.025; -536.000; -414.000
259.596;  -46.675; -483.000; -390.000
259.737;  -88.450; -590.000; -474.000
259.879;   41.100;  217.000;  311.000
260.020;   88.750;  901.000;  636.000
260.162;  -13.750; -146.000; -253.000
260.303; -118.275; -768.000; -687.000
260.445;  -72.625; -609.000; -613.000
260.586;   24.400;  392.000;  157.000
260.728;  -48.250; -360.000; -248.000
260.869; -104.825; -350.000; -343.000
261.011;   83.625;  706.000;  537.000
261.152;  -68.525; -479.000; -319.000
261.293;  -82.975; -576.000; -595.000
261.435;  -37.875; -219.000; -184.000
261.576;  -44.250; -455.000; -325.000
261.718;   50.275;  420.000;  470.000
261.859; -122.025; -940.000; -949.000
262.000; -133.400; -951.000;-1016.000
262.142;  -21.375;  -52.000;  -60.000
262.283; -119.125; -808.000; -691.000
262.424;  -77.475; -666.000; -625.000
262.566; -158.600;-1161.000; -983.000
262.707; -112.700; -840.000; -830.000
262.848; -119.500; -769.000; -726.000
262.990;  -42.650; -362.000; -345.000
263.131;   74.375;  650.000;  681.000
263.272;    0.775;  -61.000;  -41.000
263.413;  -93.275; -589.000; -561.000
263.555;  -67.200; -669.000; -143.000
263.696;  -92.650; -550.000; -641.000
263.837;  -45.950; -449.000; -551.000
263.978;  -23.600;   -5.000;  -77.000
264.119;  -38.900; -283.000; -264.000
264.261; -112.525; -847.000; -630.000
264.402;    3.825;   33.000;   40.000
264.543;  -86.700; -509.000; -524.000
264.684;  -14.100;   61.000;  -50.000
264.825;  -84.200; -816.000; -538.000
264.966;    3.525;  -84.000;  -67.000
265.107; -117.650; -646.000; -670.000
265.248; -113.525; -825.000; -812.000
265.390;   -6.050;  152.000;   -9.000
265.531;  -14.150; -238.000; -107.000
265.672;  -87.125; -557.000; -630.000
265.813;   62.300;  563.000;  439.000
265.954; -143.525; -959.000; -940.000
266.095;   -5.775; -372.000; -322.000
266.236; -103.275; -686.000; -548.000
266.377;  -41.150; -243.000; -297.000
266.518;  -82.725; -619.000; -547.000
266.659;   35.600;  170.000;  268.000
266.800;    2.775;   83.000;   85.000
266.941;  -63.650; -487.000; -478.000
267.082;    2.050;  354.000;   99.000
267.223;  -43.475; -344.000; -273.000
267.364; -108.375; -892.000; -686.000
267.504;   -4.500;    3.000;  135.000
267.645;  -17.200;  160.000;   67.000
267.786;  -21.250; -147.000;  -86.000
267.927;  -72.425; -473.000; -379.000
268.068;  -16.300; -186.000;  -61.000
268.209;  -49.600; -175.000; -413.000
268.350;  -54.250; -388.000; -532.000
268.490;  -84.575; -648.000; -521.000
268.631;   35.225;  127.000;  225.000
268.772; -105.050; -874.000; -647.000
268.913;  -49.575; -328.000; -476.000
269.054;  -17.525; -117.000;   12.000
269.194;  -49.125; -418.000; -402.000
269.335; -165.725;-1137.000;-1074.000
269.476;  -18.600;   33.000;  -35.000
269.617;  -49.400; -347.000; -392.000
269.757;  -86.500; -713.000; -646.000
269.898; -108.975; -856.000; -613.000
270.039;  -56.850; -415.000; -405.000
270.180; -139.500; -952.000; -816.000
270.320;  -12.975; -190.000; -250.000
270.461;  -42.875; -277.000; -249.000
270.602;  -13.725; -186.000; -156.000
270.742; -129.825; -868.000; -943.000
270.883;  -61.050; -442.000; -390.000
271.023;  -64.575; -358.000; -357.000
271.164;  -67.575; -607.000; -528.000
271.305;  -93.900; -666.000; -654.000
271.445;  -91.150; -722.000; -683.000
271.586;  -81.175; -462.000; -283.000
271.726;  -42.100; -397.000; -322.000
271.867;  -62.150; -594.000; -534.000
272.008;  167.975; -473.000; -285.000
272.148;  116.450;  462.000;  468.000
272.289;   20.500; -113.000; -181.000
272.429;    7.700;   19.000;  185.000
272.570;  -92.050; -633.000; -737.000
272.710; -120.375; -825.000; -775.000
272.851;  -28.150;  113.000; -130.000
272.991; -162.525;-1173.000;-1077.000
273.131;  -62.925; -419.000; -459.000
273.272; -101.150; -683.000; -723.000
273.412;   22.325; -143.000;  -31.000
273.553;  -49.675; -488.000; -507.000
273.693;  130.300;  913.000;  858.000
273.834;  -99.450; -894.000; -692.000
273.974;  -71.000; -664.000; -615.000
274.114; -105.750; -772.000; -560.000
274.255;   69.125;  414.000;  373.000
274.395;  -13.300; -180.000; -125.000
274.535;   49.450;  199.000;  350.000
274.676;   18.000;  225.000;   94.000
274.816;   14.475;  110.000;   34.000
274.956; -100.800; -624.000; -690.000
275.097;  -61.875;-1014.000; -922.000
275.237; -123.300; -913.000; -803.000
275.377;  -98.275; -778.000; -689.000
275.517; -152.625; -878.000; -937.000
275.658;  -56.525; -590.000; -555.000
275.798;  -65.975; -606.000; -413.000
275.938;   26.325;  215.000;  323.000
276.078; -103.525; -626.000; -395.000
276.218;    9.925;   99.000;  104.000
276.359; -138.750;-1026.000;-1024.000
276.499;  -69.125; -605.000; -446.000
276.639;  -35.150; -305.000; -151.000
276.779;  -39.875; -475.000; -357.000
276.919; -101.025; -783.000; -624.000
277.059;  -17.200; -261.000; -212.000
277.199;  -62.700; -357.000; -259.000
277.340;   57.100;  287.000;  175.000
277.480; -117.000; -840.000; -693.000
277.620;   31.575;  192.000;   16.000
277.760; -199.425;-1533.000;-1294.000
277.900;   14.700;  113.000;   33.000
278.040;   14.050;  137.000;  159.000
278.180;   27.000;  270.000;  170.000
278.320;    2.925;   21.000;   56.000
278.460;  -63.300; -443.000; -469.000
278.600;  -92.400; -708.000; -598.000
278.740;   57.000;  448.000;  224.000
278.880;  -68.650; -768.000; -791.000
279.020;  -11.525; -194.000; -144.000
279.160;  -88.850; -672.000; -595.000
279.300; -123.025; -926.000; -873.000
279.440; -109.725; -709.000; -622.000
279.579;  -17.175;-1014.000; -929.000
279.719;  -55.425; -410.000; -394.000
279.859;   64.800;   -4.000;   41.000
279.999;    3.200; -208.000;  101.000
280.139;  -12.725; -435.000; -387.000
280.279;  -76.475; -708.000; -745.000
280.419;  -16.650; -229.000; -147.000
280.559;  -45.700; -259.000; -180.000
280.698;  -85.950; -790.000; -639.000
280.838; -101.025; -778.000; -800.000
280.978; -108.725; -846.000; -790.000
281.118; -120.775; -811.000; -704.000
281.257;    8.650;   24.000;    6.000
281.397; -129.675;-1094.000; -960.000
281.537;  -79.625; -599.000; -712.000
281.677;  -22.850; -150.000; -101.000
281.816;  -86.500; -700.000; -630.000
281.956;  -46.000; -193.000; -257.000
282.096;  -67.100; -539.000; -396.000
282.235; -114.050; -672.000; -638.000
282.375;  -25.800; -243.000;  -98.000
282.515; -112.900; -715.000; -707.000
282.654;   25.150;   29.000;  106.000
282.794;   14.100;  388.000;  244.000
282.934;  -56.500; -530.000; -491.000
283.073; -131.425;-1030.000; -857.000
283.213;  -51.325; -460.000; -467.000
283.353;  -47.075; -408.000; -349.000
283.492;  -20.175; -264.000; -296.000
283.632;  -45.675; -254.000; -168.000
283.771;  -90.200; -859.000; -730.000
283.911;  -61.075; -369.000; -260.000
284.050; -109.450; -794.000; -748.000
284.190; -151.075;-1229.000;-1096.000
284.329; -134.200;-1055.000; -964.000
284.469;  -71.450; -516.000; -591.000
284.608;  -56.025; -559.000; -598.000
284.748;  -87.400; -614.000; -570.000
284.887;   -7.300;  -87.000;  -20.000
285.027; -136.625; -844.000; -892.000
285.166;  -21.975; -192.000; -249.000
285.306;  -12.450; -116.000;  -33.000
285.445;  -46.325; -229.000; -343.000
285.584;  -95.850; -630.000; -494.000
285.724;  -26.875; -282.000; -322.000
285.863; -116.900; -857.000; -507.000
286.002;  -43.725; -366.000; -276.000
286.142; -116.925; -715.000; -622.000
286.281;  -68.700; -525.000; -493.000
286.420;  -98.575; -554.000; -417.000
286.560;   95.775;  653.000;  623.000
286.699; -137.250; -958.000; -912.000
286.838;  -82.450; -590.000; -591.000
286.978;  -97.400; -533.000; -537.000
287.117; -138.800;-1085.000; -950.000
287.256;  -35.775; -228.000; -211.000
287.395;  -50.500; -197.000; -378.000
287.535;  -62.250; -370.000; -298.000
287.674;  -79.875; -509.000; -484.000
287.813;   50.950;  661.000;  533.000
287.952; -113.925;-1010.000; -871.000
288.091; -162.800;-1049.000; -915.000
288.231;   14.250;   13.000;   15.000
288.370; -172.800;-1217.000;-1200.000
288.509;  -79.925; -728.000; -645.000
288.648;  -95.375; -770.000; -548.000
288.787;  -21.950; -243.000;  -87.000
288.926;  -71.325; -454.000; -475.000
289.065;  118.950;  859.000;  672.000
289.204;  -59.650; -377.000; -217.000
289.344;  -86.275; -791.000; -690.000
289.483;   22.700;  416.000;  304.000
289.622;   -7.525; -291.000; -149.000
289.761;  -24.450; -309.000; -166.000
289.900; -105.200; -785.000; -626.000
290.039;  -29.425;  -12.000;  -95.000
290.178;  -38.875; -274.000; -180.000
290.317;  -91.875; -618.000; -479.000
290.456;  -42.225; -463.000; -451.000
290.595; -133.650; -961.000; -833.000
290.734; -138.775; -904.000; -891.000
290.873;  -71.050; -456.000; -420.000
291.011; -100.550; -833.000; -843.000
291.150; -116.525; -770.000; -682.000
291.289;   -5.725; -343.000; -110.000
291.428; -105.575; -599.000; -480.000
291.567;  -50.550; -370.000; -442.000
291.706;  -10.125;  109.000;  154.000
291.845;  -78.525; -597.000; -505.000
291.984; -167.750;-1234.000;-1061.000
292.122;   68.100;  602.000;  582.000
292.261;   33.700;  620.000;  463.000
292.400;    9.125; -144.000;  211.000
292.539; -118.800; -959.000; -813.000
292.678;  -33.250; -325.000; -300.000
292.816; -156.075;-1136.000; -965.000
292.955;  -85.025; -844.000; -684.000
293.094;  -38.700; -173.000; -337.000
293.233;  -59.400; -556.000; -400.000
293.371;  -55.125; -225.000;  -84.000
293.510; -105.525; -866.000; -780.000
293.649; -136.575; -959.000; -924.000
293.787;  -60.875;-1083.000;-1012.000
293.926;  -14.575; -113.000;  -32.000
294.065;  -39.425; -379.000; -290.000
294.203;   43.050;  298.000;  406.000
294.342;    0.000;   74.000;  156.000
294.481; 6305.175;51180.000; -836.000
294.619;  -32.800; -425.000; -582.000
294.758; -151.400;-1230.000;-1137.000
294.896;   53.075; -125.000;    5.000
295.035; -141.500;-1040.000;-1006.000
295.174; -109.400;-1082.000; -954.000
295.312;  -50.525; -323.000; -203.000
295.451;  -12.950; -307.000; -428.000
295.589;  -61.400; -389.000; -518.000
295.728;   21.825; -292.000; -165.000
295.866;    6.400;  -36.000;  -51.000
296.005;  -52.450; -584.000; -341.000
296.143;  -77.700; -558.000; -596.000
296.282; -109.300; -957.000; -881.000
296.420;  -98.850; -657.000; -557.000
296.559;  -81.050; -892.000; -633.000
296.697;    4.825; -847.000; -665.000
296.835;   32.425;-1141.000;-1002.000
296.974;   27.500;  -23.000;   39.000
297.112;   11.375; -443.000; -504.000
297.251;  -90.025; -815.000; -755.000
297.389;   73.950; -576.000; -438.000
297.527;    8.300; -145.000;  -83.000
297.666;  -60.575; -486.000; -438.000
297.804;  -65.400; -404.000; -264.000
297.942;   -0.725; -136.000; -161.000
298.081;  -16.400; -183.000;   63.000
298.219;   53.825;  -17.000;  -19.000
298.357;   38.950; -144.000;  -71.000
298.495;   30.375; -810.000; -812.000
298.634;   67.450;  245.000;  219.000
298.772;   43.725; -220.000; -338.000
298.910;  -47.900; -309.000; -182.000
299.048;   -1.425; -130.000; -153.000
299.187;  -52.575; -350.000; -250.000
299.325;   24.025;   52.000;  122.000
299.463;   28.700; -389.000; -299.000
299.601;   94.875; -327.000; -271.000
299.739; -115.375; -908.000; -883.000
299.877;  -73.300; -791.000; -703.000
300.016;  -59.400;-1095.000; -935.000
300.154;  126.525;  -19.000; -161.000
300.292;   42.400; -428.000; -348.000
300.430;   14.075; -408.000; -291.000
300.568; -110.275; -940.000; -874.000
300.706;  -42.025; -366.000; -469.000
300.844;  -82.650;-1108.000; -979.000
300.982;  103.200;  246.000;  282.000
301.120; -122.925; -965.000; -866.000
301.258;  -68.450; -812.000; -705.000
301.396;   18.675;  104.000;  -41.000
301.534;   60.750; -218.000; -293.000
301.672;  -26.975; -664.000; -521.000
301.810;   12.000; -613.000; -545.000
301.948;   97.725;   53.000;  149.000
302.086;  570.300; -250.000;  -32.000
302.224;  834.500; -610.000; -585.000
302.362;   27.200; -558.000; -622.000
302.500;  -54.975; -923.000; -893.000
302.638;   86.775;  128.000;  245.000
302.776;  -15.750; -352.000; -408.000
302.913;   51.375;  447.000;  236.000
303.051;  -12.075;  -86.000;  -23.000
303.189;   36.725;   90.000;  118.000
303.327;  -51.450; -341.000; -256.000
303.465;  -70.800; -832.000; -588.000
303.603;  -98.000; -805.000; -604.000
303.740;   97.450;  417.000;  241.000
303.878;  -16.575; -800.000; -759.000
304.016;  -80.150; -915.000; -790.000
304.154; -135.600;-1123.000;-1152.000
304.291;  -36.275; -505.000; -554.000
304.429;    9.425;  102.000;   74.000
304.567; -122.900; -908.000; -893.000
304.705;  -63.025; -408.000; -515.000
304.842;   66.550; -616.000; -540.000
304.980;   43.075;  215.000;   35.000
305.118;   39.150; -367.000; -365.000
305.255;  -88.800; -945.000; -927.000
305.393;   74.100;  178.000;  239.000
305.531; -125.975;-1173.000; -956.000
305.668;  -67.000; -663.000; -582.000
305.806;   71.800; -358.000; -439.000
305.943;  104.225; -629.000; -637.000
306.081;   23.550; -378.000; -267.000
306.219;  -98.650; -863.000; -748.000
306.356;   -7.325;  158.000;   27.000
306.494;  110.250;  981.000;  761.000
306.631;   -3.325;  -11.000;  -55.000
306.769;    1.525; -613.000; -485.000
306.906;  -35.975; -284.000; -258.000
307.044;  -57.475; -473.000; -488.000
307.181;  -71.750; -410.000; -332.000
307.319;   20.875;  112.000;   87.000
307.456; -183.125;-1191.000;-1153.000
307.594; -107.425; -980.000; -727.000
307.731;  -16.200; -371.000; -164.000
307.868;   -7.550;  -15.000;   20.000
308.006; -133.125; -961.000; -847.000
308.143;  -80.550; -618.000; -330.000
308.281;  133.900;  -37.000; -254.000
308.418;  -10.250; -748.000; -640.000
308.555;  -79.975; -400.000; -250.000
308.693;  -68.925; -577.000; -573.000
308.830; -115.450; -712.000; -657.000
308.967;   -9.125; -215.000;  -95.000
309.105;  -57.100; -507.000; -396.000
309.242;   31.925; -468.000; -367.000
309.379;  282.200; -577.000; -655.000
309.517;  -81.475; -936.000; -948.000
309.654; -114.975; -910.000; -734.000
309.791;  -78.525; -662.000; -580.000
309.928; -124.275; -977.000; -914.000
310.065;  164.725;  819.000;  697.000
310.203;  -37.625; -825.000; -850.000
310.340;  -21.225; -465.000; -321.000
310.477;  -90.650; -412.000; -516.000
310.614;  -53.000; -383.000; -473.000
310.751;  -91.475; -427.000; -518.000
310.889;  -21.000;    1.000;   11.000
311.026; -154.200;-1161.000; -939.000
311.163;  -35.375; -386.000; -380.000
311.300;  -83.200; -512.000; -479.000
311.437;  -76.750; -658.000; -619.000
311.574; -160.375;-1226.000; -985.000
311.711;  -42.150; -595.000; -433.000
311.848;  -43.100; -380.000; -388.000
311.985;   23.175;  270.000;   93.000
312.122; -122.075; -932.000; -762.000
312.259; -131.050; -941.000; -994.000
312.396;  -98.275; -508.000; -551.000
312.533;  -88.250; -812.000; -790.000
312.670; -138.400;-1070.000; -898.000
312.807;  -32.000; -352.000; -367.000
312.944;  -81.100; -513.000; -611.000
313.081;  -39.525; -150.000; -415.000
313.218; -109.700;-1111.000; -867.000
313.355;   -5.475; -531.000; -449.000
313.492;  -12.025; -455.000; -292.000
313.629;  117.400;  815.000;  735.000
313.766; -162.300;-1176.000;-1008.000
313.902;   -5.275; -186.000;   21.000
314.039;  -56.750; -372.000; -289.000
314.176;   25.425;  286.000;  192.000
314.313;  -87.150; -569.000; -473.000
314.450;  -68.725; -788.000; -684.000
314.587;  -78.450; -468.000; -480.000
314.723;   10.725;  -78.000;  130.000
314.860;   21.200;  318.000;  332.000
314.997;   23.275;  223.000;  142.000
315.134;  -52.825; -385.000; -368.000
315.270;  -41.125; -480.000; -496.000
315.407; -132.700;-1094.000; -967.000
315.544;  -55.750; -657.000; -538.000
315.681;  -87.450; -681.000; -565.000
315.817;   13.700; -133.000; -176.000
315.954;    5.950; -613.000; -392.000
316.091; -120.200;-1045.000;-1023.000
316.227;  -21.950;  -71.000; -179.000
316.364;    7.050;   23.000;    6.000
316.500;  -49.650; -113.000; -300.000
316.637;  -47.725; -181.000; -302.000
316.774;  -92.525; -625.000; -358.000
316.910;  -86.875; -598.000; -629.000
317.047;  -77.050; -487.000; -351.000
317.183;  -48.550; -435.000; -566.000
317.320;   -6.675; -367.000; -321.000
317.456;  -63.450; -733.000; -805.000
317.593; -102.225; -598.000; -641.000
317.729;    2.850;  168.000;  -67.000
317.866; -211.575;-1434.000;-1285.000
318.002;  -89.100; -708.000; -948.000
318.139; -117.400; -883.000; -867.000
318.275;  -99.150;-1003.000; -738.000
318.412;  -65.675; -517.000; -336.000
318.548;  -35.050; -751.000; -720.000
318.685; -109.225; -985.000; -888.000
318.821;  -87.275; -762.000; -735.000
318.957;  -40.950;   34.000;  -23.000
319.094;   30.975;  297.000;  154.000
319.230;  -79.200; -756.000; -742.000
319.367;  105.575; -471.000; -520.000
319.503;   38.850; -538.000; -436.000
319.639;  -93.050; -877.000; -793.000
319.775;  -74.025; -750.000; -685.000
319.912;  -59.350; -424.000; -519.000
320.048;  -95.425;-1184.000;-1184.000
320.184;   70.800;   59.000;   70.000
320.321;  -58.600; -497.000; -467.000
320.457;   74.875;  475.000;  662.000
320.593;  -67.225; -375.000; -382.000
320.729;  -92.750; -732.000; -734.000
320.866;  -79.175; -577.000; -635.000
321.002;  -72.500; -759.000; -809.000
321.138;  -20.150; -135.000; -211.000
321.274;   81.800; -148.000; -115.000
321.410;  -28.325; -585.000; -353.000
321.546;  -39.425;-1011.000; -911.000
321.683;   42.175;  400.000;  185.000
321.819;    5.125;  -48.000; -117.000
321.955; -111.350; -743.000; -722.000
322.091;  -43.825; -585.000; -540.000
322.227;  -27.275; -382.000; -202.000
322.363;  -11.200; -320.000; -215.000
322.499;  -52.925; -343.000; -331.000
322.635;  149.225;  636.000;  443.000
322.771;    4.000; -139.000;   12.000
322.907;   91.625;  129.000;  327.000
323.043;  -32.425; -115.000; -206.000
323.179;  -37.350; -394.000; -363.000
323.315;  -13.300; -401.000; -371.000
323.451;   78.675; -328.000; -236.000
323.587;   58.125;  -60.000;  -77.000
323.723;   -7.425; -682.000; -601.000
323.859;  -13.850; -258.000;  -76.000
323.995;  -21.550; -467.000; -409.000
324.131; -130.000; -967.000; -892.000
324.267;  -39.600; -254.000; -276.000
324.402; -141.825; -960.000; -983.000
324.538;  -18.650; -279.000; -104.000
324.674;    8.775;  164.000;   77.000
324.810;   99.775;  226.000;  308.000
324.946;  -22.925; -810.000; -658.000
325.082;  -65.175; -568.000; -475.000
325.217;  -11.650;  -62.000;   16.000
325.353; -108.125; -764.000; -659.000
325.489; -100.850; -540.000; -506.000
325.625;  -71.775; -579.000; -525.000
325.760;   56.200;  517.000;  376.000
325.896;    1.475; -515.000; -702.000
326.032;  -64.200; -403.000; -352.000
326.168;  -58.825; -462.000; -369.000
326.303;  -73.275; -352.000; -461.000
326.439;  -25.575; -336.000; -276.000
326.575;  -15.925; -190.000;  -29.000
326.710;   -6.900; -156.000;  -30.000
326.846;  -27.625;  146.000;  103.000
326.982;  -92.750; -530.000; -548.000
327.117;  -83.025; -481.000; -442.000
327.253;  -76.775; -745.000; -742.000
327.388; -137.475;-1137.000;-1153.000
327.524;  -58.725; -811.000; -578.000
327.659;  -23.625;  -58.000;  -22.000
327.795;  -19.425;   69.000;   45.000
327.931;  -93.675; -723.000; -499.000
328.066;  -21.025; -417.000; -276.000
328.202;  -25.275;   12.000; -129.000
328.337;  100.925;  957.000;  713.000
328.473;   29.575;  -12.000;  -74.000
328.608;  -19.500; -256.000; -267.000
328.743;  -90.025; -799.000; -664.000
328.879;    9.750;  214.000;  114.000
329.014;  -45.175; -102.000; -122.000
329.150;  -81.300; -358.000; -483.000
329.285;  -93.600; -465.000; -466.000
329.421;  -52.400; -548.000; -246.000
329.556;  -29.600;  -36.000;   85.000
329.691;  -99.000; -633.000; -615.000
329.827;  -90.800; -626.000; -480.000
329.962;  -37.800;  131.000; -301.000
330.097;  -86.525; -673.000; -585.000
330.233;  -50.025; -410.000; -223.000
330.368; -135.875; -839.000; -628.000
330.503;  -24.125;    3.000;   98.000
330.638;    2.300;  -93.000; -125.000
330.774;  -62.725; -609.000; -530.000
330.909;  -62.000; -434.000; -244.000
331.044; -104.125; -714.000; -708.000
331.179; -189.850;-1217.000;-1109.000
331.315;    4.925;   77.000;   20.000
331.450;   -5.350;  157.000;  285.000
331.585;  -85.700; -805.000; -706.000
331.720;  -79.900; -510.000; -460.000
331.855;   -1.850;  -35.000; -102.000
331.990;  255.525;   62.000;  138.000
332.126;  137.600; -110.000;   71.000
332.261;  -26.950; -379.000; -265.000
332.396;   -9.500; -135.000; -242.000
332.531; -105.000;-1074.000;-1031.000
332.666;   33.975; -519.000; -363.000
332.801; -107.000; -726.000; -807.000
332.936;  -27.825; -192.000; -122.000
333.071; -164.475; -870.000; -817.000
333.206;   19.900;  307.000;  379.000
333.341;    9.025;  344.000;  418.000
333.476;  -78.225; -627.000; -623.000
333.611;  -30.925; -251.000; -173.000
333.746;  -49.575; -381.000; -464.000
333.881; -131.775; -973.000; -935.000
334.016; -127.450; -936.000; -917.000
334.151; -129.625; -746.000; -702.000
334.286;   13.000;  152.000;  186.000
334.421;  -37.775; -125.000; -178.000
334.556;  -82.125; -611.000; -567.000
334.690;  -91.175; -631.000; -577.000
334.825;   47.675;  381.000;   83.000
334.960;  -72.375; -285.000; -413.000
335.095;    0.925;  135.000;  -91.000
335.230; -108.700; -722.000; -738.000
335.365; -124.700;-1084.000; -990.000
335.499; -142.950;-1108.000;-1037.000
335.634;    8.900;    9.000;  534.000
335.769; -106.800; -755.000; -720.000
335.904;  -77.300; -603.000; -561.000
336.038;  -88.300; -735.000; -657.000
336.173; -121.775;-1206.000;-1194.000
336.308;   -4.500; -116.000; -189.000
336.443;   15.325; -544.000; -634.000
336.577;  -90.325; -936.000; -787.000
336.712;   52.625;   -4.000;  -12.000
336.847;  -58.750; -724.000; -607.000
336.981;   43.150; -272.000; -208.000
337.116;  247.800;  615.000;  501.000
337.250;  126.600; -434.000; -421.000
337.385;  286.775; -297.000; -208.000
337.520;  121.225; -632.000; -603.000
337.654;  -50.525; -215.000; -126.000
337.789; -107.875; -989.000; -933.000
337.923;  -51.200; -104.000; -205.000
338.058;  -85.025; -673.000; -738.000
338.192;  -56.625; -611.000; -488.000
338.327;   -7.450;  -18.000; -155.000
338.461;  -78.775; -299.000; -469.000
338.596;  -91.775; -780.000; -638.000
338.730; -114.100; -767.000; -803.000
338.865;  109.875;  -46.000; -140.000
338.999;  -45.150; -846.000; -702.000
339.134;  -10.350; -634.000; -536.000
339.268;   12.200; -741.000; -603.000
339.403;  393.350; -740.000; -775.000
339.537;  114.500; -894.000; -820.000
339.671; -106.250; -829.000; -813.000
339.806;  -60.125; -556.000; -512.000
339.940;   16.350; -261.000; -235.000
340.074; -111.275; -685.000; -510.000
340.209;  -51.975; -351.000; -230.000
340.343;  -93.575; -517.000; -573.000
340.477;  153.350;  998.000; 1036.000
340.612;  -53.825;-1033.000; -900.000
340.746;  168.725; -199.000; -243.000
340.880;  -75.875; -924.000; -785.000
341.014;  -23.825;  -45.000; -154.000
341.149; -113.000; -756.000; -718.000
341.283; -104.875; -839.000; -754.000
341.417; -113.550;-1124.000; -938.000
341.551;   93.325; -768.000; -708.000
341.685;  -60.450; -633.000; -611.000
341.820;  -48.025; -562.000; -493.000
341.954;  -47.775; -218.000; -349.000
342.088; -147.275;-1102.000;-1019.000
342.222;   43.075;  565.000;  618.000
342.356;  -61.825; -395.000; -335.000
342.490; -104.950; -880.000; -841.000
342.624;  -53.525; -339.000; -242.000
342.758;  -33.775; -364.000; -312.000
342.892;  -62.625; -710.000; -585.000
343.026;  -44.925;  -58.000; -116.000
343.160;  -67.025; -426.000; -376.000
343.294;  -94.375; -474.000; -337.000
343.428;  -27.550; -488.000; -448.000
343.562;  -26.350; -172.000;  -23.000
343.696;  -29.125; -385.000; -314.000
343.830;  -45.275; -362.000; -356.000
343.964;   13.425; -231.000; -168.000
344.098;  789.225;  199.000;   70.000
344.232;  655.375; -266.000; -127.000
344.366;   86.375; -567.000; -453.000
344.500;   44.800; -665.000; -744.000
344.634;    7.175; -324.000; -164.000
344.768;  -29.750; -531.000; -341.000
344.902;   12.300;  278.000;  256.000
345.035;  -70.350; -556.000; -496.000
345.169; -139.050; -933.000; -656.000
345.303;  -42.075; -308.000; -482.000
345.437;  -97.175; -826.000; -717.000
345.571;  -67.075; -675.000; -594.000
345.704;  -71.750; -309.000; -532.000
345.838;   -7.450; -331.000; -284.000
345.972;  -47.200; -543.000; -495.000
346.106;  173.175; -179.000; -190.000
346.239;  403.650; -312.000; -243.000
346.373;    9.350; -343.000; -302.000
346.507; -158.125; -950.000; -962.000
346.640;  123.375;  -30.000;   13.000
346.774;  -63.925; -650.000; -797.000
346.908;  -18.900; -138.000;  -11.000
347.041; -114.150; -646.000; -593.000
347.175;   -0.625;  259.000;   27.000
347.309;  -80.050; -698.000; -628.000
347.442; -104.450; -883.000; -732.000
347.576;  235.650;  670.000;  668.000
347.709;  162.450; -123.000;  -52.000
347.843; -111.000; -933.000; -825.000
347.976;   34.650;  235.000;  294.000
348.110; -186.250;-1268.000;-1186.000
348.243;  -98.700; -679.000; -772.000
348.377;   -1.425;  -26.000;   60.000
348.510;   58.800;  403.000;  540.000
348.644;  -45.775;  -37.000; -159.000
348.777;    2.600;  180.000;  191.000
348.911;  -51.575; -142.000; -112.000
349.044;  154.000;  471.000;  448.000
349.178;  114.450;-1069.000;-1006.000
349.311;  110.525;  141.000;  255.000
349.444;  -10.000; -927.000; -813.000
349.578;  -27.000; -347.000; -200.000
349.711; -104.325; -959.000; -862.000
349.845;   -8.600; -661.000; -591.000
349.978; -166.525;-1224.000;-1137.000
350.111;  -94.425; -546.000; -612.000
350.244;  -94.350; -596.000; -700.000
350.378;  -10.025; -392.000; -393.000
350.511;  -83.725; -393.000; -426.000
350.644;  -94.575; -808.000; -806.000
350.778;   10.400;  168.000;  104.000
350.911;    4.225;  134.000;  140.000
351.044;  -97.600; -685.000; -615.000
351.177;  -44.675; -321.000; -281.000
351.310;  -25.625;    3.000; -131.000
351.444;  -90.925; -888.000; -788.000
351.577;   88.825;  140.000;   90.000
351.710;   96.300;  593.000;  417.000
351.843;  -48.925; -165.000;  -77.000
351.976;    1.650;  149.000;  -79.000
352.109;  -90.400; -621.000; -612.000
352.242;  -39.375; -464.000; -419.000
352.376;  -80.550; -580.000; -636.000
352.509;  139.725; -437.000; -356.000
352.642;  -31.800; -654.000; -604.000
352.775;   41.425; -141.000;  -98.000
352.908; -118.225; -933.000; -904.000
353.041; -100.825; -814.000; -824.000
353.174;  -78.250; -551.000; -424.000
353.307;  -99.675; -753.000; -764.000
353.440;   52.550;  541.000;  453.000
353.573; -104.550; -957.000;-1008.000
353.706;  -59.525; -384.000; -558.000
353.839;  -27.575; -264.000; -220.000
353.971;  -92.825; -657.000; -512.000
354.104;  -83.950; -896.000; -835.000
354.237;  -63.000; -627.000; -662.000
354.370;  -74.350; -846.000; -879.000
354.503; -190.800;-1231.000;-1308.000
354.636;  -43.150; -529.000; -348.000
354.769; -137.200; -937.000; -860.000
354.902;  -11.400; -230.000; -139.000
355.034;  -33.500; -164.000; -220.000
355.167;  -13.675; -262.000; -162.000
355.300;  -98.700;-1061.000; -880.000
355.433; 1026.300;  -71.000;  -14.000
355.565; 1587.775; -402.000; -384.000
355.698;  417.100; -356.000; -296.000
355.831;  -12.200; -882.000; -801.000
355.964;   59.600; -285.000; -170.000
356.096;  -87.025; -856.000; -843.000
356.229;    2.425; -523.000; -530.000
356.362;  337.125; -373.000; -266.000
356.494;  646.275; -229.000; -162.000
356.627;  431.350;  269.000;  377.000
356.760;  680.550;  120.000;   53.000
356.892; 1030.475; -286.000; -601.000
357.025;  577.800;  403.000;  389.000
357.157;  505.375; -167.000; -179.000
357.290;  744.000; -856.000; -713.000
357.423;  206.100; -667.000; -556.000
357.555;  102.075; -217.000; -228.000
357.688;   95.900; -483.000; -364.000
357.820;  423.525; -870.000; -877.000
357.953; 3389.900; -563.000; -589.000
358.085;  720.650; -632.000; -612.000
358.218;  888.350;-1131.000; -932.000
358.350;  172.675;  -58.000;  312.000
358.483; -132.450;-1300.000;-1187.000
358.615;  -48.975;-1182.000;-1078.000
358.747;  -99.100;-1187.000;-1058.000
358.880;   11.300; -810.000; -744.000
359.012;  -32.475; -376.000; -202.000
359.145;  -56.500; -480.000; -511.000
359.277;   31.125; -962.000; -913.000
359.409; 2777.875;  536.000;  231.000
359.542;  717.625; -738.000; -688.000
359.674;   80.150;   46.000;   13.000
359.806;  -72.300; -565.000; -438.000
359.939;  -35.925; -617.000; -516.000
360.071;  -11.175; -583.000; -579.000
360.203;  -27.200; -411.000; -364.000
360.335;   35.700;  164.000;  -16.000
360.468;  163.925; -249.000; -307.000
360.600; 2291.850; -547.000; -454.000
360.732; 3051.150; -546.000; -423.000
360.864;  440.075;-1216.000;-1044.000
360.996;  212.575; -516.000; -554.000
361.129;   12.475; -389.000; -598.000
361.261;   29.250;  110.000; -113.000
361.393;  -56.500; -252.000; -214.000
361.525;   16.950;   94.000;  244.000
361.657;  -53.175; -821.000; -703.000
361.789;    7.925; -139.000; -155.000
361.921;  153.950; -642.000; -593.000
362.053;  220.575;  524.000;  541.000
362.185;   47.725;  288.000;   72.000
362.318;  -83.775; -709.000; -705.000
362.450;   86.475;  294.000;  444.000
362.582;   37.950; -913.000; -870.000
362.714;  -45.425; -353.000; -332.000
362.846;  -77.025; -606.000; -490.000
362.978; -150.625; -941.000; -811.000
363.109;   23.025; -161.000; -260.000
363.241;  353.025; -739.000; -749.000
363.373;  447.875; -649.000; -564.000
363.505;  682.350; -186.000;  -91.000
363.637;  183.875; -787.000; -601.000
363.769; -127.800;-1067.000;-1080.000
363.901;  -63.000; -596.000; -654.000
364.033; -117.875;-1103.000;-1062.000
364.165;   -6.800; -283.000; -283.000
364.296;   56.225; -316.000; -177.000
364.428;   97.400;-1344.000;-1220.000
364.560;  -77.125; -679.000; -661.000
364.692;  -59.050; -738.000; -835.000
364.824;  181.900; -588.000; -456.000
364.955;  444.875; -402.000; -564.000
365.087; 1059.100;-1097.000; -852.000
365.219;   41.950; -686.000; -816.000
365.351;  -72.800; -526.000; -572.000
365.482;   47.750;  300.000;  240.000
365.614;  -53.350; -402.000; -314.000
365.746;  -99.975; -729.000; -752.000
365.877;  -94.075; -706.000; -672.000
366.009;  278.175;  -35.000;  -62.000
366.141;  -86.150;-1249.000;-1134.000
366.272; -113.825; -803.000; -719.000
366.404; -133.875;-1005.000; -874.000
366.535;    1.775; -139.000;  -12.000
366.667; -102.375; -644.000; -649.000
366.799;   32.225;  353.000;  203.000
366.930; -124.950; -862.000; -996.000
367.062;  120.775; -639.000; -613.000
367.193;  179.875; -872.000; -842.000
367.325;  -67.300; -580.000; -684.000
367.456;   23.875; -246.000;   31.000
367.588;  168.500; -371.000; -318.000
367.719;    6.400;  -44.000;  -45.000
367.851;  -29.125; -222.000; -241.000
367.982;  -65.150; -875.000; -732.000
368.113;   82.625; -475.000; -358.000
368.245; -117.525; -960.000; -841.000
368.376;  -24.375; -254.000; -302.000
368.508;  -55.850; -188.000; -263.000
368.639; -130.900;-1166.000;-1034.000
368.770;  -38.875; -670.000; -589.000
368.902;  -73.350; -836.000; -926.000
369.033; -111.975; -906.000; -855.000
369.164;  -46.075; -720.000; -653.000
369.296; -120.300; -452.000; -601.000
369.427;   -8.550; -209.000; -144.000
369.558;  -67.600; -593.000; -377.000
369.689;  -83.225; -721.000; -569.000
369.821; -137.325; -951.000; -845.000
369.952;   -6.025;   42.000; -108.000
370.083;  -65.250; -229.000; -108.000
370.214;  -84.525; -735.000; -650.000
370.345;   -5.300;   65.000;   81.000
370.477;  -85.600; -810.000; -790.000
370.608;  178.800; -328.000; -264.000
370.739;  -57.475;-1233.000;-1292.000
370.870;  -62.750;-1102.000; -923.000
371.001;   74.900; -378.000; -467.000
371.132;  -97.550; -754.000; -735.000
371.263;  -25.900;  -42.000; -148.000
371.394; -142.175; -841.000; -748.000
371.525;   32.300;  345.000;  225.000
371.657; -104.700; -808.000; -670.000
371.788;   61.475;  103.000;  199.000
371.919;  133.125; -384.000; -304.000
372.050; 3178.925;  -91.000; -156.000
372.181;  961.350; -188.000; -294.000
372.311;  307.450;   42.000; -127.000
372.442;    3.675; -457.000; -451.000
372.573;  -15.750; -444.000; -340.000
372.704; -128.225;-1008.000; -980.000
372.835;   61.800; -228.000; -289.000
372.966;  -67.175; -646.000; -554.000
373.097;  -81.025; -575.000; -711.000
373.228;  -51.125; -717.000; -542.000
373.359;   94.325; -824.000; -536.000
373.490;  755.425; -881.000; -727.000
373.620; 1008.900;-1001.000; -803.000
373.751; 1490.250; -332.000; -396.000
373.882;  706.975; -663.000; -733.000
374.013;   38.925; -449.000; -262.000
374.143;  -52.825; -581.000; -659.000
374.274; -111.325; -987.000; -908.000
374.405;  136.375; -388.000; -276.000
374.536;  357.700; -526.000; -387.000
374.666;  949.425; -759.000; -807.000
374.797;  163.075; -817.000; -868.000
374.928;  711.950; -710.000; -560.000
375.058;  734.275; -535.000; -500.000
375.189;   67.200;  -59.000;  -93.000
375.320; -124.550; -928.000;-1034.000
375.450;  -46.925; -625.000; -616.000
375.581;  -61.975; -526.000; -436.000
375.712;  -30.300; -574.000; -250.000
375.842;  224.475; -438.000; -415.000
375.973;  200.325; -554.000; -513.000
376.103;  -69.425; -665.000; -648.000
376.234;  -85.925; -531.000; -552.000
376.364;  -53.000; -944.000; -867.000
376.495;  278.250;  925.000;  529.000
376.625;  -33.975; -472.000; -485.000
376.756;   27.125; -709.000; -678.000
376.886;  -89.925;-1178.000;-1026.000
377.017;   70.050;-1048.000;-1061.000
377.147;  391.400; -786.000; -782.000
377.278;   79.025;  174.000;  228.000
377.408; -135.975; -801.000; -815.000
377.538; -106.325; -707.000; -693.000
377.669;  -80.250; -537.000; -613.000
377.799;  -93.525; -645.000; -635.000
377.929;  -72.950; -610.000; -428.000
378.060; -116.850; -781.000; -847.000
378.190;  -60.850; -726.000; -531.000
378.320;  -49.375; -401.000; -406.000
378.451;  -10.875; -131.000;  -22.000
378.581;  -21.125;  -67.000; -110.000
378.711;  110.750; 1035.000;  866.000
378.841;  -47.125; -533.000; -675.000
378.972; -100.925; -871.000; -751.000
379.102;  -20.275; -652.000; -579.000
379.232;  -35.225; -126.000;  -73.000
379.362; -115.950;-1001.000; -885.000
379.492;  -24.550; -373.000; -424.000
379.623;   91.850;    0.000;  111.000
379.753; -114.325;-1107.000; -974.000
379.883;  159.750;   59.000;  156.000
380.013;  -27.425;-1081.000;-1017.000
380.143; -107.575;-1097.000;-1056.000
380.273; -105.225; -985.000; -861.000
380.403;   -8.700; -344.000; -257.000
380.533;  -59.225; -651.000; -664.000
380.663;   56.075;  173.000;  128.000
380.793; -116.925;-1027.000;-1074.000
380.923;  -22.775; -103.000;  -34.000
381.053;  -91.175; -613.000; -623.000
381.183;  -35.500; -106.000; -248.000
381.313;    4.625; -656.000; -470.000
381.443;    5.700; -692.000; -473.000
381.573;  137.525; -402.000; -409.000
381.703;  202.725;-1249.000;-1095.000
381.833; -143.150;-1454.000;-1336.000
381.963;   82.900; -134.000;  -87.000
382.093; 1228.450; -925.000; -909.000
382.223;  404.300; -713.000; -602.000
382.353;  -48.825; -801.000; -608.000
382.482;  276.250;-1091.000; -964.000
382.612;  652.425; -872.000; -644.000
382.742;  390.625; -695.000; -622.000
382.872;  183.075; -565.000; -551.000
383.002;   63.275;  347.000; -132.000
383.131;  -30.225; -226.000; -160.000
383.261;  -48.000; -706.000; -768.000
383.391;  279.650; -552.000; -377.000
383.521; 3488.425;  451.000;  263.000
383.650;  898.775; -947.000; -904.000
383.780;    0.375; -783.000; -656.000
383.910;   92.750;  880.000;  802.000
384.039;    5.600; -794.000; -656.000
384.169;  141.750;-1205.000;-1017.000
384.299;  -38.350; -650.000; -662.000
384.428; -104.875; -764.000; -680.000
384.558;  -36.625; -308.000; -275.000
384.687;  -71.650; -414.000; -334.000
384.817;    7.050;   75.000;   -2.000
384.947;   -9.725; -234.000; -141.000
385.076;  243.325;  982.000;  912.000
385.206;   79.425;  369.000;  480.000
385.335;  -57.575; -549.000; -417.000
385.465;  -93.525; -655.000; -663.000
385.594;   92.375;  -53.000;  -44.000
385.724;  313.125; -868.000; -838.000
385.853;  101.975; -296.000; -270.000
385.982; 1127.600; -743.000; -787.000
386.112; 1887.500;-1052.000; -871.000
386.241;  108.175; -307.000; -312.000
386.371;    9.675; -174.000;  -87.000
386.500;  -18.225; -825.000; -789.000
386.629;   16.550; -874.000; -817.000
386.759;   48.475;  -43.000;   68.000
386.888;  -25.850; -170.000; -250.000
387.017; -109.775; -648.000; -620.000
387.147; -113.225; -771.000; -798.000
387.276;  -18.625; -410.000; -397.000
387.405;    1.800; -398.000; -342.000
387.535;  -61.350; -452.000; -361.000
387.664;  -62.000; -692.000; -620.000
387.793;   19.900; -198.000; -113.000
387.922;  430.500;  255.000;  200.000
388.052;  -16.225; -576.000; -423.000
388.181;  -23.425; -342.000; -472.000
388.310;  -39.200; -889.000; -710.000
388.439;  -58.575; -749.000; -742.000
388.568;  148.550;  365.000;  244.000
388.697;  868.275; -756.000; -653.000
388.826;  166.075; -768.000; -666.000
388.956;   36.000; -285.000; -307.000
389.085;  -47.600; -347.000; -287.000
389.214; -113.850; -842.000; -872.000
389.343;  -79.425; -645.000; -413.000
389.472;  420.450;  126.000;  149.000
389.601;  519.650;   91.000;    0.000
389.730;    7.050; -568.000; -687.000
389.859;   42.725;  226.000;   46.000
389.988;  136.075; -423.000; -408.000
390.117;  116.675; -168.000; -146.000
390.246;  -34.550; -331.000; -320.000
390.375;   45.275; -673.000; -626.000
390.504;  -64.800; -703.000; -621.000
390.633; -108.000; -672.000; -726.000
390.761;  -75.675; -732.000; -645.000
390.890;    5.025;   -4.000; -130.000
391.019;  -47.950; -421.000; -441.000
391.148; -139.900; -826.000; -855.000
391.277;  -73.675; -576.000; -493.000
391.406; -101.725; -821.000; -805.000
391.534;    9.900;  574.000; -301.000
391.663;  -75.050; -583.000; -645.000
391.792;  -77.875; -673.000; -701.000
391.921;   54.525;   -3.000;   15.000
392.050;  129.450; -287.000; -228.000
392.178;  -83.225;-1206.000;-1061.000
392.307;  109.975; -758.000; -712.000
392.436;   44.700; -427.000; -641.000
392.564;   13.900;  166.000;   -6.000
392.693; -100.325; -860.000; -682.000
392.822;  147.650; -529.000; -534.000
392.950;   59.025; -880.000; -714.000
393.079;  276.100; -188.000; -328.000
393.208;    5.950; -488.000; -511.000
393.336;  -19.950; -170.000; -145.000
393.465;  -53.800; -317.000; -199.000
393.593;   -1.025;   62.000;   79.000
393.722; -159.775;-1121.000; -916.000
393.850;  -27.675; -188.000;  -61.000
393.979; -158.825; -926.000; -805.000
394.107;  -65.175; -517.000; -537.000
394.236;  -52.625; -570.000; -507.000
394.364;  208.375;  383.000;  206.000
394.493;  309.275; -911.000; -767.000
394.621;    1.725; -955.000; -916.000
394.750;  743.175; -873.000; -923.000
394.878; 3094.975; -247.000; -149.000
395.007; 4313.000; -721.000; -807.000
395.135;  337.225; -790.000; -721.000
395.263; -101.200;-1038.000;-1040.000
395.392;    6.900;  -25.000; -107.000
395.520; -162.450; -818.000; -679.000
395.648;  -97.375; -865.000; -915.000
395.777;  -35.275; -366.000; -405.000
395.905;  -55.550; -449.000; -564.000
396.033;    3.500;  217.000;  172.000
396.162;  496.600; -399.000; -453.000
396.290;  441.550;  -17.000;   -2.000
396.418;   61.250; -555.000; -514.000
396.546;  -88.125; -571.000; -466.000
396.674;  -84.950; -850.000; -878.000
396.803;   -6.150;  -72.000;  -23.000
396.931;   62.775; -179.000; -199.000
397.059;    1.100;-1026.000; -989.000
397.187; -117.025;-1026.000; -975.000
397.315; -137.650; -884.000; -649.000
397.443;  -98.525; -592.000; -443.000
397.572; -102.500; -578.000; -424.000
397.700;  -35.725; -607.000; -614.000
397.828;  -30.675;  120.000;  -90.000
397.956;  -41.675; -508.000; -478.000
398.084;  -66.175; -767.000; -626.000
398.212;   19.225;  137.000;  124.000
398.340;   -9.525;  -56.000;  159.000
398.468;   18.650; -390.000; -169.000
398.596; -160.725; -993.000; -953.000
398.724; -117.225; -762.000; -767.000
398.852; -170.725;-1024.000; -976.000
398.980;  -61.950; -560.000; -560.000
399.108;  -78.650; -982.000; -735.000
399.236;   23.625;   13.000;    8.000
399.363;    5.725;  222.000;  196.000
399.491;  -77.075; -404.000; -398.000
399.619; -131.900; -829.000; -800.000
399.747; -100.025; -859.000; -771.000
399.875;   46.400;  220.000;  234.000
400.003;  -57.400; -359.000; -284.000
400.130;  -92.175; -421.000; -341.000
400.258;  -23.850;  -83.000;   38.000
400.386;  -69.475; -352.000; -168.000
400.514;  -72.650; -526.000; -587.000
400.641;  -93.100; -928.000; -802.000
400.769; -143.050; -979.000; -888.000
400.897; -131.300; -838.000; -793.000
401.025;  -27.675; -166.000; -152.000
401.152;  -22.250;  220.000;   38.000
401.280;  -79.150; -430.000; -429.000
401.408; -121.850; -712.000; -576.000
401.535;  -93.875; -735.000; -758.000
401.663; -199.225;-1134.000;-1054.000
401.790;  -89.200; -514.000; -525.000
401.918;   43.325;  436.000;  405.000
402.046;  -19.525;  134.000;  122.000
402.173;  -51.475;  -18.000;    7.000
402.301;  -78.700; -519.000; -397.000
402.428;   24.825;  528.000;  383.000
402.556; -150.375;-1188.000; -913.000
402.683;  -28.175;  -20.000;   -1.000
402.811;  -19.975;  -37.000; -206.000
402.938;  -17.850;   20.000;   27.000
403.066;  146.225; -574.000; -558.000
403.193;  260.225;  299.000;  239.000
403.321;  225.750; -396.000; -574.000
403.448;  263.450;   83.000;   27.000
403.575;  128.400;  -90.000;  -46.000
403.703;  -91.050; -732.000; -557.000
403.830;  -59.300; -531.000; -496.000
403.957; -143.250;-1117.000;-1023.000
404.085;   10.675;  -61.000; -172.000
404.212;   85.325;  -50.000;   63.000
404.339;  288.400; -566.000; -306.000
404.467; 6109.225; -612.000; -524.000
404.594; 4027.875; -287.000; -227.000
404.721;  864.250; -869.000; -764.000
404.848;   74.525; -113.000; -202.000
404.976; -112.225; -856.000; -783.000
405.103;   -2.300;  -14.000;  -82.000
405.230;   -3.750;  190.000;  226.000
405.357;   27.875;  117.000;   44.000
405.484;  270.575;  -49.000;    5.000
405.612;   63.825; -548.000; -563.000
405.739;  -53.825; -488.000; -243.000
405.866;   75.275;  669.000;  385.000
405.993;  -48.400; -398.000; -102.000
406.120; -133.625; -801.000; -887.000
406.247;  -67.325; -323.000; -342.000
406.374;  349.850;  540.000;  629.000
406.501;   58.200; -632.000; -702.000
406.628;  -74.425; -621.000; -589.000
406.755; -117.500; -803.000; -620.000
406.882;  -42.350; -228.000; -277.000
407.009; -119.875; -719.000; -628.000
407.136;   14.975; -480.000; -401.000
407.263;   67.000; -939.000; -829.000
407.390;  -72.925; -692.000; -614.000
407.517; -177.700;-1139.000;-1187.000
407.644;  -58.525; -332.000; -256.000
407.771;  -82.450; -249.000; -287.000
407.898;    9.475;  168.000;  328.000
408.025;  -88.075; -421.000; -313.000
408.151;  -13.425;   82.000;  153.000
408.278;  -75.425; -267.000; -216.000
408.405; -110.800; -931.000; -899.000
408.532;  -74.800; -549.000; -542.000
408.659; -119.375; -677.000; -648.000
408.785; -204.425;-1298.000;-1170.000
408.912;  -70.525; -412.000; -296.000
409.039; -119.300; -610.000; -686.000
409.166; -103.575; -591.000; -555.000
409.292; -111.025; -571.000; -534.000
409.419; -118.225; -665.000; -649.000
409.546;  -96.550; -431.000; -192.000
409.672; -107.275; -713.000; -545.000
409.799;  -29.800;  -36.000;   34.000
409.926;  -37.000; -180.000; -179.000
410.052; -196.700;-1127.000;-1091.000
410.179;  -61.525; -368.000; -392.000
410.305;  -93.825; -375.000; -493.000
410.432;  -42.800; -220.000; -333.000
410.558; -102.175; -305.000; -380.000
410.685; -111.050; -688.000; -431.000
410.812; -115.700; -409.000; -588.000
410.938; -132.550; -964.000; -808.000
411.065;  -97.900; -671.000; -645.000
411.191;  -32.350; -189.000; -174.000
411.317; -129.525; -823.000; -742.000
411.444;  -67.425; -317.000; -246.000
411.570;  -71.475; -339.000; -294.000
411.697; -126.900; -758.000; -752.000
411.823; -179.875; -989.000; -999.000
411.949;  -31.575;  -56.000;   17.000
412.076; -125.700; -539.000; -519.000
412.202; -124.950; -758.000; -757.000
412.329; -147.175; -798.000; -752.000
412.455; -108.675; -821.000; -657.000
412.581;  -25.525;  -15.000;  172.000
412.707;  -76.775; -540.000; -457.000
412.834;    3.375;  156.000;  219.000
412.960;  -74.150; -785.000; -784.000
413.086; -109.925; -743.000; -701.000
413.212;  132.825;  604.000;  578.000
413.339;  -93.600; -685.000; -701.000
413.465;  -10.900; -364.000; -310.000
413.591;  -95.550; -757.000; -474.000
413.717;  -57.200; -358.000; -366.000
413.843; -143.150; -839.000; -861.000
413.969;  -71.325;  -47.000; -292.000
414.096; -111.275; -679.000; -679.000
414.222;  -17.500;  -33.000;   85.000
414.348;  -53.025; -652.000; -385.000
414.474;   62.150;   38.000;  -52.000
414.600;  -27.600; -126.000; -144.000
414.726;  -11.075;  -96.000;  -55.000
414.852;  -69.900; -365.000; -342.000
414.978;   27.600;  104.000;  -18.000
415.104;   21.800;   38.000;   80.000
415.230;   33.200; -329.000; -330.000
415.356;   28.725; -409.000; -514.000
415.482;  201.075;   13.000;  -35.000
415.608;  273.800; -247.000; -323.000
415.734;  970.150;   67.000;   38.000
415.860;20476.950; -875.000; -767.000
415.986;15723.625; -685.000; -607.000
416.111; 1415.150; -798.000; -652.000
416.237;  295.000; -424.000; -571.000
416.363; 1159.975; -765.000; -733.000
416.489; 4577.425; -324.000; -251.000
416.615;  524.650; -707.000; -742.000
416.741;   -6.750; -677.000; -784.000
416.866; -102.975; -673.000; -736.000
416.992; -104.625; -801.000; -818.000
417.118;  -33.550;  -41.000;  -80.000
417.244;  -54.850; -798.000; -531.000
417.369;  -87.650; -801.000; -612.000
417.495;    3.775; -325.000; -254.000
417.621;  -90.300;-1015.000; -803.000
417.746;   10.825; -579.000; -572.000
417.872;   37.925; -254.000; -144.000
417.998;   53.525; -515.000; -530.000
418.123; 1076.425;-1073.000; -845.000
418.249; 5804.250; -512.000; -601.000
418.374;  862.550; -916.000; -824.000
418.500;  143.200; -383.000; -482.000
418.626;   84.475;   70.000;  -59.000
418.751;  137.650; -549.000; -448.000
418.877;  190.500; -637.000; -643.000
419.002; 1815.625; -688.000; -560.000
419.128;13436.100; -930.000; -721.000
419.253; 3506.250; -967.000; -837.000
419.379;  441.700; -391.000; -338.000
419.504;  433.000;  325.000;  415.000
419.629;  555.900; -393.000; -212.000
419.755; 3706.650; -317.000; -254.000
419.880;23013.950;  -98.000;   67.000
420.006;12215.000; -280.000; -221.000
420.131;31537.025; -662.000; -775.000
420.256; 4801.750; -315.000; -316.000
420.382;  613.550; -665.000; -687.000
420.507;   95.050; -649.000; -778.000
420.632;   82.450; -337.000; -339.000
420.758;  193.300; -251.000; -425.000
420.883; -102.650; -876.000; -672.000
421.008;  -90.850; -775.000; -619.000
421.133;  -92.375; -509.000; -467.000
421.259;  -41.100; -325.000; -259.000
421.384; -130.375; -834.000; -693.000
421.509;  -67.825;-1052.000; -862.000
421.634;  858.800; -936.000; -820.000
421.759;  410.175; -359.000; -327.000
421.885;  -82.500; -717.000; -656.000
422.010;  -77.375; -673.000; -542.000
422.135; -147.775; -695.000; -727.000
422.260;   33.175;  340.000;  280.000
422.385;  -46.100;   12.000;  -98.000
422.510;    3.175;  151.000;  -26.000
422.635;    0.700;  -87.000;  -43.000
422.760;   82.275; -766.000; -791.000
422.885;   38.725;  -57.000;  -80.000
423.010;  -27.925; -112.000; -169.000
423.135; -108.700; -481.000; -561.000
423.260;  -30.950; -150.000; -245.000
423.385;   55.700;  476.000;  222.000
423.510;   19.925;   71.000;  -22.000
423.635;   60.650;  133.000;   45.000
423.760;   54.525;  383.000;  328.000
423.885;   32.575;  336.000;  391.000
424.010;    5.275;  -68.000;  -13.000
424.135;  -35.875;    5.000;  -33.000
424.259;  -71.975; -654.000; -457.000
424.384;  -70.850; -279.000; -272.000
424.509;  -28.625; -260.000; -186.000
424.634;  -88.425; -761.000; -623.000
424.759;  -11.550; -688.000; -544.000
424.883;  -17.750; -506.000; -527.000
425.008;  154.800; -502.000; -410.000
425.133; 2103.175; -679.000; -653.000
425.258; 1058.225; -517.000; -381.000
425.382;  876.025; -867.000; -774.000
425.507; 2356.600; -487.000; -543.000
425.632;  428.900; -802.000; -663.000
425.756;  498.300; -256.000; -146.000
425.881; 6929.725; -831.000; -857.000
426.006;20084.150; -604.000; -355.000
426.130; 3245.175; -696.000; -508.000
426.255;  432.550; -611.000; -491.000
426.379;  168.500; -189.000; -577.000
426.504;  393.200;  660.000;  544.000
426.629; 4126.650; -519.000; -466.000
426.753; 3032.000;   64.000;  -46.000
426.878;  359.950; -252.000; -288.000
427.002;  198.325; -651.000; -668.000
427.127; 1595.025;  -35.000; -158.000
427.251;12182.025;  372.000;  401.000
427.375; 3677.950; -191.000; -173.000
427.500; 2094.575; -616.000; -610.000
427.624;  718.275; -234.000; -400.000
427.749;   72.650; -216.000; -225.000
427.873;  -46.525; -499.000; -412.000
427.997;  -38.350; -222.000; -230.000
428.122;   61.925;  795.000;  703.000
428.246;   78.600;  433.000;  434.000
428.371; -139.775; -869.000; -773.000
428.495;  -98.750; -624.000; -646.000
428.619;  -41.125; -186.000; -117.000
428.743;    7.675;   65.000;  132.000
428.868;  -22.475; -732.000; -643.000
428.992; 1218.400; -219.000; -326.000
429.116;  506.250; -329.000; -357.000
429.240;  234.300;  419.000;  426.000
429.365;  -45.050; -454.000; -574.000
429.489;  -47.975; -638.000; -647.000
429.613;   12.050; -236.000; -177.000
429.737;   41.700; -563.000; -432.000
429.861;  264.175; -247.000; -133.000
429.985; 5679.850; -425.000; -305.000
430.109; 6760.075; -770.000; -908.000
430.234;  814.525;   76.000;  -50.000
430.358;   70.400; -250.000; -160.000
430.482;  -50.625; -672.000; -564.000
430.606;  -82.800; -655.000; -375.000
430.730;  -18.950; -437.000; -388.000
430.854;   70.425; -909.000; -835.000
430.978;  -93.550; -795.000; -764.000
431.102; -105.075; -499.000; -422.000
431.226; -125.400; -874.000; -815.000
431.350;   18.875;  345.000;  422.000
431.474;  -69.575; -661.000; -373.000
431.597; -161.475;-1060.000; -848.000
431.721;  -61.600; -276.000; -267.000
431.845; -142.475; -704.000; -472.000
431.969;  -77.300; -304.000; -349.000
432.093;  -98.050; -395.000; -317.000
432.217;  -14.300;   32.000;   82.000
432.341;  -96.500; -523.000; -518.000
432.464;    5.275;   96.000;   40.000
432.588;  135.350; -401.000; -329.000
432.712;   66.325;  -52.000;  -52.000
432.836;   42.275;  213.000;  263.000
432.959;   -2.225; -372.000; -311.000
433.083;   87.200;   11.000;    2.000
433.207;  394.925;  285.000;  930.000
433.330; 5246.075; -391.000; -200.000
433.454; 6890.125; -654.000; -638.000
433.578; 3923.550;  583.000;  278.000
433.701;  761.625; -623.000; -675.000
433.825;  131.375; -292.000; -299.000
433.949;  125.550;   28.000;  -72.000
434.072;    3.075; -410.000; -323.000
434.196;   -4.825; -309.000; -117.000
434.319; 3614.175;25482.000;25124.000
434.443;  699.300; -656.000; -603.000
434.566; 2845.900;  281.000;   62.000
434.690;  526.100; -637.000; -383.000
434.813;   50.300; -251.000; -173.000
434.937;  -73.650; -569.000; -696.000
435.060;  -62.600; -423.000; -332.000
435.184;  188.400; -492.000; -217.000
435.307;  103.050;  159.000;  102.000
435.431;   -9.700;  -40.000;   24.000
435.554;  -85.400; -399.000; -240.000
435.677;  -79.750; -350.000; -258.000
435.801;  -69.425;  -25.000;   49.000
435.924;  -17.725;    1.000;  -67.000
436.048; -124.650;-1019.000; -732.000
436.171;  -69.900; -240.000;  -66.000
436.294;  -50.025; -248.000; -229.000
436.417;  110.425; -963.000; -849.000
436.541;  -72.600; -814.000; -840.000
436.664;  -56.975; -242.000; -316.000
436.787;  -38.700;   13.000;  113.000
436.910; -111.275; -792.000; -422.000
437.034;   -1.425;  142.000;  143.000
437.157;   29.150;  -11.000;    0.000
437.280;  -63.875; -392.000; -292.000
437.403;  -94.950; -982.000; -869.000
437.526;  404.900; -903.000; -865.000
437.649; 1690.525; -505.000; -332.000
437.772;  224.050; -692.000; -540.000
437.896;   98.375;  700.000;  544.000
438.019; -113.650; -758.000; -503.000
438.142;  -86.225; -596.000; -506.000
438.265;  -51.550; -639.000; -670.000
438.388;  425.725; -520.000; -410.000
438.511;   56.075; -597.000; -394.000
438.634;  -53.100; -247.000; -125.000
438.757; -152.550; -693.000; -619.000
438.880;  -20.650;  -34.000;  -57.000
439.003;  -86.650; -417.000; -437.000
439.126;  -74.350; -287.000; -167.000
439.248;  -82.000;  -98.000; -139.000
439.371;  -48.075;    9.000;  -53.000
439.494;   12.675;  510.000;  439.000
439.617;  -52.650;   65.000;  -88.000
439.740; -176.250; -968.000; -816.000
439.863; -138.075; -755.000; -595.000
439.986; -123.850; -476.000; -431.000
440.108;  -56.500; -161.000; -112.000
440.231; -174.850; -950.000; -836.000
440.354;  -40.925;  -64.000; -150.000
440.477;  -15.950; -566.000; -542.000
440.599;  -18.450; -200.000; -225.000
440.722; -145.125; -709.000; -586.000
440.845;   53.050;  751.000;  928.000
440.968; -110.375; -415.000; -311.000
441.090;  -64.200; -199.000;  -33.000
441.213; -173.300;-1021.000; -825.000
441.336;  -53.175; -159.000;   -5.000
441.458;  -97.225; -549.000; -396.000
441.581;  -90.000; -628.000; -629.000
441.703;  -72.850; -152.000;   13.000
441.826; -115.775; -557.000; -400.000
441.948;  -61.500;   56.000;   51.000
442.071;   24.250;  555.000;  424.000
442.193; -115.575; -531.000; -485.000
442.316;   24.425;  152.000;   97.000
442.438;   34.075; -233.000;  -10.000
442.561;   65.375;  272.000;  262.000
442.683;  365.900; -809.000; -522.000
442.806;  909.025;   -8.000;   74.000
442.928;  -14.525; -859.000; -604.000
443.051;  -68.700; -577.000; -373.000
443.173; -103.450; -341.000; -339.000
443.295;  -86.325; -263.000; -371.000
443.418;  -84.550; -321.000;  -29.000
443.540;  -21.725; -106.000;   -4.000
443.662; -118.475; -563.000; -465.000
443.785;  -14.850;  335.000;  199.000
443.907; -109.600; -362.000; -208.000
444.029; -131.225; -767.000; -494.000
444.152; -158.325; -644.000; -554.000
444.274;  -22.425;  -18.000;  -24.000
444.396; -118.025; -461.000; -221.000
444.518; -115.225; -691.000; -454.000
444.640; -114.400; -268.000; -111.000
444.763;  -11.925;  388.000;  249.000
444.885; -129.500; -432.000; -392.000
445.007;  -31.700;   35.000;   86.000
445.129; -128.725; -610.000; -515.000
445.251;  -93.825; -372.000; -439.000
445.373; -141.075; -537.000; -386.000
445.495;   -5.025;  242.000;  350.000
445.617;   41.250;  853.000;  753.000
445.739;  -73.425; -215.000;  -97.000
445.861;  -38.875; -245.000; -112.000
445.984;  -35.225; -267.000; -101.000
446.105;  117.750; -418.000; -251.000
446.227;  475.650; -176.000;  -19.000
446.349;  -18.150; -358.000; -249.000
446.471; -104.575; -615.000; -448.000
446.593;  -73.025; -316.000;   19.000
446.715;   -8.875;  -67.000;   41.000
446.837;   52.675;  697.000;  832.000
446.959;  -84.300; -457.000; -478.000
447.081; -143.250; -628.000; -518.000
447.203;   46.225;  862.000;  834.000
447.325;  -95.725; -270.000;   42.000
447.446;   -6.975;  286.000;  530.000
447.568; -166.025; -921.000; -803.000
447.690;  -69.125; -236.000; -245.000
447.812; -151.250; -798.000; -519.000
447.933;  -31.900;  155.000;  127.000
448.055;  -92.675; -306.000; -261.000
448.177;  101.275;   31.000;   79.000
448.299;   38.575; -935.000; -727.000
448.420;   22.175;  -25.000;  159.000
448.542;  -52.150;   -3.000;   33.000
448.664;  -26.150;  109.000;  322.000
448.785;  -50.075;  265.000;   83.000
448.907;  -81.500; -614.000; -353.000
449.028;  -60.125; -771.000; -471.000
449.150;   62.250;  492.000;  589.000
449.272; -184.825;-1044.000; -913.000
449.393;   29.100;  612.000;  694.000
449.515; -141.750; -634.000; -581.000
449.636;  -71.600; -264.000; -155.000
449.758;   39.675;  763.000;  622.000
449.879;  -84.375; -498.000; -396.000
450.001;  -79.325; -149.000;  -49.000
450.122;  -38.650;  -95.000;  162.000
450.244;  -32.250;   37.000;  364.000
450.365;  -75.675; -495.000; -301.000
450.486;  -38.275;   80.000;  268.000
450.608;   29.450;  393.000;  326.000
450.729;   62.750;  578.000;  645.000
450.850;   25.450; -574.000; -466.000
450.972;  783.875; -552.000; -389.000
451.093; 5325.975;  190.000;  588.000
451.214; 2507.025; -516.000; -337.000
451.336;  405.550;  773.000;  579.000
451.457;   63.000;  264.000;  393.000
451.578;  -30.525; -118.000;  -74.000
451.699; -131.125; -546.000; -540.000
451.821;  -56.900; -284.000;  -50.000
451.942;   -7.575;  278.000;  285.000
452.063;   48.600;  228.000;  419.000
452.184;  577.900;  -54.000;  -49.000
452.305; 1221.700;  103.000;  170.000
452.427;  174.725; -549.000; -301.000
452.548;   -3.850;   23.000;   79.000
452.669;  -48.375; -257.000;  -89.000
452.790;  -33.150;    3.000;  -18.000
452.911;  -13.675;  195.000;  259.000
453.032;  -77.375; -289.000;  -60.000
453.153;  -59.875;  -29.000;   81.000
453.274;   59.775;  737.000;  868.000
453.395;  -58.125;  -51.000;  175.000
453.516;  116.400; 1317.000; 1388.000
453.637;  -73.275; -205.000; -150.000
453.758;  -49.650;   15.000;   69.000
453.879; -122.975; -462.000; -250.000
454.000;   75.450; 1086.000;  948.000
454.121; -130.775; -554.000; -326.000
454.242; -104.825; -599.000; -383.000
454.362;  -53.275;  -99.000;  114.000
454.483;  -37.675; -309.000; -229.000
454.604;   33.250;  512.000;  580.000
454.725; -132.350; -627.000; -555.000
454.846; -130.300; -474.000; -406.000
454.967;  -22.700;  230.000;  539.000
455.087;  -37.075;  179.000;  153.000
455.208;   19.675;  554.000;  856.000
455.329;  -68.875;  -22.000;   82.000
455.450;   45.800;  473.000;  633.000
455.570;  -83.775; -234.000; -211.000
455.691;  -33.025;  201.000;  407.000
455.812; -100.125; -270.000;  -92.000
455.932;  -49.975;  107.000;  -97.000
456.053;  -88.150;   36.000;   24.000
456.173;  -94.050; -433.000; -355.000
456.294; -144.800; -476.000; -303.000
456.415;  -65.550;  -73.000;   70.000
456.535;  -46.275;  297.000;  273.000
456.656;  -24.400;  132.000;  240.000
456.776;  -74.225;    3.000;  298.000
456.897;   -2.875;  308.000;  513.000
457.017;  -73.075; -153.000;   -3.000
457.138; -119.575; -402.000; -249.000
457.258;  -44.125;  263.000;  224.000
457.379;  -18.350;  509.000;  521.000
457.499;  -30.425;  443.000;  432.000
457.620; -128.275; -407.000; -231.000
457.740;  -92.125; -132.000;  -11.000
457.860;  -50.950;   87.000;   44.000
457.981;  -50.625;  132.000;  124.000
458.101;  -68.800;  -89.000;   40.000
458.221;  -34.900;  336.000;  402.000
458.342;  -55.025;   -4.000;  -37.000
458.462;   27.825;  617.000;  352.000
458.582;  -14.475; -302.000; -294.000
458.703;    9.475;  303.000;  154.000
458.823;   -5.050;   22.000;  163.000
458.943;   26.525;  341.000;  467.000
459.063;  -13.725; 1124.000;  192.000
459.183;  -39.275;  328.000;  313.000
459.304;    6.225;  315.000;  517.000
459.424;  -70.625; -246.000;  -89.000
459.544;  334.325;  388.000;  764.000
459.664;  868.075;  499.000;  506.000
459.784;  365.975; 1004.000; 1175.000
459.904;   63.400;  867.000;  744.000
460.024;   61.400;  867.000;  684.000
460.144;   -8.800;  449.000;  554.000
460.264;   -5.175;  515.000;  327.000
460.385;  -91.275; -145.000; -119.000
460.505;   36.150;  905.000;  858.000
460.625;  -87.400;  -17.000;  -68.000
460.745;  -24.700;  396.000;  541.000
460.864;  -47.000;  153.000;  469.000
460.984;   11.575;  499.000;  573.000
461.104;  128.975; 1656.000; 1775.000
461.224;   16.800;  657.000;  650.000
461.344;  -31.900;  431.000;  360.000
461.464;  -27.750;  258.000;  513.000
461.584;  -32.050;  283.000;  466.000
461.704;  -39.525;   58.000;  108.000
461.824;  -53.175;  238.000;  259.000
461.943;  -34.325;  191.000;  130.000
462.063;  -78.800;    2.000;  324.000
462.183;   43.875;  639.000;  717.000
462.303;   91.750; 1678.000; 1230.000
462.422;   23.925;  781.000;  840.000
462.542;  -46.025;  271.000;  391.000
462.662;   45.800;  353.000;  380.000
462.782;  250.575;  833.000;  572.000
462.901;  511.150;  545.000;  717.000
463.021;  293.975; 1702.000; 1638.000
463.141;  -15.325;  337.000;  770.000
463.260;  -12.525;  614.000;  474.000
463.380;   14.000;  902.000;  884.000
463.499;  -44.800;  342.000;  332.000
463.619;  -14.250;  581.000;  559.000
463.738;   90.425; 1644.000;  903.000
463.858;   18.525;  657.000;  811.000
463.978;  -36.975;  542.000;  396.000
464.097;   52.000;  921.000; 1114.000
464.217;  103.900; 1196.000; 1143.000
464.336;  119.750; 1068.000; 1130.000
464.455;  -33.875;  328.000;  659.000
464.575;   32.400;  597.000;  602.000
464.694;  145.425; 1204.000; 1179.000
464.814;  117.225; 1190.000; 1138.000
464.933;   87.575; 1095.000; 1027.000
465.052;   93.150; 1412.000; 1054.000
465.172;   65.350;  922.000;  799.000
465.291;  128.875; 1376.000; 1320.000
465.410;   10.200;  462.000;  735.000
465.530;   84.800; 1355.000; 1310.000
465.649;   48.975; 1209.000; 1273.000
465.768;  144.275; 1673.000; 1508.000
465.888;   24.475;  941.000; 1174.000
466.007;  100.350; 1335.000; 1440.000
466.126;   -5.875;  721.000;  641.000
466.245;   45.800; 1176.000; 1187.000
466.364;   29.125;  950.000; 1060.000
466.484;   57.200; 1024.000; 1213.000
466.603;   34.625; 1101.000; 1222.000
466.722;  111.550; 1490.000; 1769.000
466.841;   63.375; 1151.000; 1401.000
466.960;   50.150; 1069.000;  972.000
467.079;  127.725; 1971.000; 1786.000
467.198;   65.275; 1238.000; 1181.000
467.317;   82.675; 1768.000; 1162.000
467.436;   94.125; 1709.000; 1261.000
467.555;  129.175; 1796.000; 1746.000
467.674;   66.250; 1227.000; 1329.000
467.793;   31.625; 1376.000; 1374.000
467.912;   98.075; 1658.000; 1539.000
468.031;  132.650; 2038.000; 1930.000
468.150;  136.375; 1842.000; 1837.000
468.269;  185.400; 2313.000; 2090.000
468.388;  171.400; 2168.000; 2339.000
468.507;  236.575; 2884.000; 2903.000
468.626;  271.150; 2555.000; 2541.000
468.744;  125.050; 2018.000; 2174.000
468.863;  195.100; 2312.000; 2523.000
468.982;   92.675; 1503.000; 1555.000
469.101;  234.250; 2788.000; 2692.000
469.220;  138.375; 2333.000; 2176.000
469.338;  257.250; 2935.000; 3051.000
469.457;  198.575; 2719.000; 2545.000
469.576;  352.400; 3953.000; 3784.000
469.695;  236.625; 2877.000; 3066.000
469.813;  439.575; 4148.000; 4192.000
469.932;  396.225; 4255.000; 4485.000
470.051;  419.625; 4075.000; 4161.000
470.169;  869.100; 4470.000; 4338.000
470.288; 1561.900; 4700.000; 4809.000
470.406;  926.250; 5059.000; 5194.000
470.525;  633.875; 6101.000; 5787.000
470.644;  639.350; 6847.000; 6794.000
470.762;  818.225; 8397.000; 7873.000
470.881;  907.725; 8651.000; 8464.000
470.999; 1047.875; 9685.000; 9151.000
471.118; 1120.600;11174.000;10711.000

