
Integration time [ms]: 100.000
Averaging Nr. [scans]: 40
Smoothing Nr. [pixels]: 0
Data measured with spectrometer [name]: 2101012U2
Wave   ;Sample   ;Dark     ;Reference
[nm]   ;[counts] ;[counts] ;[counts] 

197.733;   62.600;  516.000;  404.000
197.879;  -80.225; -610.000; -634.000
198.025;  -30.500; -475.000; -420.000
198.171;  -74.375; -602.000; -612.000
198.317;  -19.075; -401.000; -316.000
198.463;  -62.275; -655.000; -404.000
198.609;   36.325;  181.000; -137.000
198.755;  -78.150; -644.000; -410.000
198.901;  -53.550; -505.000; -424.000
199.047;  -64.875; -615.000; -488.000
199.193;  -34.750; -230.000; -468.000
199.339;  -42.350; -222.000; -369.000
199.485;   50.000;  330.000;  271.000
199.631;   18.775;  227.000;  310.000
199.777;  -43.225; -466.000; -398.000
199.923;  -69.650; -610.000; -424.000
200.069;   -6.475; -141.000;  -58.000
200.215;   59.800;  128.000;  453.000
200.361;   49.350;  243.000;  477.000
200.507;  -60.100; -600.000; -373.000
200.653;  -18.750; -371.000; -194.000
200.798;  -28.325; -215.000; -125.000
200.944;  -10.525; -146.000;  -41.000
201.090;   33.175;   61.000;  222.000
201.236;   -7.325; -116.000; -158.000
201.382;  121.825;  874.000;  903.000
201.528;   28.000;  -58.000;  -48.000
201.674;  -49.925; -386.000; -293.000
201.819;  -54.950; -540.000; -439.000
201.965;  -80.175; -699.000; -447.000
202.111;  -26.775; -273.000; -226.000
202.257;  -37.550; -250.000; -238.000
202.402;   14.100;   13.000;  -36.000
202.548;  -34.900; -169.000; -116.000
202.694;  104.925;  410.000; -183.000
202.840;  -70.225; -603.000; -531.000
202.985;  -66.975; -681.000; -639.000
203.131; -107.350; -832.000; -666.000
203.277;  -11.550; -199.000; -262.000
203.423;  -53.575; -434.000; -520.000
203.568;  -41.700; -462.000; -237.000
203.714;  -62.625; -535.000; -542.000
203.860;  -70.450; -682.000; -641.000
204.005;   23.275;  112.000;  167.000
204.151;   75.825;  561.000;  556.000
204.296;  -57.475; -354.000; -221.000
204.442;  -63.550; -600.000; -547.000
204.588;  -64.800; -592.000; -579.000
204.733;   21.075;  178.000;  168.000
204.879; -127.250;-1018.000; -822.000
205.025;   14.625;  -99.000;  126.000
205.170;    1.975;  -17.000;   94.000
205.316;   92.850;  438.000;  661.000
205.461;  -75.600; -698.000; -554.000
205.607;   91.925;  609.000;  665.000
205.752;  -83.625; -626.000; -551.000
205.898;  -39.375; -501.000; -391.000
206.043;  -55.675; -578.000; -506.000
206.189;  -33.575; -243.000; -285.000
206.334;   76.975;  554.000;  606.000
206.480;   92.325;  409.000;  239.000
206.625;  -78.950; -529.000; -552.000
206.771;  -41.350; -451.000; -373.000
206.916;  -32.775; -210.000; -537.000
207.062;  -62.325; -545.000; -591.000
207.207;  -49.425; -546.000; -443.000
207.353;   57.400;  185.000;  460.000
207.498;   23.375;  196.000;   85.000
207.643;  -60.075; -501.000; -370.000
207.789; -123.525;-1069.000; -910.000
207.934; -104.150; -665.000; -713.000
208.080;  -28.600; -154.000;   66.000
208.225;   -4.225;  -22.000;  -57.000
208.370;  -80.900; -727.000; -619.000
208.516;  -70.900; -741.000; -487.000
208.661;  -28.875; -127.000;  -69.000
208.806;  -18.800; -165.000; -171.000
208.952; -122.125;-1044.000; -731.000
209.097;   75.025;  378.000;  349.000
209.242;  -47.900; -307.000; -382.000
209.387;   74.950;  392.000;  350.000
209.533;  -58.200; -321.000; -350.000
209.678;   79.100;  472.000;  543.000
209.823;  -47.525; -408.000; -310.000
209.969;  -83.575; -860.000; -757.000
210.114; -103.150; -907.000; -719.000
210.259; -125.125; -939.000; -889.000
210.404;  -14.975; -171.000;  103.000
210.549;   20.875;  108.000;    3.000
210.695;  -20.250;   -3.000;  -95.000
210.840;   37.000;   94.000;   67.000
210.985;  -53.025; -484.000; -303.000
211.130;   65.075;  268.000;  406.000
211.275;   23.125;  207.000;  199.000
211.420;  -47.850; -300.000; -289.000
211.566;  -68.800; -536.000; -489.000
211.711;   51.000;  218.000;  157.000
211.856;  -68.100; -545.000; -519.000
212.001;   20.800;  151.000;   44.000
212.146;   34.725;  153.000;   49.000
212.291;  -20.300; -210.000; -186.000
212.436;  -37.200; -280.000;   -6.000
212.581;  -77.125; -685.000; -653.000
212.726;  -72.125; -487.000; -538.000
212.871;  -44.600; -552.000; -217.000
213.016; -141.125;-1172.000;-1029.000
213.161;   65.075;  406.000;  291.000
213.306;  -68.300; -435.000; -577.000
213.451;  -83.400; -778.000; -689.000
213.596;  -65.200; -455.000; -347.000
213.741;  -45.575; -448.000; -538.000
213.886;  -70.225; -498.000; -517.000
214.031;   -6.325; -294.000; -124.000
214.176;  -62.750; -408.000; -341.000
214.321;  -16.675; -296.000; -157.000
214.466;  -23.625; -163.000;  -43.000
214.611;   -5.225;  -61.000;  -10.000
214.756; -131.425; -948.000; -858.000
214.901;  -18.125; -388.000; -226.000
215.046; -122.250; -797.000; -825.000
215.191;   28.850;  128.000;   35.000
215.336;  -16.225; -157.000;  -19.000
215.480;  -74.250; -684.000; -505.000
215.625;   -0.100; -175.000;  -19.000
215.770;  -81.800; -757.000; -662.000
215.915;   11.625;   -5.000;  -97.000
216.060;    2.200; -113.000;  -21.000
216.205; -101.200; -731.000; -779.000
216.349;  -66.950; -470.000; -533.000
216.494; -138.950; -939.000; -867.000
216.639; -109.225; -823.000; -888.000
216.784;  -93.625; -577.000; -525.000
216.929;   44.525;  392.000;  281.000
217.073;   -6.225; -244.000;  -31.000
217.218;   13.325;   78.000;  -47.000
217.363;  -87.275; -656.000; -618.000
217.507;  -76.800; -623.000; -588.000
217.652; -124.850; -845.000; -874.000
217.797;  -84.475; -708.000; -659.000
217.942; -121.400; -856.000; -720.000
218.086;   62.000;  608.000;  539.000
218.231;  -17.675; -174.000;  -26.000
218.376;  -30.575; -337.000; -229.000
218.520;   14.500;  -41.000;   96.000
218.665;  -39.850; -338.000; -204.000
218.810;  -31.050; -275.000; -233.000
218.954;    7.025;  201.000;   35.000
219.099; -114.575; -713.000; -963.000
219.243;  -64.100; -589.000; -554.000
219.388;  -33.250; -264.000; -136.000
219.532;   -6.325; -116.000; -116.000
219.677;  -87.200; -564.000; -521.000
219.822;    9.225;   33.000;   89.000
219.966;   -1.825;   17.000;  -99.000
220.111;  -28.175; -328.000;  -40.000
220.255;  -83.850; -797.000; -750.000
220.400;  -19.850; -180.000; -146.000
220.544;  -72.500; -516.000; -450.000
220.689;  -55.475; -422.000; -451.000
220.833;   -4.575; -123.000;  -58.000
220.978;  -48.350; -393.000; -563.000
221.122;   25.550;  319.000;  307.000
221.267; -112.450; -906.000; -837.000
221.411;  -79.500; -478.000; -394.000
221.555;   -7.025; -104.000;  -23.000
221.700;  -46.100; -329.000; -222.000
221.844;   32.475;  255.000;  272.000
221.989;  -47.475; -328.000; -311.000
222.133;  -22.375; -289.000; -307.000
222.277;    0.725;    5.000;   78.000
222.422;   16.150;  227.000;  113.000
222.566;  -41.025; -381.000; -214.000
222.711;  -58.400; -414.000; -479.000
222.855;  -71.750; -643.000; -586.000
222.999;  -87.575; -642.000; -717.000
223.144;  -26.800; -195.000; -194.000
223.288;   55.225;  423.000;  251.000
223.432;   21.325;  184.000;  230.000
223.576;   28.475;  152.000;  -21.000
223.721;   60.125;  364.000;  273.000
223.865;  -54.175; -472.000; -475.000
224.009;  263.025; 1673.000; 1631.000
224.153;  -75.400; -660.000; -671.000
224.298;  -84.375; -531.000; -489.000
224.442;  -18.475;  -74.000;  -33.000
224.586;   -2.750; -169.000; -106.000
224.730; -101.825; -858.000; -670.000
224.875; -102.250; -739.000; -688.000
225.019;   12.675;  102.000;  188.000
225.163;   48.450;  208.000;  341.000
225.307;   24.825;   97.000;  -91.000
225.451;   49.650;  360.000;  481.000
225.595;   35.675;  264.000;  176.000
225.739;  -21.500; -170.000;  -94.000
225.884;    1.725;   86.000;    5.000
226.028;  -96.300; -760.000; -626.000
226.172;  -34.100; -260.000; -273.000
226.316; -121.150; -941.000; -902.000
226.460;  -62.275; -645.000; -493.000
226.604;  -42.600; -406.000; -400.000
226.748;  -97.225; -836.000; -733.000
226.892;  -35.150; -227.000; -181.000
227.036;  -45.550; -537.000; -447.000
227.180;  -50.800; -551.000; -375.000
227.324;  -65.475; -561.000; -580.000
227.468; -120.600; -819.000; -717.000
227.612;   12.000;  242.000;  -28.000
227.756;  -93.300; -845.000; -698.000
227.900;   65.700;  342.000;  441.000
228.044;  -76.075; -509.000; -290.000
228.188;   58.625;  448.000;  568.000
228.332;  -81.225; -546.000; -472.000
228.476;  -18.675; -223.000; -149.000
228.620;  -33.025; -210.000; -150.000
228.764;   78.475;  431.000;  349.000
228.908;   -9.475; -155.000;   30.000
229.052;  -52.375; -615.000; -528.000
229.195;  -15.525; -172.000;   13.000
229.339;  -10.900; -235.000; -305.000
229.483;  -28.675;    5.000; -162.000
229.627;   -4.525; -156.000;  139.000
229.771;  -51.300; -218.000; -294.000
229.915;   -4.175;  230.000;   79.000
230.059;  -84.375; -648.000; -663.000
230.202;  -31.550; -370.000; -317.000
230.346;  -20.025; -107.000;  107.000
230.490;  -65.625; -489.000; -521.000
230.634; -109.850; -736.000; -553.000
230.777;   80.350;  478.000;  509.000
230.921;  -56.825; -450.000; -359.000
231.065;  -37.750; -246.000; -286.000
231.209;   15.275;  261.000;  265.000
231.352;   27.875;   54.000;   40.000
231.496;   15.875;  568.000;  188.000
231.640;  -75.550; -693.000; -621.000
231.783;   72.900;  546.000;  525.000
231.927;  -45.400; -294.000; -365.000
232.071; -126.550; -962.000; -736.000
232.214; -112.200; -980.000; -764.000
232.358;  -93.550; -683.000; -599.000
232.502;    0.925;  -19.000;    7.000
232.645; -140.450;-1090.000; -927.000
232.789;  -17.000; -257.000; -218.000
232.933;  -55.400; -407.000; -224.000
233.076; -128.250;-1038.000; -897.000
233.220; -109.750; -752.000; -777.000
233.363;  -84.700; -669.000; -477.000
233.507;   63.050;  371.000;  129.000
233.650;  -95.000; -764.000; -834.000
233.794;   49.300;  438.000;  461.000
233.938;  -66.225; -530.000; -362.000
234.081;  -14.900;  -93.000;   31.000
234.225;  -68.300; -631.000; -539.000
234.368; -107.125; -773.000; -723.000
234.512;  -27.300; -385.000; -299.000
234.655;  -95.625; -582.000; -555.000
234.798;  -71.725; -493.000; -466.000
234.942; -141.675; -884.000;-1002.000
235.085;  -67.725; -651.000; -443.000
235.229;  -64.900; -405.000; -410.000
235.372;  -37.950; -247.000; -191.000
235.516;  -51.950; -397.000; -321.000
235.659;   20.025;   92.000;  121.000
235.802;   -5.750;  -38.000;  -22.000
235.946;   26.550;  335.000;  215.000
236.089;   31.625;  126.000;  250.000
236.233;   57.850;  275.000;  298.000
236.376;  -43.200; -235.000; -378.000
236.519;  -47.400; -297.000; -319.000
236.663;  -21.500; -215.000; -117.000
236.806; -133.000;-1029.000; -999.000
236.949;   44.250;  543.000;  431.000
237.092;   78.025;  412.000;  391.000
237.236;  -77.400; -589.000; -502.000
237.379;   82.100;  352.000;  428.000
237.522; -124.200; -879.000; -768.000
237.666;  -18.750; -271.000;   18.000
237.809; -136.875; -851.000; -823.000
237.952;   43.150;  469.000;  271.000
238.095;  -65.775; -447.000; -442.000
238.238;   77.350;  688.000;  700.000
238.382;   10.175;  166.000;  103.000
238.525;  -62.175; -598.000; -511.000
238.668; -133.625;-1060.000; -985.000
238.811;  -84.425; -638.000; -643.000
238.954;  -68.400; -483.000; -334.000
239.097;  101.700;  617.000;  664.000
239.241;   17.300;  394.000;  326.000
239.384;  -34.300; -254.000; -214.000
239.527;  -68.350; -424.000; -224.000
239.670; -142.225; -994.000;-1091.000
239.813; -100.650; -696.000; -658.000
239.956;   88.750;  579.000;  473.000
240.099; -108.850; -778.000; -725.000
240.242;   71.775;  428.000;  432.000
240.385;   54.550;  466.000;  450.000
240.528;  -83.450; -706.000; -473.000
240.671;   21.375;  189.000;  134.000
240.814;  -47.850; -441.000; -158.000
240.957;  -96.725; -767.000; -578.000
241.100;  -89.550; -779.000; -755.000
241.243; -149.675;-1234.000; -893.000
241.386;  -50.525; -508.000; -379.000
241.529;  -85.975; -735.000; -547.000
241.672;  -74.650; -566.000; -495.000
241.815; -112.975; -832.000; -808.000
241.958;  -22.650; -125.000; -182.000
242.101;  -84.475; -545.000; -390.000
242.244;  -33.475; -270.000; -325.000
242.387;  -29.075; -304.000; -246.000
242.530;   60.500;  470.000;  134.000
242.673;  -50.300; -381.000; -309.000
242.815; -119.375; -925.000; -899.000
242.958;  -72.750; -482.000; -381.000
243.101;   19.250;  132.000;  187.000
243.244;  -73.775; -564.000; -521.000
243.387;  -47.825; -313.000; -316.000
243.530;  -89.750; -657.000; -674.000
243.672;   -5.600;   43.000;  -92.000
243.815;  -58.650; -355.000; -283.000
243.958;   11.200;   98.000;  -26.000
244.101;    5.425;   59.000;  -16.000
244.243;   -3.775;  -47.000;  101.000
244.386; -117.825; -761.000; -630.000
244.529;  -31.350; -132.000; -139.000
244.672; -159.175;-1154.000; -951.000
244.814;  -93.675; -621.000; -794.000
244.957;  -28.000; -380.000; -304.000
245.100;  -72.025; -489.000; -489.000
245.242;  -58.775; -387.000; -374.000
245.385;    8.250;  -59.000;  -39.000
245.528; -120.625; -871.000; -705.000
245.670;   93.625;  612.000;  634.000
245.813;  -85.125; -599.000; -547.000
245.956;  -21.600; -324.000; -275.000
246.098;  -74.550; -508.000; -650.000
246.241;   16.000;  194.000;   48.000
246.383;  -14.950; -119.000;  -73.000
246.526;  -81.125; -454.000; -525.000
246.669; -111.450; -889.000; -780.000
246.811;   24.325;  172.000;   -1.000
246.954;  -59.025; -512.000; -426.000
247.096;  -17.550;  -84.000;   -6.000
247.239;  -60.325; -482.000; -445.000
247.381;  -63.125; -647.000; -488.000
247.524;   81.975;  645.000;  679.000
247.666;   -2.725;   58.000;   11.000
247.809; -130.300; -887.000; -691.000
247.951;   -3.950;  -75.000;  138.000
248.094;   33.800;  432.000;  308.000
248.236; -151.650;-1262.000;-1238.000
248.378;   12.450; -356.000;  -81.000
248.521;  -14.900; -334.000; -337.000
248.663;  -34.200; -236.000; -267.000
248.806;  -21.850; -300.000; -266.000
248.948;  -86.975; -886.000; -763.000
249.090;  -32.225; -428.000; -398.000
249.233;  -31.475; -344.000; -381.000
249.375;  -47.625; -474.000; -451.000
249.518;  -12.950;  -83.000; -133.000
249.660;   -3.175; -103.000;    3.000
249.802; -176.700;-1303.000;-1189.000
249.945;  -63.675; -612.000; -540.000
250.087; -111.100; -834.000; -768.000
250.229;  -51.450; -362.000; -480.000
250.371;  -78.650; -494.000; -439.000
250.514;  -48.000; -310.000; -244.000
250.656;  -51.225;   69.000;  102.000
250.798; -106.850; -849.000; -800.000
250.940;  -55.275; -322.000; -322.000
251.083;  -14.625; -335.000; -111.000
251.225;   49.225;  338.000;  310.000
251.367;  -32.650; -274.000; -373.000
251.509;  -36.700; -265.000; -210.000
251.651;  -96.150; -731.000; -671.000
251.794;   77.250;  538.000;  632.000
251.936; -111.850; -821.000; -747.000
252.078;  -76.575; -540.000; -461.000
252.220;  -66.525; -645.000; -477.000
252.362;   73.525;  344.000;  462.000
252.504;  -61.400; -677.000; -584.000
252.646; -118.175; -875.000; -722.000
252.788;    0.550;   14.000; -128.000
252.931;  -45.425; -257.000; -253.000
253.073;  -34.325; -376.000; -317.000
253.215;   -3.375;  141.000;  122.000
253.357;  -17.600;   82.000; -153.000
253.499;  -47.825; -374.000; -234.000
253.641;  -77.750; -749.000; -594.000
253.783;  -89.775; -609.000; -527.000
253.925;  -89.150; -586.000; -591.000
254.067; -103.925; -744.000; -667.000
254.209;  -25.150; -391.000; -259.000
254.351; -144.175; -865.000; -883.000
254.493;  -52.325; -441.000; -417.000
254.635; -117.825; -936.000; -818.000
254.777;  -90.925; -752.000; -687.000
254.918;  -68.500; -512.000; -430.000
255.060;  -53.200; -551.000; -395.000
255.202;  -49.475; -473.000; -261.000
255.344;  -73.525; -658.000; -455.000
255.486;  -68.075; -471.000; -406.000
255.628; -101.425; -780.000; -781.000
255.770;  -93.750; -676.000; -536.000
255.912;  -80.675; -559.000; -468.000
256.053;  -82.575; -730.000; -508.000
256.195;  155.250; 1008.000;  903.000
256.337;  -98.575; -861.000; -595.000
256.479;   68.475;  532.000;  416.000
256.621;  -39.500; -394.000; -212.000
256.762;  -95.025; -789.000; -742.000
256.904;   49.325;  485.000;  487.000
257.046;  -47.875; -381.000; -271.000
257.188;  -39.725; -351.000; -264.000
257.329;  -62.775; -525.000; -464.000
257.471; -129.625; -939.000; -807.000
257.613;  -75.000; -584.000; -498.000
257.755; -143.325;-1073.000; -982.000
257.896;   42.050;  286.000;  392.000
258.038;  -75.475; -403.000; -352.000
258.180;  -30.025; -354.000; -279.000
258.321;  -87.100; -581.000; -457.000
258.463;   11.625;  -71.000;  133.000
258.605;  -86.425; -562.000; -570.000
258.746; -100.150; -886.000; -772.000
258.888; -160.175;-1026.000;-1020.000
259.029;   17.000;  121.000;   -8.000
259.171;  -83.750; -614.000; -550.000
259.313;   -9.100;  -49.000;  -47.000
259.454;  -65.500; -536.000; -414.000
259.596;  -55.100; -483.000; -390.000
259.737;  -61.700; -590.000; -474.000
259.879;   48.150;  217.000;  311.000
260.020;   82.600;  901.000;  636.000
260.162;  -28.675; -146.000; -253.000
260.303; -115.200; -768.000; -687.000
260.445;  -73.750; -609.000; -613.000
260.586;   25.950;  392.000;  157.000
260.728;  -32.675; -360.000; -248.000
260.869;  -70.000; -350.000; -343.000
261.011;   91.125;  706.000;  537.000
261.152;  -56.925; -479.000; -319.000
261.293;  -83.950; -576.000; -595.000
261.435;  -37.200; -219.000; -184.000
261.576;  -43.700; -455.000; -325.000
261.718;   54.050;  420.000;  470.000
261.859; -116.650; -940.000; -949.000
262.000; -128.250; -951.000;-1016.000
262.142;  -17.075;  -52.000;  -60.000
262.283; -124.700; -808.000; -691.000
262.424;  -80.675; -666.000; -625.000
262.566; -147.100;-1161.000; -983.000
262.707; -107.350; -840.000; -830.000
262.848; -117.100; -769.000; -726.000
262.990;  -43.250; -362.000; -345.000
263.131;   87.250;  650.000;  681.000
263.272;   -4.275;  -61.000;  -41.000
263.413; -107.950; -589.000; -561.000
263.555;  -72.950; -669.000; -143.000
263.696;  -82.575; -550.000; -641.000
263.837;  -71.875; -449.000; -551.000
263.978;   -5.500;   -5.000;  -77.000
264.119;  -38.975; -283.000; -264.000
264.261; -115.700; -847.000; -630.000
264.402;   11.900;   33.000;   40.000
264.543;  -64.875; -509.000; -524.000
264.684;   -4.675;   61.000;  -50.000
264.825;  -72.450; -816.000; -538.000
264.966;    5.750;  -84.000;  -67.000
265.107; -107.450; -646.000; -670.000
265.248; -118.775; -825.000; -812.000
265.390;   -8.250;  152.000;   -9.000
265.531;  -10.575; -238.000; -107.000
265.672;  -89.475; -557.000; -630.000
265.813;   63.850;  563.000;  439.000
265.954; -152.175; -959.000; -940.000
266.095;   -3.200; -372.000; -322.000
266.236;  -87.850; -686.000; -548.000
266.377;  -47.975; -243.000; -297.000
266.518;  -75.250; -619.000; -547.000
266.659;   30.100;  170.000;  268.000
266.800;   11.700;   83.000;   85.000
266.941;  -63.975; -487.000; -478.000
267.082;   28.600;  354.000;   99.000
267.223;  -48.650; -344.000; -273.000
267.364; -113.775; -892.000; -686.000
267.504;  -19.800;    3.000;  135.000
267.645;    5.900;  160.000;   67.000
267.786;  -34.175; -147.000;  -86.000
267.927;  -64.350; -473.000; -379.000
268.068;    1.325; -186.000;  -61.000
268.209;  -42.275; -175.000; -413.000
268.350;  -52.525; -388.000; -532.000
268.490;  -81.500; -648.000; -521.000
268.631;   42.125;  127.000;  225.000
268.772; -104.200; -874.000; -647.000
268.913;  -44.400; -328.000; -476.000
269.054;  -11.250; -117.000;   12.000
269.194;  -54.975; -418.000; -402.000
269.335; -154.600;-1137.000;-1074.000
269.476;  -12.450;   33.000;  -35.000
269.617;  -57.750; -347.000; -392.000
269.757;  -93.000; -713.000; -646.000
269.898; -105.925; -856.000; -613.000
270.039;  -58.775; -415.000; -405.000
270.180; -136.250; -952.000; -816.000
270.320;  -21.400; -190.000; -250.000
270.461;  -39.600; -277.000; -249.000
270.602;   -6.700; -186.000; -156.000
270.742; -119.450; -868.000; -943.000
270.883;  -56.100; -442.000; -390.000
271.023;  -69.050; -358.000; -357.000
271.164;  -71.125; -607.000; -528.000
271.305;  -94.300; -666.000; -654.000
271.445;  -74.875; -722.000; -683.000
271.586;  -67.325; -462.000; -283.000
271.726;  -41.900; -397.000; -322.000
271.867;  -61.475; -594.000; -534.000
272.008;  186.150; -473.000; -285.000
272.148;  141.825;  462.000;  468.000
272.289;   -3.475; -113.000; -181.000
272.429;   12.400;   19.000;  185.000
272.570;  -86.500; -633.000; -737.000
272.710; -103.425; -825.000; -775.000
272.851;  -24.000;  113.000; -130.000
272.991; -151.275;-1173.000;-1077.000
273.131;  -62.375; -419.000; -459.000
273.272;  -97.050; -683.000; -723.000
273.412;   26.375; -143.000;  -31.000
273.553;  -38.825; -488.000; -507.000
273.693;  139.250;  913.000;  858.000
273.834;  -79.050; -894.000; -692.000
273.974;  -61.600; -664.000; -615.000
274.114;  -96.000; -772.000; -560.000
274.255;  103.325;  414.000;  373.000
274.395;    1.650; -180.000; -125.000
274.535;   40.975;  199.000;  350.000
274.676;   34.650;  225.000;   94.000
274.816;   -3.250;  110.000;   34.000
274.956;  -71.950; -624.000; -690.000
275.097;  -58.425;-1014.000; -922.000
275.237; -105.825; -913.000; -803.000
275.377;  -90.050; -778.000; -689.000
275.517; -142.300; -878.000; -937.000
275.658;  -51.475; -590.000; -555.000
275.798;  -69.850; -606.000; -413.000
275.938;   11.150;  215.000;  323.000
276.078; -105.325; -626.000; -395.000
276.218;    8.600;   99.000;  104.000
276.359; -126.650;-1026.000;-1024.000
276.499;  -57.800; -605.000; -446.000
276.639;  -35.700; -305.000; -151.000
276.779;  -40.200; -475.000; -357.000
276.919;  -99.275; -783.000; -624.000
277.059;  -13.075; -261.000; -212.000
277.199;  -46.150; -357.000; -259.000
277.340;   62.925;  287.000;  175.000
277.480; -106.300; -840.000; -693.000
277.620;   24.775;  192.000;   16.000
277.760; -206.875;-1533.000;-1294.000
277.900;   27.650;  113.000;   33.000
278.040;   32.975;  137.000;  159.000
278.180;   48.925;  270.000;  170.000
278.320;   -3.525;   21.000;   56.000
278.460;  -58.850; -443.000; -469.000
278.600;  -91.325; -708.000; -598.000
278.740;   61.250;  448.000;  224.000
278.880;  -25.650; -768.000; -791.000
279.020;    4.750; -194.000; -144.000
279.160;  -84.400; -672.000; -595.000
279.300; -108.900; -926.000; -873.000
279.440;  -90.850; -709.000; -622.000
279.579;  -12.925;-1014.000; -929.000
279.719;  -38.950; -410.000; -394.000
279.859;   80.600;   -4.000;   41.000
279.999;   36.725; -208.000;  101.000
280.139;   -7.925; -435.000; -387.000
280.279;  -71.500; -708.000; -745.000
280.419;    0.800; -229.000; -147.000
280.559;  -34.075; -259.000; -180.000
280.698;  -77.925; -790.000; -639.000
280.838;  -77.550; -778.000; -800.000
280.978; -102.300; -846.000; -790.000
281.118; -110.950; -811.000; -704.000
281.257;   17.850;   24.000;    6.000
281.397;  -81.425;-1094.000; -960.000
281.537;  -84.175; -599.000; -712.000
281.677;   -9.750; -150.000; -101.000
281.816;  -78.175; -700.000; -630.000
281.956;  -33.550; -193.000; -257.000
282.096;  -55.975; -539.000; -396.000
282.235; -103.550; -672.000; -638.000
282.375;   -7.850; -243.000;  -98.000
282.515; -104.250; -715.000; -707.000
282.654;   39.875;   29.000;  106.000
282.794;   21.600;  388.000;  244.000
282.934;  -50.450; -530.000; -491.000
283.073; -132.650;-1030.000; -857.000
283.213;  -40.725; -460.000; -467.000
283.353;  -38.450; -408.000; -349.000
283.492;  -18.825; -264.000; -296.000
283.632;  -39.750; -254.000; -168.000
283.771;  -94.275; -859.000; -730.000
283.911;  -58.100; -369.000; -260.000
284.050; -112.375; -794.000; -748.000
284.190; -161.725;-1229.000;-1096.000
284.329; -130.800;-1055.000; -964.000
284.469;  -44.675; -516.000; -591.000
284.608;  -41.825; -559.000; -598.000
284.748;  -79.200; -614.000; -570.000
284.887;    8.500;  -87.000;  -20.000
285.027; -134.625; -844.000; -892.000
285.166;  -26.175; -192.000; -249.000
285.306;   16.475; -116.000;  -33.000
285.445;  -27.450; -229.000; -343.000
285.584;  -89.625; -630.000; -494.000
285.724;  -36.675; -282.000; -322.000
285.863; -112.200; -857.000; -507.000
286.002;  -53.150; -366.000; -276.000
286.142; -105.875; -715.000; -622.000
286.281;  -69.125; -525.000; -493.000
286.420;  -71.150; -554.000; -417.000
286.560;  105.525;  653.000;  623.000
286.699; -128.375; -958.000; -912.000
286.838;  -80.875; -590.000; -591.000
286.978; -103.475; -533.000; -537.000
287.117; -127.725;-1085.000; -950.000
287.256;  -25.400; -228.000; -211.000
287.395;  -40.300; -197.000; -378.000
287.535;  -43.200; -370.000; -298.000
287.674;  -64.900; -509.000; -484.000
287.813;   63.100;  661.000;  533.000
287.952; -124.975;-1010.000; -871.000
288.091; -142.800;-1049.000; -915.000
288.231;   13.475;   13.000;   15.000
288.370; -176.675;-1217.000;-1200.000
288.509;  -79.775; -728.000; -645.000
288.648;  -82.800; -770.000; -548.000
288.787;  -34.050; -243.000;  -87.000
288.926;  -47.450; -454.000; -475.000
289.065;  128.775;  859.000;  672.000
289.204;  -60.900; -377.000; -217.000
289.344;  -89.425; -791.000; -690.000
289.483;   35.100;  416.000;  304.000
289.622;  -23.150; -291.000; -149.000
289.761;   -7.500; -309.000; -166.000
289.900; -106.375; -785.000; -626.000
290.039;    4.800;  -12.000;  -95.000
290.178;  -36.200; -274.000; -180.000
290.317;  -80.625; -618.000; -479.000
290.456;  -54.025; -463.000; -451.000
290.595; -128.675; -961.000; -833.000
290.734; -125.150; -904.000; -891.000
290.873;  -73.300; -456.000; -420.000
291.011;  -97.675; -833.000; -843.000
291.150;  -91.300; -770.000; -682.000
291.289;  -18.625; -343.000; -110.000
291.428;  -85.250; -599.000; -480.000
291.567;  -46.625; -370.000; -442.000
291.706;   10.925;  109.000;  154.000
291.845;  -87.075; -597.000; -505.000
291.984; -162.825;-1234.000;-1061.000
292.122;   67.175;  602.000;  582.000
292.261;   55.250;  620.000;  463.000
292.400;   12.425; -144.000;  211.000
292.539; -131.875; -959.000; -813.000
292.678;  -37.400; -325.000; -300.000
292.816; -153.625;-1136.000; -965.000
292.955;  -87.075; -844.000; -684.000
293.094;  -21.250; -173.000; -337.000
293.233;  -47.200; -556.000; -400.000
293.371;  -28.700; -225.000;  -84.000
293.510; -100.825; -866.000; -780.000
293.649; -121.075; -959.000; -924.000
293.787;  -31.475;-1083.000;-1012.000
293.926;   -8.725; -113.000;  -32.000
294.065;  -41.100; -379.000; -290.000
294.203;   54.100;  298.000;  406.000
294.342;   33.275;   74.000;  156.000
294.481; 6256.925;51180.000; -836.000
294.619;  -32.725; -425.000; -582.000
294.758; -134.700;-1230.000;-1137.000
294.896;   99.125; -125.000;    5.000
295.035; -123.400;-1040.000;-1006.000
295.174; -118.000;-1082.000; -954.000
295.312;  -35.275; -323.000; -203.000
295.451;    5.100; -307.000; -428.000
295.589;  -57.800; -389.000; -518.000
295.728;   30.900; -292.000; -165.000
295.866;   12.100;  -36.000;  -51.000
296.005;  -52.000; -584.000; -341.000
296.143;  -63.750; -558.000; -596.000
296.282;  -97.975; -957.000; -881.000
296.420;  -80.225; -657.000; -557.000
296.559;  -67.875; -892.000; -633.000
296.697;   57.875; -847.000; -665.000
296.835;  109.775;-1141.000;-1002.000
296.974;   47.650;  -23.000;   39.000
297.112;   43.425; -443.000; -504.000
297.251;  -66.275; -815.000; -755.000
297.389;  127.300; -576.000; -438.000
297.527;   67.825; -145.000;  -83.000
297.666;  -34.125; -486.000; -438.000
297.804;  -50.275; -404.000; -264.000
297.942;    6.800; -136.000; -161.000
298.081;    0.925; -183.000;   63.000
298.219;   77.900;  -17.000;  -19.000
298.357;   62.100; -144.000;  -71.000
298.495;   71.550; -810.000; -812.000
298.634;   88.500;  245.000;  219.000
298.772;   95.325; -220.000; -338.000
298.910;  -32.250; -309.000; -182.000
299.048;   -9.400; -130.000; -153.000
299.187;  -21.200; -350.000; -250.000
299.325;   40.825;   52.000;  122.000
299.463;   82.625; -389.000; -299.000
299.601;  143.725; -327.000; -271.000
299.739;  -88.600; -908.000; -883.000
299.877;  -77.350; -791.000; -703.000
300.016;  -41.125;-1095.000; -935.000
300.154;  210.300;  -19.000; -161.000
300.292;   96.400; -428.000; -348.000
300.430;   61.400; -408.000; -291.000
300.568;  -72.650; -940.000; -874.000
300.706;  -33.400; -366.000; -469.000
300.844;  -71.075;-1108.000; -979.000
300.982;  130.775;  246.000;  282.000
301.120; -108.900; -965.000; -866.000
301.258;  -55.975; -812.000; -705.000
301.396;   30.000;  104.000;  -41.000
301.534;  126.675; -218.000; -293.000
301.672;   29.550; -664.000; -521.000
301.810;   72.525; -613.000; -545.000
301.948;  139.450;   53.000;  149.000
302.086;  710.600; -250.000;  -32.000
302.224; 1115.025; -610.000; -585.000
302.362;   73.725; -558.000; -622.000
302.500;    9.675; -923.000; -893.000
302.638;  148.375;  128.000;  245.000
302.776;    8.275; -352.000; -408.000
302.913;   54.825;  447.000;  236.000
303.051;    3.400;  -86.000;  -23.000
303.189;   76.800;   90.000;  118.000
303.327;  -32.550; -341.000; -256.000
303.465;  -84.275; -832.000; -588.000
303.603;  -91.000; -805.000; -604.000
303.740;  127.100;  417.000;  241.000
303.878;   42.575; -800.000; -759.000
304.016;  -72.275; -915.000; -790.000
304.154; -113.800;-1123.000;-1152.000
304.291;  -15.150; -505.000; -554.000
304.429;   10.625;  102.000;   74.000
304.567; -118.625; -908.000; -893.000
304.705;  -41.575; -408.000; -515.000
304.842;  114.175; -616.000; -540.000
304.980;   62.825;  215.000;   35.000
305.118;   75.400; -367.000; -365.000
305.255;  -54.150; -945.000; -927.000
305.393;   69.625;  178.000;  239.000
305.531;  -80.875;-1173.000; -956.000
305.668;  -60.750; -663.000; -582.000
305.806;  113.100; -358.000; -439.000
305.943;  147.050; -629.000; -637.000
306.081;   77.825; -378.000; -267.000
306.219;  -97.075; -863.000; -748.000
306.356;   -2.075;  158.000;   27.000
306.494;  120.025;  981.000;  761.000
306.631;    8.800;  -11.000;  -55.000
306.769;    5.950; -613.000; -485.000
306.906;  -18.750; -284.000; -258.000
307.044;  -62.825; -473.000; -488.000
307.181;  -47.800; -410.000; -332.000
307.319;   16.125;  112.000;   87.000
307.456; -171.400;-1191.000;-1153.000
307.594;  -88.275; -980.000; -727.000
307.731;   -2.575; -371.000; -164.000
307.868;   19.700;  -15.000;   20.000
308.006; -114.850; -961.000; -847.000
308.143;  -46.325; -618.000; -330.000
308.281;  151.975;  -37.000; -254.000
308.418;  -15.900; -748.000; -640.000
308.555;  -72.075; -400.000; -250.000
308.693;  -50.350; -577.000; -573.000
308.830; -102.075; -712.000; -657.000
308.967;    1.525; -215.000;  -95.000
309.105;  -44.925; -507.000; -396.000
309.242;   40.875; -468.000; -367.000
309.379;  296.525; -577.000; -655.000
309.517;  -53.400; -936.000; -948.000
309.654; -104.675; -910.000; -734.000
309.791;  -58.125; -662.000; -580.000
309.928; -108.125; -977.000; -914.000
310.065;  198.825;  819.000;  697.000
310.203;   27.350; -825.000; -850.000
310.340;   25.925; -465.000; -321.000
310.477;  -74.475; -412.000; -516.000
310.614;  -52.925; -383.000; -473.000
310.751;  -73.250; -427.000; -518.000
310.889;   -6.400;    1.000;   11.000
311.026; -145.475;-1161.000; -939.000
311.163;  -39.700; -386.000; -380.000
311.300;  -65.575; -512.000; -479.000
311.437;  -61.400; -658.000; -619.000
311.574; -155.400;-1226.000; -985.000
311.711;  -57.225; -595.000; -433.000
311.848;  -31.975; -380.000; -388.000
311.985;   15.800;  270.000;   93.000
312.122; -110.975; -932.000; -762.000
312.259; -122.150; -941.000; -994.000
312.396;  -77.500; -508.000; -551.000
312.533;  -75.775; -812.000; -790.000
312.670; -142.300;-1070.000; -898.000
312.807;  -25.000; -352.000; -367.000
312.944;  -79.375; -513.000; -611.000
313.081;  -23.350; -150.000; -415.000
313.218;  -96.375;-1111.000; -867.000
313.355;   30.600; -531.000; -449.000
313.492;   17.100; -455.000; -292.000
313.629;  159.825;  815.000;  735.000
313.766; -140.825;-1176.000;-1008.000
313.902;   -9.875; -186.000;   21.000
314.039;  -55.950; -372.000; -289.000
314.176;   35.900;  286.000;  192.000
314.313;  -62.575; -569.000; -473.000
314.450;  -72.175; -788.000; -684.000
314.587;  -35.200; -468.000; -480.000
314.723;    1.650;  -78.000;  130.000
314.860;   63.175;  318.000;  332.000
314.997;   49.350;  223.000;  142.000
315.134;  -34.550; -385.000; -368.000
315.270;  -24.575; -480.000; -496.000
315.407; -124.900;-1094.000; -967.000
315.544;  -39.700; -657.000; -538.000
315.681;  -52.050; -681.000; -565.000
315.817;   33.000; -133.000; -176.000
315.954;   35.150; -613.000; -392.000
316.091; -109.700;-1045.000;-1023.000
316.227;  -26.125;  -71.000; -179.000
316.364;   -0.175;   23.000;    6.000
316.500;  -37.600; -113.000; -300.000
316.637;  -46.850; -181.000; -302.000
316.774;  -84.275; -625.000; -358.000
316.910;  -89.225; -598.000; -629.000
317.047;  -64.625; -487.000; -351.000
317.183;  -43.525; -435.000; -566.000
317.320;  -27.550; -367.000; -321.000
317.456;  -78.825; -733.000; -805.000
317.593;  -96.150; -598.000; -641.000
317.729;   -0.525;  168.000;  -67.000
317.866; -202.450;-1434.000;-1285.000
318.002;  -81.800; -708.000; -948.000
318.139;  -92.850; -883.000; -867.000
318.275;  -94.750;-1003.000; -738.000
318.412;  -44.650; -517.000; -336.000
318.548;  -20.950; -751.000; -720.000
318.685;  -92.175; -985.000; -888.000
318.821;  -92.350; -762.000; -735.000
318.957;   -3.950;   34.000;  -23.000
319.094;   50.500;  297.000;  154.000
319.230;  -38.875; -756.000; -742.000
319.367;  161.775; -471.000; -520.000
319.503;   80.900; -538.000; -436.000
319.639;  -87.175; -877.000; -793.000
319.775;  -51.100; -750.000; -685.000
319.912;  -42.575; -424.000; -519.000
320.048;  -67.075;-1184.000;-1184.000
320.184;   73.600;   59.000;   70.000
320.321;  -57.225; -497.000; -467.000
320.457;   74.750;  475.000;  662.000
320.593;  -60.975; -375.000; -382.000
320.729; -102.725; -732.000; -734.000
320.866;  -75.725; -577.000; -635.000
321.002;  -65.500; -759.000; -809.000
321.138;   -2.325; -135.000; -211.000
321.274;   72.350; -148.000; -115.000
321.410;  -14.700; -585.000; -353.000
321.546;   -3.750;-1011.000; -911.000
321.683;   61.225;  400.000;  185.000
321.819;   18.550;  -48.000; -117.000
321.955; -107.800; -743.000; -722.000
322.091;  -34.125; -585.000; -540.000
322.227;   -4.675; -382.000; -202.000
322.363;   -6.225; -320.000; -215.000
322.499;  -33.300; -343.000; -331.000
322.635;  184.200;  636.000;  443.000
322.771;   44.675; -139.000;   12.000
322.907;  111.025;  129.000;  327.000
323.043;   -2.100; -115.000; -206.000
323.179;  -23.200; -394.000; -363.000
323.315;   64.700; -401.000; -371.000
323.451;  146.875; -328.000; -236.000
323.587;   69.125;  -60.000;  -77.000
323.723;   43.150; -682.000; -601.000
323.859;    5.875; -258.000;  -76.000
323.995;  -12.925; -467.000; -409.000
324.131; -115.150; -967.000; -892.000
324.267;  -36.575; -254.000; -276.000
324.402; -125.700; -960.000; -983.000
324.538;   -3.675; -279.000; -104.000
324.674;   37.125;  164.000;   77.000
324.810;  162.750;  226.000;  308.000
324.946;   26.200; -810.000; -658.000
325.082;  -60.150; -568.000; -475.000
325.217;   -0.775;  -62.000;   16.000
325.353;  -93.725; -764.000; -659.000
325.489;  -80.475; -540.000; -506.000
325.625;  -69.175; -579.000; -525.000
325.760;   54.350;  517.000;  376.000
325.896;  -33.425; -515.000; -702.000
326.032;  -46.150; -403.000; -352.000
326.168;  -50.325; -462.000; -369.000
326.303;  -58.625; -352.000; -461.000
326.439;   -5.125; -336.000; -276.000
326.575;   13.875; -190.000;  -29.000
326.710;    3.050; -156.000;  -30.000
326.846;   -3.350;  146.000;  103.000
326.982;  -88.550; -530.000; -548.000
327.117;  -72.250; -481.000; -442.000
327.253;  -86.100; -745.000; -742.000
327.388; -126.925;-1137.000;-1153.000
327.524;  -33.725; -811.000; -578.000
327.659;  -39.800;  -58.000;  -22.000
327.795;  -14.700;   69.000;   45.000
327.931;  -86.075; -723.000; -499.000
328.066;  -19.325; -417.000; -276.000
328.202;    3.925;   12.000; -129.000
328.337;  106.625;  957.000;  713.000
328.473;   36.625;  -12.000;  -74.000
328.608;  -16.850; -256.000; -267.000
328.743;  -67.175; -799.000; -664.000
328.879;   31.550;  214.000;  114.000
329.014;  -41.025; -102.000; -122.000
329.150;  -78.125; -358.000; -483.000
329.285;  -80.650; -465.000; -466.000
329.421;  -45.925; -548.000; -246.000
329.556;  -21.300;  -36.000;   85.000
329.691;  -79.225; -633.000; -615.000
329.827;  -80.925; -626.000; -480.000
329.962;  -51.475;  131.000; -301.000
330.097;  -87.350; -673.000; -585.000
330.233;  -52.350; -410.000; -223.000
330.368; -119.425; -839.000; -628.000
330.503;   -9.975;    3.000;   98.000
330.638;    9.650;  -93.000; -125.000
330.774;  -31.575; -609.000; -530.000
330.909;  -37.400; -434.000; -244.000
331.044;  -88.925; -714.000; -708.000
331.179; -172.475;-1217.000;-1109.000
331.315;   26.750;   77.000;   20.000
331.450;   12.950;  157.000;  285.000
331.585;  -76.975; -805.000; -706.000
331.720;  -77.850; -510.000; -460.000
331.855;    0.775;  -35.000; -102.000
331.990;  201.625;   62.000;  138.000
332.126;  113.600; -110.000;   71.000
332.261;  -21.400; -379.000; -265.000
332.396;   -9.500; -135.000; -242.000
332.531; -108.125;-1074.000;-1031.000
332.666;   17.475; -519.000; -363.000
332.801; -103.000; -726.000; -807.000
332.936;   -8.525; -192.000; -122.000
333.071; -130.325; -870.000; -817.000
333.206;   27.275;  307.000;  379.000
333.341;   44.550;  344.000;  418.000
333.476;  -72.175; -627.000; -623.000
333.611;  -29.000; -251.000; -173.000
333.746;  -31.800; -381.000; -464.000
333.881; -117.375; -973.000; -935.000
334.016; -106.025; -936.000; -917.000
334.151; -109.400; -746.000; -702.000
334.286;   40.650;  152.000;  186.000
334.421;   -8.975; -125.000; -178.000
334.556;  -61.550; -611.000; -567.000
334.690;  -72.050; -631.000; -577.000
334.825;   88.125;  381.000;   83.000
334.960;  -36.950; -285.000; -413.000
335.095;   19.950;  135.000;  -91.000
335.230;  -84.175; -722.000; -738.000
335.365; -130.175;-1084.000; -990.000
335.499; -124.325;-1108.000;-1037.000
335.634;   40.275;    9.000;  534.000
335.769;  -80.750; -755.000; -720.000
335.904;  -36.200; -603.000; -561.000
336.038;  -41.650; -735.000; -657.000
336.173;  -92.375;-1206.000;-1194.000
336.308;   17.175; -116.000; -189.000
336.443;   28.850; -544.000; -634.000
336.577;  -49.225; -936.000; -787.000
336.712;  109.600;   -4.000;  -12.000
336.847;    2.800; -724.000; -607.000
336.981;  111.375; -272.000; -208.000
337.116;  342.700;  615.000;  501.000
337.250;  202.575; -434.000; -421.000
337.385;  189.100; -297.000; -208.000
337.520;   45.750; -632.000; -603.000
337.654;  -34.700; -215.000; -126.000
337.789; -131.300; -989.000; -933.000
337.923;  -22.150; -104.000; -205.000
338.058;  -67.800; -673.000; -738.000
338.192;  -22.850; -611.000; -488.000
338.327;   -1.725;  -18.000; -155.000
338.461;  -68.225; -299.000; -469.000
338.596;  -92.500; -780.000; -638.000
338.730; -101.925; -767.000; -803.000
338.865;   67.575;  -46.000; -140.000
338.999;  -62.925; -846.000; -702.000
339.134;  -23.225; -634.000; -536.000
339.268;   19.875; -741.000; -603.000
339.403;  312.000; -740.000; -775.000
339.537;   59.400; -894.000; -820.000
339.671; -112.975; -829.000; -813.000
339.806;  -67.550; -556.000; -512.000
339.940;   -2.100; -261.000; -235.000
340.074;  -87.800; -685.000; -510.000
340.209;  -57.425; -351.000; -230.000
340.343;  -96.125; -517.000; -573.000
340.477;  158.600;  998.000; 1036.000
340.612;  -61.125;-1033.000; -900.000
340.746;  109.200; -199.000; -243.000
340.880;  -50.550; -924.000; -785.000
341.014;  -17.600;  -45.000; -154.000
341.149; -118.250; -756.000; -718.000
341.283; -100.875; -839.000; -754.000
341.417;  -83.525;-1124.000; -938.000
341.551;  201.150; -768.000; -708.000
341.685;  -23.000; -633.000; -611.000
341.820;  -41.750; -562.000; -493.000
341.954;  -36.375; -218.000; -349.000
342.088; -137.500;-1102.000;-1019.000
342.222;   53.100;  565.000;  618.000
342.356;  -43.075; -395.000; -335.000
342.490;  -87.175; -880.000; -841.000
342.624;  -30.250; -339.000; -242.000
342.758;   26.950; -364.000; -312.000
342.892;  -62.900; -710.000; -585.000
343.026;  -34.075;  -58.000; -116.000
343.160;  -50.325; -426.000; -376.000
343.294;  -83.725; -474.000; -337.000
343.428;    3.850; -488.000; -448.000
343.562;   -0.350; -172.000;  -23.000
343.696;  -11.325; -385.000; -314.000
343.830;   -7.150; -362.000; -356.000
343.964;   20.375; -231.000; -168.000
344.098; 1104.250;  199.000;   70.000
344.232;  946.125; -266.000; -127.000
344.366;   95.875; -567.000; -453.000
344.500;   97.700; -665.000; -744.000
344.634;   47.575; -324.000; -164.000
344.768;   12.575; -531.000; -341.000
344.902;   13.275;  278.000;  256.000
345.035;  -65.900; -556.000; -496.000
345.169; -133.100; -933.000; -656.000
345.303;  -39.750; -308.000; -482.000
345.437;  -64.175; -826.000; -717.000
345.571;  -65.400; -675.000; -594.000
345.704;  -62.325; -309.000; -532.000
345.838;    2.475; -331.000; -284.000
345.972;  -24.225; -543.000; -495.000
346.106;  141.525; -179.000; -190.000
346.239;  450.075; -312.000; -243.000
346.373;   12.675; -343.000; -302.000
346.507; -136.625; -950.000; -962.000
346.640;  181.800;  -30.000;   13.000
346.774;  -30.300; -650.000; -797.000
346.908;   -7.125; -138.000;  -11.000
347.041;  -96.475; -646.000; -593.000
347.175;    8.975;  259.000;   27.000
347.309;  -49.400; -698.000; -628.000
347.442;  -88.500; -883.000; -732.000
347.576;  348.200;  670.000;  668.000
347.709;  241.700; -123.000;  -52.000
347.843;  -72.825; -933.000; -825.000
347.976;   50.725;  235.000;  294.000
348.110; -179.925;-1268.000;-1186.000
348.243; -102.875; -679.000; -772.000
348.377;   11.375;  -26.000;   60.000
348.510;   62.900;  403.000;  540.000
348.644;  -21.325;  -37.000; -159.000
348.777;   14.550;  180.000;  191.000
348.911;  -48.575; -142.000; -112.000
349.044;  198.600;  471.000;  448.000
349.178;  210.150;-1069.000;-1006.000
349.311;  126.750;  141.000;  255.000
349.444;  -19.550; -927.000; -813.000
349.578;    1.675; -347.000; -200.000
349.711;  -90.275; -959.000; -862.000
349.845;   29.800; -661.000; -591.000
349.978; -150.775;-1224.000;-1137.000
350.111;  -68.225; -546.000; -612.000
350.244;  -68.275; -596.000; -700.000
350.378;   19.325; -392.000; -393.000
350.511;  -61.475; -393.000; -426.000
350.644; -107.050; -808.000; -806.000
350.778;    8.325;  168.000;  104.000
350.911;    8.275;  134.000;  140.000
351.044;  -81.025; -685.000; -615.000
351.177;   -6.950; -321.000; -281.000
351.310;   -9.600;    3.000; -131.000
351.444;  -65.775; -888.000; -788.000
351.577;  145.250;  140.000;   90.000
351.710;  119.175;  593.000;  417.000
351.843;  -44.375; -165.000;  -77.000
351.976;   10.925;  149.000;  -79.000
352.109;  -84.250; -621.000; -612.000
352.242;    0.725; -464.000; -419.000
352.376;  -43.100; -580.000; -636.000
352.509;  245.325; -437.000; -356.000
352.642;   44.725; -654.000; -604.000
352.775;   86.400; -141.000;  -98.000
352.908; -120.000; -933.000; -904.000
353.041; -105.100; -814.000; -824.000
353.174;  -50.625; -551.000; -424.000
353.307;  -72.000; -753.000; -764.000
353.440;   84.250;  541.000;  453.000
353.573; -104.525; -957.000;-1008.000
353.706;  -40.350; -384.000; -558.000
353.839;  -10.850; -264.000; -220.000
353.971;  -88.025; -657.000; -512.000
354.104;  -78.475; -896.000; -835.000
354.237;  -17.375; -627.000; -662.000
354.370;  -70.000; -846.000; -879.000
354.503; -175.700;-1231.000;-1308.000
354.636;  -20.975; -529.000; -348.000
354.769; -124.650; -937.000; -860.000
354.902;   13.775; -230.000; -139.000
355.034;   -8.825; -164.000; -220.000
355.167;   -2.100; -262.000; -162.000
355.300; -104.575;-1061.000; -880.000
355.433;  846.875;  -71.000;  -14.000
355.565; 1285.950; -402.000; -384.000
355.698;  324.200; -356.000; -296.000
355.831;    4.225; -882.000; -801.000
355.964;  141.425; -285.000; -170.000
356.096;  -75.625; -856.000; -843.000
356.229;   37.050; -523.000; -530.000
356.362;  272.300; -373.000; -266.000
356.494;  517.300; -229.000; -162.000
356.627;  538.800;  269.000;  377.000
356.760;  618.000;  120.000;   53.000
356.892;  799.000; -286.000; -601.000
357.025;  769.725;  403.000;  389.000
357.157;  708.975; -167.000; -179.000
357.290;  534.375; -856.000; -713.000
357.423;  168.425; -667.000; -556.000
357.555;  137.600; -217.000; -228.000
357.688;  154.400; -483.000; -364.000
357.820;  514.425; -870.000; -877.000
357.953; 4130.250; -563.000; -589.000
358.085;  944.050; -632.000; -612.000
358.218; 1510.000;-1131.000; -932.000
358.350;  277.400;  -58.000;  312.000
358.483; -107.750;-1300.000;-1187.000
358.615;   17.425;-1182.000;-1078.000
358.747;  -25.150;-1187.000;-1058.000
358.880;   63.175; -810.000; -744.000
359.012;    3.025; -376.000; -202.000
359.145;  -26.625; -480.000; -511.000
359.277;   88.975; -962.000; -913.000
359.409; 3387.425;  536.000;  231.000
359.542;  909.600; -738.000; -688.000
359.674;   73.500;   46.000;   13.000
359.806;  -55.700; -565.000; -438.000
359.939;  -43.225; -617.000; -516.000
360.071;  -27.775; -583.000; -579.000
360.203;  -18.775; -411.000; -364.000
360.335;   55.500;  164.000;  -16.000
360.468;  219.075; -249.000; -307.000
360.600; 2633.125; -547.000; -454.000
360.732; 2364.000; -546.000; -423.000
360.864;  322.300;-1216.000;-1044.000
360.996;  378.350; -516.000; -554.000
361.129;   81.175; -389.000; -598.000
361.261;   33.550;  110.000; -113.000
361.393;  -24.600; -252.000; -214.000
361.525;   33.825;   94.000;  244.000
361.657;  -20.900; -821.000; -703.000
361.789;   20.625; -139.000; -155.000
361.921;  314.600; -642.000; -593.000
362.053;  316.125;  524.000;  541.000
362.185;   74.150;  288.000;   72.000
362.318;  -67.150; -709.000; -705.000
362.450;  181.075;  294.000;  444.000
362.582;  233.575; -913.000; -870.000
362.714;  -25.075; -353.000; -332.000
362.846;  -71.825; -606.000; -490.000
362.978; -126.325; -941.000; -811.000
363.109;   76.525; -161.000; -260.000
363.241;  549.975; -739.000; -749.000
363.373;  376.750; -649.000; -564.000
363.505;  544.800; -186.000;  -91.000
363.637;  140.600; -787.000; -601.000
363.769; -124.475;-1067.000;-1080.000
363.901;  -49.675; -596.000; -654.000
364.033; -111.475;-1103.000;-1062.000
364.165;   20.600; -283.000; -283.000
364.296;   66.800; -316.000; -177.000
364.428;   28.800;-1344.000;-1220.000
364.560;  -56.200; -679.000; -661.000
364.692;  -42.625; -738.000; -835.000
364.824;  368.775; -588.000; -456.000
364.955;  442.725; -402.000; -564.000
365.087;  672.525;-1097.000; -852.000
365.219;    9.600; -686.000; -816.000
365.351;  -65.450; -526.000; -572.000
365.482;   62.725;  300.000;  240.000
365.614;  -53.125; -402.000; -314.000
365.746;  -88.600; -729.000; -752.000
365.877;  -98.950; -706.000; -672.000
366.009;  212.200;  -35.000;  -62.000
366.141; -104.650;-1249.000;-1134.000
366.272;  -94.825; -803.000; -719.000
366.404; -120.225;-1005.000; -874.000
366.535;  -10.075; -139.000;  -12.000
366.667; -102.775; -644.000; -649.000
366.799;   48.125;  353.000;  203.000
366.930; -109.225; -862.000; -996.000
367.062;  104.025; -639.000; -613.000
367.193;  103.975; -872.000; -842.000
367.325;  -41.925; -580.000; -684.000
367.456;  108.200; -246.000;   31.000
367.588;  143.225; -371.000; -318.000
367.719;   19.525;  -44.000;  -45.000
367.851;    5.825; -222.000; -241.000
367.982;  -26.750; -875.000; -732.000
368.113;  141.225; -475.000; -358.000
368.245; -112.675; -960.000; -841.000
368.376;   -7.850; -254.000; -302.000
368.508;  -19.475; -188.000; -263.000
368.639; -133.150;-1166.000;-1034.000
368.770;   -6.425; -670.000; -589.000
368.902;  -51.225; -836.000; -926.000
369.033; -111.050; -906.000; -855.000
369.164;  -37.375; -720.000; -653.000
369.296; -103.675; -452.000; -601.000
369.427;   23.075; -209.000; -144.000
369.558;  -45.400; -593.000; -377.000
369.689;  -86.400; -721.000; -569.000
369.821; -124.150; -951.000; -845.000
369.952;   -1.350;   42.000; -108.000
370.083;  -40.600; -229.000; -108.000
370.214;  -69.500; -735.000; -650.000
370.345;    1.975;   65.000;   81.000
370.477;  -80.300; -810.000; -790.000
370.608;  293.900; -328.000; -264.000
370.739;  -22.025;-1233.000;-1292.000
370.870;   -4.275;-1102.000; -923.000
371.001;  142.950; -378.000; -467.000
371.132;  -62.750; -754.000; -735.000
371.263;   -4.200;  -42.000; -148.000
371.394; -125.950; -841.000; -748.000
371.525;   35.425;  345.000;  225.000
371.657;  -87.075; -808.000; -670.000
371.788;   82.750;  103.000;  199.000
371.919;  204.700; -384.000; -304.000
372.050; 4297.300;  -91.000; -156.000
372.181; 1302.450; -188.000; -294.000
372.311;  476.425;   42.000; -127.000
372.442;   68.325; -457.000; -451.000
372.573;  -10.775; -444.000; -340.000
372.704; -120.375;-1008.000; -980.000
372.835;  122.900; -228.000; -289.000
372.966;  -42.850; -646.000; -554.000
373.097;  -41.850; -575.000; -711.000
373.228;  -19.875; -717.000; -542.000
373.359;  201.950; -824.000; -536.000
373.490; 1156.650; -881.000; -727.000
373.620; 1434.900;-1001.000; -803.000
373.751; 2206.275; -332.000; -396.000
373.882;  983.600; -663.000; -733.000
374.013;   98.825; -449.000; -262.000
374.143;  -26.825; -581.000; -659.000
374.274;  -93.400; -987.000; -908.000
374.405;  225.225; -388.000; -276.000
374.536;  576.125; -526.000; -387.000
374.666; 1404.150; -759.000; -807.000
374.797;  308.825; -817.000; -868.000
374.928; 1096.675; -710.000; -560.000
375.058; 1099.550; -535.000; -500.000
375.189;  100.075;  -59.000;  -93.000
375.320;  -88.325; -928.000;-1034.000
375.450;  -20.475; -625.000; -616.000
375.581;  -46.650; -526.000; -436.000
375.712;  -22.275; -574.000; -250.000
375.842;  397.725; -438.000; -415.000
375.973;  287.275; -554.000; -513.000
376.103;  -16.525; -665.000; -648.000
376.234;  -74.900; -531.000; -552.000
376.364;  -13.800; -944.000; -867.000
376.495;  364.025;  925.000;  529.000
376.625;   29.225; -472.000; -485.000
376.756;  123.200; -709.000; -678.000
376.886;  -38.775;-1178.000;-1026.000
377.017;   33.800;-1048.000;-1061.000
377.147;  272.950; -786.000; -782.000
377.278;   64.950;  174.000;  228.000
377.408; -131.500; -801.000; -815.000
377.538;  -92.200; -707.000; -693.000
377.669;  -70.450; -537.000; -613.000
377.799;  -77.300; -645.000; -635.000
377.929;  -33.600; -610.000; -428.000
378.060; -124.750; -781.000; -847.000
378.190;  -55.700; -726.000; -531.000
378.320;  -51.825; -401.000; -406.000
378.451;   -4.775; -131.000;  -22.000
378.581;   19.100;  -67.000; -110.000
378.711;  176.700; 1035.000;  866.000
378.841;   10.475; -533.000; -675.000
378.972;  -43.900; -871.000; -751.000
379.102;   28.775; -652.000; -579.000
379.232;  -10.825; -126.000;  -73.000
379.362;  -93.600;-1001.000; -885.000
379.492;   37.125; -373.000; -424.000
379.623;  140.600;    0.000;  111.000
379.753;  -85.850;-1107.000; -974.000
379.883;  236.425;   59.000;  156.000
380.013;   46.200;-1081.000;-1017.000
380.143;  -81.325;-1097.000;-1056.000
380.273;  -84.000; -985.000; -861.000
380.403;   14.400; -344.000; -257.000
380.533;    1.200; -651.000; -664.000
380.663;   95.650;  173.000;  128.000
380.793;  -68.550;-1027.000;-1074.000
380.923;   -0.500; -103.000;  -34.000
381.053;  -86.150; -613.000; -623.000
381.183;  -25.425; -106.000; -248.000
381.313;   70.875; -656.000; -470.000
381.443;   72.850; -692.000; -473.000
381.573;  285.375; -402.000; -409.000
381.703;  394.150;-1249.000;-1095.000
381.833; -108.750;-1454.000;-1336.000
381.963;  137.825; -134.000;  -87.000
382.093; 1605.450; -925.000; -909.000
382.223;  510.100; -713.000; -602.000
382.353;   24.350; -801.000; -608.000
382.482;  515.775;-1091.000; -964.000
382.612;  912.050; -872.000; -644.000
382.742;  514.000; -695.000; -622.000
382.872;  355.550; -565.000; -551.000
383.002;   82.325;  347.000; -132.000
383.131;   -0.825; -226.000; -160.000
383.261;  -28.650; -706.000; -768.000
383.391;  273.375; -552.000; -377.000
383.521; 2595.850;  451.000;  263.000
383.650;  550.150; -947.000; -904.000
383.780;   -9.450; -783.000; -656.000
383.910;  110.050;  880.000;  802.000
384.039;   47.025; -794.000; -656.000
384.169;  292.525;-1205.000;-1017.000
384.299;    9.600; -650.000; -662.000
384.428;  -80.550; -764.000; -680.000
384.558;  -28.625; -308.000; -275.000
384.687;  -28.000; -414.000; -334.000
384.817;   37.500;   75.000;   -2.000
384.947;   51.700; -234.000; -141.000
385.076;  348.700;  982.000;  912.000
385.206;  133.625;  369.000;  480.000
385.335;  -21.525; -549.000; -417.000
385.465;  -68.900; -655.000; -663.000
385.594;  192.700;  -53.000;  -44.000
385.724;  579.975; -868.000; -838.000
385.853;  179.275; -296.000; -270.000
385.982; 1714.775; -743.000; -787.000
386.112; 2632.400;-1052.000; -871.000
386.241;  209.200; -307.000; -312.000
386.371;   45.825; -174.000;  -87.000
386.500;   12.300; -825.000; -789.000
386.629;   34.475; -874.000; -817.000
386.759;   88.000;  -43.000;   68.000
386.888;   39.475; -170.000; -250.000
387.017;  -48.825; -648.000; -620.000
387.147;  -50.000; -771.000; -798.000
387.276;   28.925; -410.000; -397.000
387.405;   42.700; -398.000; -342.000
387.535;  -35.100; -452.000; -361.000
387.664;  -59.900; -692.000; -620.000
387.793;   90.475; -198.000; -113.000
387.922;  664.450;  255.000;  200.000
388.052;   58.875; -576.000; -423.000
388.181;   57.425; -342.000; -472.000
388.310;   80.550; -889.000; -710.000
388.439;   -4.975; -749.000; -742.000
388.568;  255.000;  365.000;  244.000
388.697; 1332.225; -756.000; -653.000
388.826;  285.525; -768.000; -666.000
388.956;   97.725; -285.000; -307.000
389.085;  -24.475; -347.000; -287.000
389.214; -105.250; -842.000; -872.000
389.343;  -61.150; -645.000; -413.000
389.472;  366.375;  126.000;  149.000
389.601;  501.375;   91.000;    0.000
389.730;   39.725; -568.000; -687.000
389.859;   89.800;  226.000;   46.000
389.988;  249.900; -423.000; -408.000
390.117;  177.700; -168.000; -146.000
390.246;   11.075; -331.000; -320.000
390.375;  171.100; -673.000; -626.000
390.504;  -64.975; -703.000; -621.000
390.633;  -95.825; -672.000; -726.000
390.761;  -41.400; -732.000; -645.000
390.890;   50.675;   -4.000; -130.000
391.019;   -5.600; -421.000; -441.000
391.148; -110.300; -826.000; -855.000
391.277;  -65.400; -576.000; -493.000
391.406;  -44.075; -821.000; -805.000
391.534;   35.575;  574.000; -301.000
391.663;  -54.850; -583.000; -645.000
391.792;  -74.625; -673.000; -701.000
391.921;  150.250;   -3.000;   15.000
392.050;  276.975; -287.000; -228.000
392.178;    6.275;-1206.000;-1061.000
392.307;  225.850; -758.000; -712.000
392.436;  106.825; -427.000; -641.000
392.564;   31.275;  166.000;   -6.000
392.693;  -88.275; -860.000; -682.000
392.822;  293.875; -529.000; -534.000
392.950;  149.825; -880.000; -714.000
393.079;  415.475; -188.000; -328.000
393.208;   48.650; -488.000; -511.000
393.336;   -6.975; -170.000; -145.000
393.465;  -53.750; -317.000; -199.000
393.593;    5.700;   62.000;   79.000
393.722; -157.250;-1121.000; -916.000
393.850;  -29.075; -188.000;  -61.000
393.979; -152.650; -926.000; -805.000
394.107;  -57.225; -517.000; -537.000
394.236;  -11.725; -570.000; -507.000
394.364;  206.525;  383.000;  206.000
394.493;  322.500; -911.000; -767.000
394.621;  -35.700; -955.000; -916.000
394.750;  598.525; -873.000; -923.000
394.878; 2575.675; -247.000; -149.000
395.007; 3475.850; -721.000; -807.000
395.135;  240.400; -790.000; -721.000
395.263;  -82.850;-1038.000;-1040.000
395.392;    9.750;  -25.000; -107.000
395.520; -137.675; -818.000; -679.000
395.648;  -64.400; -865.000; -915.000
395.777;    3.250; -366.000; -405.000
395.905;  -34.950; -449.000; -564.000
396.033;   25.825;  217.000;  172.000
396.162;  529.150; -399.000; -453.000
396.290;  485.225;  -17.000;   -2.000
396.418;  143.350; -555.000; -514.000
396.546;  -65.775; -571.000; -466.000
396.674; -103.025; -850.000; -878.000
396.803;   11.500;  -72.000;  -23.000
396.931;  126.025; -179.000; -199.000
397.059;  120.850;-1026.000; -989.000
397.187;  -96.175;-1026.000; -975.000
397.315; -135.525; -884.000; -649.000
397.443;  -84.825; -592.000; -443.000
397.572;  -88.750; -578.000; -424.000
397.700;   17.625; -607.000; -614.000
397.828;   34.100;  120.000;  -90.000
397.956;  -46.125; -508.000; -478.000
398.084;  -82.775; -767.000; -626.000
398.212;   45.000;  137.000;  124.000
398.340;   19.975;  -56.000;  159.000
398.468;   52.400; -390.000; -169.000
398.596; -121.650; -993.000; -953.000
398.724; -113.675; -762.000; -767.000
398.852; -162.675;-1024.000; -976.000
398.980;  -55.700; -560.000; -560.000
399.108;  -27.475; -982.000; -735.000
399.236;   46.375;   13.000;    8.000
399.363;   14.275;  222.000;  196.000
399.491;  -59.250; -404.000; -398.000
399.619; -118.050; -829.000; -800.000
399.747;  -99.850; -859.000; -771.000
399.875;   94.075;  220.000;  234.000
400.003;  -33.725; -359.000; -284.000
400.130;  -98.100; -421.000; -341.000
400.258;  -29.025;  -83.000;   38.000
400.386;  -65.425; -352.000; -168.000
400.514;  -38.850; -526.000; -587.000
400.641;  -65.325; -928.000; -802.000
400.769; -133.125; -979.000; -888.000
400.897;  -94.550; -838.000; -793.000
401.025;  -10.850; -166.000; -152.000
401.152;   -3.250;  220.000;   38.000
401.280;  -90.675; -430.000; -429.000
401.408; -119.150; -712.000; -576.000
401.535; -100.300; -735.000; -758.000
401.663; -192.175;-1134.000;-1054.000
401.790;  -73.200; -514.000; -525.000
401.918;   44.850;  436.000;  405.000
402.046;  -17.200;  134.000;  122.000
402.173;  -34.575;  -18.000;    7.000
402.301;  -70.875; -519.000; -397.000
402.428;   34.025;  528.000;  383.000
402.556; -132.175;-1188.000; -913.000
402.683;  -20.175;  -20.000;   -1.000
402.811;  -20.275;  -37.000; -206.000
402.938;   -1.600;   20.000;   27.000
403.066;  274.600; -574.000; -558.000
403.193;  417.400;  299.000;  239.000
403.321;  345.500; -396.000; -574.000
403.448;  399.150;   83.000;   27.000
403.575;  174.450;  -90.000;  -46.000
403.703;  -88.750; -732.000; -557.000
403.830;  -55.675; -531.000; -496.000
403.957; -143.175;-1117.000;-1023.000
404.085;   18.175;  -61.000; -172.000
404.212;  110.350;  -50.000;   63.000
404.339;  254.650; -566.000; -306.000
404.467; 4977.650; -612.000; -524.000
404.594; 3548.700; -287.000; -227.000
404.721;  972.550; -869.000; -764.000
404.848;   87.725; -113.000; -202.000
404.976; -105.525; -856.000; -783.000
405.103;  -11.925;  -14.000;  -82.000
405.230;    4.075;  190.000;  226.000
405.357;   21.350;  117.000;   44.000
405.484;  221.600;  -49.000;    5.000
405.612;   44.100; -548.000; -563.000
405.739;  -61.975; -488.000; -243.000
405.866;   89.725;  669.000;  385.000
405.993;  -46.675; -398.000; -102.000
406.120; -137.150; -801.000; -887.000
406.247;  -59.450; -323.000; -342.000
406.374;  568.950;  540.000;  629.000
406.501;  155.950; -632.000; -702.000
406.628;  -72.325; -621.000; -589.000
406.755;  -92.325; -803.000; -620.000
406.882;  -29.725; -228.000; -277.000
407.009; -101.325; -719.000; -628.000
407.136;   84.025; -480.000; -401.000
407.263;  217.425; -939.000; -829.000
407.390;  -52.250; -692.000; -614.000
407.517; -154.950;-1139.000;-1187.000
407.644;  -53.225; -332.000; -256.000
407.771;  -71.525; -249.000; -287.000
407.898;   -0.825;  168.000;  328.000
408.025;  -52.300; -421.000; -313.000
408.151;    8.675;   82.000;  153.000
408.278;  -66.075; -267.000; -216.000
408.405; -109.225; -931.000; -899.000
408.532;  -76.675; -549.000; -542.000
408.659; -111.875; -677.000; -648.000
408.785; -206.625;-1298.000;-1170.000
408.912;  -59.825; -412.000; -296.000
409.039; -108.425; -610.000; -686.000
409.166; -100.475; -591.000; -555.000
409.292; -107.400; -571.000; -534.000
409.419; -112.675; -665.000; -649.000
409.546;  -85.575; -431.000; -192.000
409.672;  -99.925; -713.000; -545.000
409.799;  -15.650;  -36.000;   34.000
409.926;  -37.750; -180.000; -179.000
410.052; -172.850;-1127.000;-1091.000
410.179;  -42.125; -368.000; -392.000
410.305;  -88.125; -375.000; -493.000
410.432;  -53.100; -220.000; -333.000
410.558;  -89.475; -305.000; -380.000
410.685; -115.375; -688.000; -431.000
410.812;  -96.775; -409.000; -588.000
410.938; -132.100; -964.000; -808.000
411.065; -108.250; -671.000; -645.000
411.191;  -11.975; -189.000; -174.000
411.317; -109.100; -823.000; -742.000
411.444;  -63.700; -317.000; -246.000
411.570;  -76.600; -339.000; -294.000
411.697; -129.150; -758.000; -752.000
411.823; -176.250; -989.000; -999.000
411.949;  -25.850;  -56.000;   17.000
412.076; -111.925; -539.000; -519.000
412.202; -113.050; -758.000; -757.000
412.329; -137.100; -798.000; -752.000
412.455; -110.825; -821.000; -657.000
412.581;  -18.025;  -15.000;  172.000
412.707;  -47.225; -540.000; -457.000
412.834;   25.925;  156.000;  219.000
412.960;  -67.675; -785.000; -784.000
413.086; -107.775; -743.000; -701.000
413.212;  176.600;  604.000;  578.000
413.339;  -59.250; -685.000; -701.000
413.465;   29.900; -364.000; -310.000
413.591;  -89.525; -757.000; -474.000
413.717;  -49.425; -358.000; -366.000
413.843; -144.725; -839.000; -861.000
413.969;  -74.050;  -47.000; -292.000
414.096; -106.450; -679.000; -679.000
414.222;    9.600;  -33.000;   85.000
414.348;  -19.375; -652.000; -385.000
414.474;  127.450;   38.000;  -52.000
414.600;  -23.750; -126.000; -144.000
414.726;  -10.000;  -96.000;  -55.000
414.852;  -53.875; -365.000; -342.000
414.978;   37.650;  104.000;  -18.000
415.104;   49.600;   38.000;   80.000
415.230;   16.150; -329.000; -330.000
415.356;   34.225; -409.000; -514.000
415.482;  179.775;   13.000;  -35.000
415.608;  244.250; -247.000; -323.000
415.734;  878.000;   67.000;   38.000
415.860;18417.250; -875.000; -767.000
415.986;13130.175; -685.000; -607.000
416.111; 1105.775; -798.000; -652.000
416.237;  218.025; -424.000; -571.000
416.363;  979.725; -765.000; -733.000
416.489; 3591.125; -324.000; -251.000
416.615;  347.475; -707.000; -742.000
416.741;  -34.825; -677.000; -784.000
416.866; -106.375; -673.000; -736.000
416.992; -117.275; -801.000; -818.000
417.118;  -18.575;  -41.000;  -80.000
417.244;  -63.000; -798.000; -531.000
417.369;  -80.800; -801.000; -612.000
417.495;    0.975; -325.000; -254.000
417.621;  -88.225;-1015.000; -803.000
417.746;   -9.600; -579.000; -572.000
417.872;   38.750; -254.000; -144.000
417.998;   40.225; -515.000; -530.000
418.123;  913.675;-1073.000; -845.000
418.249; 4723.075; -512.000; -601.000
418.374;  643.400; -916.000; -824.000
418.500;   93.125; -383.000; -482.000
418.626;   93.525;   70.000;  -59.000
418.751;  110.775; -549.000; -448.000
418.877;  165.675; -637.000; -643.000
419.002; 1593.725; -688.000; -560.000
419.128;10971.700; -930.000; -721.000
419.253; 2625.850; -967.000; -837.000
419.379;  336.250; -391.000; -338.000
419.504;  360.700;  325.000;  415.000
419.629;  432.250; -393.000; -212.000
419.755; 3034.600; -317.000; -254.000
419.880;17644.850;  -98.000;   67.000
420.006; 9973.475; -280.000; -221.000
420.131;26113.925; -662.000; -775.000
420.256; 3698.200; -315.000; -316.000
420.382;  487.525; -665.000; -687.000
420.507;   59.750; -649.000; -778.000
420.632;  188.775; -337.000; -339.000
420.758;  345.750; -251.000; -425.000
420.883;  -69.775; -876.000; -672.000
421.008; -105.825; -775.000; -619.000
421.133;  -81.125; -509.000; -467.000
421.259;  -54.400; -325.000; -259.000
421.384; -118.800; -834.000; -693.000
421.509;  -18.125;-1052.000; -862.000
421.634; 1630.550; -936.000; -820.000
421.759;  688.300; -359.000; -327.000
421.885;  -26.525; -717.000; -656.000
422.010;  -77.575; -673.000; -542.000
422.135; -138.875; -695.000; -727.000
422.260;   48.650;  340.000;  280.000
422.385;  -36.200;   12.000;  -98.000
422.510;   26.350;  151.000;  -26.000
422.635;   16.400;  -87.000;  -43.000
422.760;   99.975; -766.000; -791.000
422.885;   48.225;  -57.000;  -80.000
423.010;  -36.400; -112.000; -169.000
423.135;  -98.600; -481.000; -561.000
423.260;  -10.475; -150.000; -245.000
423.385;   88.425;  476.000;  222.000
423.510;   37.425;   71.000;  -22.000
423.635;  102.425;  133.000;   45.000
423.760;   58.050;  383.000;  328.000
423.885;   56.125;  336.000;  391.000
424.010;   32.475;  -68.000;  -13.000
424.135;  -29.375;    5.000;  -33.000
424.259;  -74.600; -654.000; -457.000
424.384;  -51.500; -279.000; -272.000
424.509;  -20.900; -260.000; -186.000
424.634;  -88.250; -761.000; -623.000
424.759;  -26.925; -688.000; -544.000
424.883;  -18.775; -506.000; -527.000
425.008;  155.075; -502.000; -410.000
425.133; 1795.125; -679.000; -653.000
425.258;  827.575; -517.000; -381.000
425.382; 1185.600; -867.000; -774.000
425.507; 3040.275; -487.000; -543.000
425.632;  451.925; -802.000; -663.000
425.756;  397.500; -256.000; -146.000
425.881; 5374.125; -831.000; -857.000
426.006;14080.150; -604.000; -355.000
426.130; 2264.375; -696.000; -508.000
426.255;  304.875; -611.000; -491.000
426.379;  146.450; -189.000; -577.000
426.504;  343.525;  660.000;  544.000
426.629; 3721.800; -519.000; -466.000
426.753; 2546.450;   64.000;  -46.000
426.878;  306.175; -252.000; -288.000
427.002;  133.975; -651.000; -668.000
427.127; 1456.725;  -35.000; -158.000
427.251; 9994.875;  372.000;  401.000
427.375; 2837.050; -191.000; -173.000
427.500; 2633.875; -616.000; -610.000
427.624;  887.325; -234.000; -400.000
427.749;  123.875; -216.000; -225.000
427.873;  -29.300; -499.000; -412.000
427.997;  -32.300; -222.000; -230.000
428.122;   78.375;  795.000;  703.000
428.246;   83.100;  433.000;  434.000
428.371; -116.800; -869.000; -773.000
428.495; -105.100; -624.000; -646.000
428.619;  -27.250; -186.000; -117.000
428.743;   31.725;   65.000;  132.000
428.868;   30.225; -732.000; -643.000
428.992; 1669.400; -219.000; -326.000
429.116;  675.650; -329.000; -357.000
429.240;  345.700;  419.000;  426.000
429.365;  -25.875; -454.000; -574.000
429.489;  -29.150; -638.000; -647.000
429.613;   17.500; -236.000; -177.000
429.737;   38.275; -563.000; -432.000
429.861;  238.775; -247.000; -133.000
429.985; 4986.650; -425.000; -305.000
430.109; 5380.225; -770.000; -908.000
430.234;  603.700;   76.000;  -50.000
430.358;   55.000; -250.000; -160.000
430.482;  -64.025; -672.000; -564.000
430.606;  -64.025; -655.000; -375.000
430.730;   41.725; -437.000; -388.000
430.854;  194.450; -909.000; -835.000
430.978;  -50.150; -795.000; -764.000
431.102;  -72.350; -499.000; -422.000
431.226; -101.525; -874.000; -815.000
431.350;   39.750;  345.000;  422.000
431.474;  -57.775; -661.000; -373.000
431.597; -143.075;-1060.000; -848.000
431.721;  -78.300; -276.000; -267.000
431.845; -127.425; -704.000; -472.000
431.969;  -80.625; -304.000; -349.000
432.093;  -84.375; -395.000; -317.000
432.217;  -13.900;   32.000;   82.000
432.341;  -89.100; -523.000; -518.000
432.464;   15.600;   96.000;   40.000
432.588;  284.425; -401.000; -329.000
432.712;  128.750;  -52.000;  -52.000
432.836;   30.450;  213.000;  263.000
432.959;  -27.475; -372.000; -311.000
433.083;   78.050;   11.000;    2.000
433.207;  339.500;  285.000;  930.000
433.330; 4407.325; -391.000; -200.000
433.454; 5329.925; -654.000; -638.000
433.578; 3111.125;  583.000;  278.000
433.701;  589.175; -623.000; -675.000
433.825;  196.125; -292.000; -299.000
433.949;  269.875;   28.000;  -72.000
434.072;  104.500; -410.000; -323.000
434.196;  -14.675; -309.000; -117.000
434.319; 3753.500;25482.000;25124.000
434.443;  737.600; -656.000; -603.000
434.566; 2348.300;  281.000;   62.000
434.690;  379.350; -637.000; -383.000
434.813;   55.675; -251.000; -173.000
434.937;  -86.825; -569.000; -696.000
435.060;   -9.925; -423.000; -332.000
435.184;  490.525; -492.000; -217.000
435.307;  268.725;  159.000;  102.000
435.431;    7.450;  -40.000;   24.000
435.554;  -70.700; -399.000; -240.000
435.677;  -73.050; -350.000; -258.000
435.801;  -37.200;  -25.000;   49.000
435.924;   -2.650;    1.000;  -67.000
436.048;  -89.400;-1019.000; -732.000
436.171;  -57.125; -240.000;  -66.000
436.294;  -39.175; -248.000; -229.000
436.417;   60.600; -963.000; -849.000
436.541;  -84.000; -814.000; -840.000
436.664;  -53.600; -242.000; -316.000
436.787;  -36.925;   13.000;  113.000
436.910; -110.250; -792.000; -422.000
437.034;   15.275;  142.000;  143.000
437.157;   87.950;  -11.000;    0.000
437.280;  -30.875; -392.000; -292.000
437.403;  -44.100; -982.000; -869.000
437.526;  930.275; -903.000; -865.000
437.649; 3240.225; -505.000; -332.000
437.772;  500.225; -692.000; -540.000
437.896;  157.700;  700.000;  544.000
438.019;  -90.750; -758.000; -503.000
438.142;  -73.775; -596.000; -506.000
438.265;   36.775; -639.000; -670.000
438.388;  784.825; -520.000; -410.000
438.511;  165.150; -597.000; -394.000
438.634;  -40.000; -247.000; -125.000
438.757; -140.550; -693.000; -619.000
438.880;  -11.925;  -34.000;  -57.000
439.003;  -73.775; -417.000; -437.000
439.126;  -76.900; -287.000; -167.000
439.248;  -67.825;  -98.000; -139.000
439.371;  -47.425;    9.000;  -53.000
439.494;   26.725;  510.000;  439.000
439.617;  -51.900;   65.000;  -88.000
439.740; -179.325; -968.000; -816.000
439.863; -138.075; -755.000; -595.000
439.986; -121.725; -476.000; -431.000
440.108;  -49.325; -161.000; -112.000
440.231; -164.675; -950.000; -836.000
440.354;  -35.100;  -64.000; -150.000
440.477;   65.125; -566.000; -542.000
440.599;   23.425; -200.000; -225.000
440.722; -112.075; -709.000; -586.000
440.845;   65.350;  751.000;  928.000
440.968; -102.125; -415.000; -311.000
441.090;  -56.025; -199.000;  -33.000
441.213; -170.775;-1021.000; -825.000
441.336;  -56.575; -159.000;   -5.000
441.458;  -58.675; -549.000; -396.000
441.581;  -68.075; -628.000; -629.000
441.703;  -74.575; -152.000;   13.000
441.826; -109.350; -557.000; -400.000
441.948;  -50.150;   56.000;   51.000
442.071;   37.000;  555.000;  424.000
442.193; -117.325; -531.000; -485.000
442.316;   31.025;  152.000;   97.000
442.438;   42.650; -233.000;  -10.000
442.561;   79.800;  272.000;  262.000
442.683;  791.125; -809.000; -522.000
442.806; 1608.350;   -8.000;   74.000
442.928;   77.900; -859.000; -604.000
443.051;  -50.275; -577.000; -373.000
443.173;  -90.650; -341.000; -339.000
443.295;  -80.800; -263.000; -371.000
443.418;  -77.425; -321.000;  -29.000
443.540;   -3.375; -106.000;   -4.000
443.662; -123.500; -563.000; -465.000
443.785;  -13.300;  335.000;  199.000
443.907; -107.025; -362.000; -208.000
444.029; -121.150; -767.000; -494.000
444.152; -145.250; -644.000; -554.000
444.274;  -23.250;  -18.000;  -24.000
444.396; -116.900; -461.000; -221.000
444.518; -144.575; -691.000; -454.000
444.640; -101.325; -268.000; -111.000
444.763;  -30.475;  388.000;  249.000
444.885; -125.325; -432.000; -392.000
445.007;  -33.775;   35.000;   86.000
445.129; -131.300; -610.000; -515.000
445.251;  -91.525; -372.000; -439.000
445.373; -148.700; -537.000; -386.000
445.495;   22.750;  242.000;  350.000
445.617;   52.100;  853.000;  753.000
445.739;  -58.200; -215.000;  -97.000
445.861;  -13.900; -245.000; -112.000
445.984;  -36.050; -267.000; -101.000
446.105;  279.100; -418.000; -251.000
446.227;  798.175; -176.000;  -19.000
446.349;   14.350; -358.000; -249.000
446.471;  -91.425; -615.000; -448.000
446.593;  -63.900; -316.000;   19.000
446.715;   10.950;  -67.000;   41.000
446.837;   61.550;  697.000;  832.000
446.959;  -99.525; -457.000; -478.000
447.081; -137.350; -628.000; -518.000
447.203;   44.475;  862.000;  834.000
447.325;  -83.375; -270.000;   42.000
447.446;  -12.175;  286.000;  530.000
447.568; -160.350; -921.000; -803.000
447.690;  -72.000; -236.000; -245.000
447.812; -136.675; -798.000; -519.000
447.933;  -24.050;  155.000;  127.000
448.055;  -74.325; -306.000; -261.000
448.177;  198.200;   31.000;   79.000
448.299;  124.875; -935.000; -727.000
448.420;   30.500;  -25.000;  159.000
448.542;  -38.250;   -3.000;   33.000
448.664;  -18.050;  109.000;  322.000
448.785;  -43.650;  265.000;   83.000
448.907;  -86.425; -614.000; -353.000
449.028;  -25.750; -771.000; -471.000
449.150;   55.125;  492.000;  589.000
449.272; -180.875;-1044.000; -913.000
449.393;   42.200;  612.000;  694.000
449.515; -136.175; -634.000; -581.000
449.636;  -63.475; -264.000; -155.000
449.758;   86.800;  763.000;  622.000
449.879;  -91.625; -498.000; -396.000
450.001;  -70.700; -149.000;  -49.000
450.122;  -33.625;  -95.000;  162.000
450.244;  -32.925;   37.000;  364.000
450.365; -102.925; -495.000; -301.000
450.486;  -34.100;   80.000;  268.000
450.608;  -35.650;  393.000;  326.000
450.729;   54.125;  578.000;  645.000
450.850;   -3.275; -574.000; -466.000
450.972;  605.625; -552.000; -389.000
451.093; 4088.675;  190.000;  588.000
451.214; 1750.450; -516.000; -337.000
451.336;  332.675;  773.000;  579.000
451.457;   48.900;  264.000;  393.000
451.578;  -46.275; -118.000;  -74.000
451.699; -138.550; -546.000; -540.000
451.821;  -51.575; -284.000;  -50.000
451.942;   -5.950;  278.000;  285.000
452.063;   19.200;  228.000;  419.000
452.184;  483.850;  -54.000;  -49.000
452.305;  951.450;  103.000;  170.000
452.427;   93.350; -549.000; -301.000
452.548;  -28.350;   23.000;   79.000
452.669;  -27.575; -257.000;  -89.000
452.790;  -42.725;    3.000;  -18.000
452.911;   -0.800;  195.000;  259.000
453.032;  -56.925; -289.000;  -60.000
453.153;  -35.275;  -29.000;   81.000
453.274;   68.475;  737.000;  868.000
453.395;  -55.300;  -51.000;  175.000
453.516;  131.475; 1317.000; 1388.000
453.637;  -64.925; -205.000; -150.000
453.758;  -47.650;   15.000;   69.000
453.879; -117.975; -462.000; -250.000
454.000;   77.300; 1086.000;  948.000
454.121; -109.375; -554.000; -326.000
454.242; -118.825; -599.000; -383.000
454.362;  -62.925;  -99.000;  114.000
454.483;  -31.025; -309.000; -229.000
454.604;   62.975;  512.000;  580.000
454.725; -125.800; -627.000; -555.000
454.846; -141.575; -474.000; -406.000
454.967;  -26.400;  230.000;  539.000
455.087;  -51.250;  179.000;  153.000
455.208;   11.950;  554.000;  856.000
455.329;  -71.625;  -22.000;   82.000
455.450;   14.225;  473.000;  633.000
455.570; -103.800; -234.000; -211.000
455.691;  -54.900;  201.000;  407.000
455.812; -111.650; -270.000;  -92.000
455.932;  -66.475;  107.000;  -97.000
456.053;  -86.325;   36.000;   24.000
456.173; -111.400; -433.000; -355.000
456.294; -140.000; -476.000; -303.000
456.415;  -80.850;  -73.000;   70.000
456.535;  -35.100;  297.000;  273.000
456.656;  -37.375;  132.000;  240.000
456.776;  -71.925;    3.000;  298.000
456.897;  -14.700;  308.000;  513.000
457.017;  -87.725; -153.000;   -3.000
457.138; -105.900; -402.000; -249.000
457.258;  -28.250;  263.000;  224.000
457.379;   -6.575;  509.000;  521.000
457.499;  -39.050;  443.000;  432.000
457.620; -124.875; -407.000; -231.000
457.740; -108.350; -132.000;  -11.000
457.860;  -59.575;   87.000;   44.000
457.981;  -46.725;  132.000;  124.000
458.101;  -73.775;  -89.000;   40.000
458.221;  -20.850;  336.000;  402.000
458.342;  -57.375;   -4.000;  -37.000
458.462;    5.475;  617.000;  352.000
458.582;  -44.775; -302.000; -294.000
458.703;  -21.825;  303.000;  154.000
458.823;  -32.800;   22.000;  163.000
458.943;   13.575;  341.000;  467.000
459.063;   -8.675; 1124.000;  192.000
459.183;  -21.300;  328.000;  313.000
459.304;   10.025;  315.000;  517.000
459.424;  -87.875; -246.000;  -89.000
459.544;  293.450;  388.000;  764.000
459.664;  690.850;  499.000;  506.000
459.784;  275.325; 1004.000; 1175.000
459.904;   50.200;  867.000;  744.000
460.024;   68.950;  867.000;  684.000
460.144;   15.650;  449.000;  554.000
460.264;  -15.125;  515.000;  327.000
460.385; -110.325; -145.000; -119.000
460.505;   44.925;  905.000;  858.000
460.625;  -99.400;  -17.000;  -68.000
460.745;  -23.725;  396.000;  541.000
460.864;  -61.275;  153.000;  469.000
460.984;   14.900;  499.000;  573.000
461.104;  149.300; 1656.000; 1775.000
461.224;   18.975;  657.000;  650.000
461.344;  -31.550;  431.000;  360.000
461.464;  -44.525;  258.000;  513.000
461.584;   -7.000;  283.000;  466.000
461.704;  -37.850;   58.000;  108.000
461.824;  -54.650;  238.000;  259.000
461.943;  -43.600;  191.000;  130.000
462.063;  -67.750;    2.000;  324.000
462.183;   33.050;  639.000;  717.000
462.303;  116.025; 1678.000; 1230.000
462.422;   26.650;  781.000;  840.000
462.542;  -48.900;  271.000;  391.000
462.662;   36.450;  353.000;  380.000
462.782;  213.125;  833.000;  572.000
462.901;  424.025;  545.000;  717.000
463.021;  269.325; 1702.000; 1638.000
463.141;  -13.575;  337.000;  770.000
463.260;  -18.325;  614.000;  474.000
463.380;   23.150;  902.000;  884.000
463.499;  -44.150;  342.000;  332.000
463.619;  -28.600;  581.000;  559.000
463.738;  121.625; 1644.000;  903.000
463.858;   24.350;  657.000;  811.000
463.978;  -33.400;  542.000;  396.000
464.097;   53.125;  921.000; 1114.000
464.217;  101.575; 1196.000; 1143.000
464.336;  102.500; 1068.000; 1130.000
464.455;  -33.725;  328.000;  659.000
464.575;   57.350;  597.000;  602.000
464.694;  190.150; 1204.000; 1179.000
464.814;  130.800; 1190.000; 1138.000
464.933;   62.175; 1095.000; 1027.000
465.052;  113.850; 1412.000; 1054.000
465.172;   78.150;  922.000;  799.000
465.291;  149.675; 1376.000; 1320.000
465.410;    9.625;  462.000;  735.000
465.530;   93.075; 1355.000; 1310.000
465.649;   74.275; 1209.000; 1273.000
465.768;  146.650; 1673.000; 1508.000
465.888;   47.800;  941.000; 1174.000
466.007;   92.225; 1335.000; 1440.000
466.126;   -5.125;  721.000;  641.000
466.245;   47.825; 1176.000; 1187.000
466.364;   22.375;  950.000; 1060.000
466.484;   63.050; 1024.000; 1213.000
466.603;   31.750; 1101.000; 1222.000
466.722;  117.850; 1490.000; 1769.000
466.841;   74.275; 1151.000; 1401.000
466.960;   50.500; 1069.000;  972.000
467.079;  132.650; 1971.000; 1786.000
467.198;   55.625; 1238.000; 1181.000
467.317;   86.000; 1768.000; 1162.000
467.436;   84.875; 1709.000; 1261.000
467.555;  130.225; 1796.000; 1746.000
467.674;   73.850; 1227.000; 1329.000
467.793;   47.700; 1376.000; 1374.000
467.912;  100.200; 1658.000; 1539.000
468.031;  137.175; 2038.000; 1930.000
468.150;  153.825; 1842.000; 1837.000
468.269;  209.200; 2313.000; 2090.000
468.388;  181.625; 2168.000; 2339.000
468.507;  246.525; 2884.000; 2903.000
468.626;  249.750; 2555.000; 2541.000
468.744;  131.175; 2018.000; 2174.000
468.863;  208.975; 2312.000; 2523.000
468.982;  103.950; 1503.000; 1555.000
469.101;  233.625; 2788.000; 2692.000
469.220;  135.725; 2333.000; 2176.000
469.338;  243.125; 2935.000; 3051.000
469.457;  191.325; 2719.000; 2545.000
469.576;  341.800; 3953.000; 3784.000
469.695;  230.000; 2877.000; 3066.000
469.813;  432.300; 4148.000; 4192.000
469.932;  409.900; 4255.000; 4485.000
470.051;  398.075; 4075.000; 4161.000
470.169;  808.250; 4470.000; 4338.000
470.288; 1316.300; 4700.000; 4809.000
470.406;  801.375; 5059.000; 5194.000
470.525;  640.575; 6101.000; 5787.000
470.644;  633.975; 6847.000; 6794.000
470.762;  822.725; 8397.000; 7873.000
470.881;  905.800; 8651.000; 8464.000
470.999; 1014.250; 9685.000; 9151.000
471.118; 1122.450;11174.000;10711.000

