
Integration time [ms]: 100.000
Averaging Nr. [scans]: 40
Smoothing Nr. [pixels]: 0
Data measured with spectrometer [name]: 2101012U2
Wave   ;Sample   ;Dark     ;Reference
[nm]   ;[counts] ;[counts] ;[counts] 

197.733;   48.525;  516.000;  404.000
197.879;  -72.800; -610.000; -634.000
198.025;  -44.425; -475.000; -420.000
198.171;  -67.375; -602.000; -612.000
198.317;  -22.400; -401.000; -316.000
198.463;  -57.800; -655.000; -404.000
198.609;   18.400;  181.000; -137.000
198.755;  -84.825; -644.000; -410.000
198.901;  -70.000; -505.000; -424.000
199.047;  -56.600; -615.000; -488.000
199.193;  -38.025; -230.000; -468.000
199.339;  -43.825; -222.000; -369.000
199.485;   30.375;  330.000;  271.000
199.631;   19.675;  227.000;  310.000
199.777;  -57.200; -466.000; -398.000
199.923;  -61.375; -610.000; -424.000
200.069;  -11.825; -141.000;  -58.000
200.215;   69.725;  128.000;  453.000
200.361;   31.825;  243.000;  477.000
200.507;  -50.800; -600.000; -373.000
200.653;  -36.025; -371.000; -194.000
200.798;  -25.250; -215.000; -125.000
200.944;   -4.500; -146.000;  -41.000
201.090;   46.350;   61.000;  222.000
201.236;   -8.025; -116.000; -158.000
201.382;  115.925;  874.000;  903.000
201.528;   -4.650;  -58.000;  -48.000
201.674;  -32.050; -386.000; -293.000
201.819;  -61.975; -540.000; -439.000
201.965;  -82.550; -699.000; -447.000
202.111;  -31.300; -273.000; -226.000
202.257;  -36.325; -250.000; -238.000
202.402;    1.500;   13.000;  -36.000
202.548;  -31.250; -169.000; -116.000
202.694;   86.425;  410.000; -183.000
202.840;  -71.425; -603.000; -531.000
202.985;  -74.125; -681.000; -639.000
203.131;  -97.625; -832.000; -666.000
203.277;  -21.950; -199.000; -262.000
203.423;  -41.850; -434.000; -520.000
203.568;  -46.350; -462.000; -237.000
203.714;  -55.700; -535.000; -542.000
203.860;  -83.250; -682.000; -641.000
204.005;   22.050;  112.000;  167.000
204.151;   78.600;  561.000;  556.000
204.296;  -35.200; -354.000; -221.000
204.442;  -62.225; -600.000; -547.000
204.588;  -80.050; -592.000; -579.000
204.733;   15.150;  178.000;  168.000
204.879; -116.550;-1018.000; -822.000
205.025;   15.450;  -99.000;  126.000
205.170;   16.225;  -17.000;   94.000
205.316;   77.300;  438.000;  661.000
205.461;  -84.875; -698.000; -554.000
205.607;   83.550;  609.000;  665.000
205.752;  -85.125; -626.000; -551.000
205.898;  -60.000; -501.000; -391.000
206.043;  -58.800; -578.000; -506.000
206.189;  -45.125; -243.000; -285.000
206.334;   72.325;  554.000;  606.000
206.480;   83.225;  409.000;  239.000
206.625;  -81.300; -529.000; -552.000
206.771;  -44.675; -451.000; -373.000
206.916;  -35.625; -210.000; -537.000
207.062;  -71.400; -545.000; -591.000
207.207;  -63.425; -546.000; -443.000
207.353;   50.600;  185.000;  460.000
207.498;   -0.425;  196.000;   85.000
207.643;  -57.825; -501.000; -370.000
207.789; -134.575;-1069.000; -910.000
207.934;  -88.450; -665.000; -713.000
208.080;  -19.950; -154.000;   66.000
208.225;   -0.600;  -22.000;  -57.000
208.370;  -85.000; -727.000; -619.000
208.516;  -64.550; -741.000; -487.000
208.661;  -13.750; -127.000;  -69.000
208.806;  -33.475; -165.000; -171.000
208.952; -127.000;-1044.000; -731.000
209.097;   76.875;  378.000;  349.000
209.242;  -43.125; -307.000; -382.000
209.387;   73.150;  392.000;  350.000
209.533;  -54.700; -321.000; -350.000
209.678;   77.725;  472.000;  543.000
209.823;  -43.700; -408.000; -310.000
209.969; -100.950; -860.000; -757.000
210.114; -115.925; -907.000; -719.000
210.259; -122.650; -939.000; -889.000
210.404;   -2.725; -171.000;  103.000
210.549;    7.225;  108.000;    3.000
210.695;  -18.500;   -3.000;  -95.000
210.840;   25.600;   94.000;   67.000
210.985;  -56.250; -484.000; -303.000
211.130;   72.225;  268.000;  406.000
211.275;   20.300;  207.000;  199.000
211.420;  -61.725; -300.000; -289.000
211.566;  -68.375; -536.000; -489.000
211.711;   16.800;  218.000;  157.000
211.856;  -69.875; -545.000; -519.000
212.001;   22.375;  151.000;   44.000
212.146;   25.575;  153.000;   49.000
212.291;  -34.075; -210.000; -186.000
212.436;  -36.025; -280.000;   -6.000
212.581;  -80.650; -685.000; -653.000
212.726;  -67.250; -487.000; -538.000
212.871;  -43.200; -552.000; -217.000
213.016; -146.975;-1172.000;-1029.000
213.161;   58.800;  406.000;  291.000
213.306;  -61.575; -435.000; -577.000
213.451;  -90.300; -778.000; -689.000
213.596;  -29.250; -455.000; -347.000
213.741;  -57.950; -448.000; -538.000
213.886;  -81.725; -498.000; -517.000
214.031;  -31.075; -294.000; -124.000
214.176;  -46.200; -408.000; -341.000
214.321;  -19.275; -296.000; -157.000
214.466;  -28.925; -163.000;  -43.000
214.611;   -2.225;  -61.000;  -10.000
214.756; -120.175; -948.000; -858.000
214.901;  -20.450; -388.000; -226.000
215.046; -119.225; -797.000; -825.000
215.191;   19.000;  128.000;   35.000
215.336;  -21.050; -157.000;  -19.000
215.480;  -71.950; -684.000; -505.000
215.625;   -5.475; -175.000;  -19.000
215.770;  -84.775; -757.000; -662.000
215.915;   -9.550;   -5.000;  -97.000
216.060;  -14.825; -113.000;  -21.000
216.205; -105.750; -731.000; -779.000
216.349;  -72.650; -470.000; -533.000
216.494; -129.700; -939.000; -867.000
216.639; -109.175; -823.000; -888.000
216.784;  -94.825; -577.000; -525.000
216.929;   48.625;  392.000;  281.000
217.073;    2.100; -244.000;  -31.000
217.218;    6.025;   78.000;  -47.000
217.363;  -82.775; -656.000; -618.000
217.507;  -85.200; -623.000; -588.000
217.652; -117.025; -845.000; -874.000
217.797;  -98.075; -708.000; -659.000
217.942; -113.575; -856.000; -720.000
218.086;   66.875;  608.000;  539.000
218.231;  -24.575; -174.000;  -26.000
218.376;  -31.175; -337.000; -229.000
218.520;    4.525;  -41.000;   96.000
218.665;  -37.375; -338.000; -204.000
218.810;  -58.050; -275.000; -233.000
218.954;    8.475;  201.000;   35.000
219.099; -120.675; -713.000; -963.000
219.243;  -70.500; -589.000; -554.000
219.388;  -32.100; -264.000; -136.000
219.532;   -2.850; -116.000; -116.000
219.677;  -66.050; -564.000; -521.000
219.822;    3.825;   33.000;   89.000
219.966;   10.600;   17.000;  -99.000
220.111;  -27.025; -328.000;  -40.000
220.255; -107.800; -797.000; -750.000
220.400;  -17.800; -180.000; -146.000
220.544;  -75.575; -516.000; -450.000
220.689;  -52.500; -422.000; -451.000
220.833;  -14.625; -123.000;  -58.000
220.978;  -56.150; -393.000; -563.000
221.122;   29.750;  319.000;  307.000
221.267; -114.550; -906.000; -837.000
221.411;  -76.425; -478.000; -394.000
221.555;  -14.100; -104.000;  -23.000
221.700;  -41.925; -329.000; -222.000
221.844;   23.600;  255.000;  272.000
221.989;  -33.200; -328.000; -311.000
222.133;  -53.750; -289.000; -307.000
222.277;    3.075;    5.000;   78.000
222.422;   15.550;  227.000;  113.000
222.566;  -30.950; -381.000; -214.000
222.711;  -59.975; -414.000; -479.000
222.855;  -80.975; -643.000; -586.000
222.999;  -82.925; -642.000; -717.000
223.144;  -25.425; -195.000; -194.000
223.288;   53.375;  423.000;  251.000
223.432;   21.500;  184.000;  230.000
223.576;    8.500;  152.000;  -21.000
223.721;   33.425;  364.000;  273.000
223.865;  -55.450; -472.000; -475.000
224.009;  211.700; 1673.000; 1631.000
224.153;  -81.675; -660.000; -671.000
224.298;  -59.975; -531.000; -489.000
224.442;  -19.875;  -74.000;  -33.000
224.586;  -16.050; -169.000; -106.000
224.730;  -97.700; -858.000; -670.000
224.875; -101.650; -739.000; -688.000
225.019;   23.375;  102.000;  188.000
225.163;   55.175;  208.000;  341.000
225.307;   19.225;   97.000;  -91.000
225.451;   41.400;  360.000;  481.000
225.595;   21.800;  264.000;  176.000
225.739;   -7.125; -170.000;  -94.000
225.884;    7.900;   86.000;    5.000
226.028; -105.400; -760.000; -626.000
226.172;  -39.275; -260.000; -273.000
226.316; -120.675; -941.000; -902.000
226.460;  -69.000; -645.000; -493.000
226.604;  -53.650; -406.000; -400.000
226.748; -101.625; -836.000; -733.000
226.892;  -22.975; -227.000; -181.000
227.036;  -43.050; -537.000; -447.000
227.180;  -49.375; -551.000; -375.000
227.324;  -53.150; -561.000; -580.000
227.468; -114.050; -819.000; -717.000
227.612;   12.175;  242.000;  -28.000
227.756; -101.000; -845.000; -698.000
227.900;   54.325;  342.000;  441.000
228.044;  -46.800; -509.000; -290.000
228.188;   40.675;  448.000;  568.000
228.332;  -71.750; -546.000; -472.000
228.476;  -32.425; -223.000; -149.000
228.620;  -24.450; -210.000; -150.000
228.764;   62.325;  431.000;  349.000
228.908;  -30.675; -155.000;   30.000
229.052;  -68.550; -615.000; -528.000
229.195;  -20.075; -172.000;   13.000
229.339;  -27.100; -235.000; -305.000
229.483;  -19.450;    5.000; -162.000
229.627;   -4.250; -156.000;  139.000
229.771;  -34.500; -218.000; -294.000
229.915;    8.450;  230.000;   79.000
230.059;  -88.000; -648.000; -663.000
230.202;  -42.400; -370.000; -317.000
230.346;  -12.925; -107.000;  107.000
230.490;  -55.375; -489.000; -521.000
230.634; -107.625; -736.000; -553.000
230.777;   64.000;  478.000;  509.000
230.921;  -55.375; -450.000; -359.000
231.065;  -40.125; -246.000; -286.000
231.209;   23.450;  261.000;  265.000
231.352;   30.825;   54.000;   40.000
231.496;   26.900;  568.000;  188.000
231.640;  -87.775; -693.000; -621.000
231.783;   68.250;  546.000;  525.000
231.927;  -40.925; -294.000; -365.000
232.071; -117.875; -962.000; -736.000
232.214; -110.100; -980.000; -764.000
232.358;  -96.625; -683.000; -599.000
232.502;   14.475;  -19.000;    7.000
232.645; -125.625;-1090.000; -927.000
232.789;  -23.525; -257.000; -218.000
232.933;  -42.075; -407.000; -224.000
233.076; -129.250;-1038.000; -897.000
233.220; -100.425; -752.000; -777.000
233.363;  -73.500; -669.000; -477.000
233.507;   56.150;  371.000;  129.000
233.650; -101.075; -764.000; -834.000
233.794;   54.250;  438.000;  461.000
233.938;  -72.325; -530.000; -362.000
234.081;   -6.125;  -93.000;   31.000
234.225;  -77.800; -631.000; -539.000
234.368; -106.925; -773.000; -723.000
234.512;  -43.250; -385.000; -299.000
234.655;  -88.200; -582.000; -555.000
234.798;  -59.275; -493.000; -466.000
234.942; -133.850; -884.000;-1002.000
235.085;  -71.775; -651.000; -443.000
235.229;  -71.225; -405.000; -410.000
235.372;  -45.700; -247.000; -191.000
235.516;  -61.325; -397.000; -321.000
235.659;   20.850;   92.000;  121.000
235.802;   -6.050;  -38.000;  -22.000
235.946;   38.550;  335.000;  215.000
236.089;   33.475;  126.000;  250.000
236.233;   53.375;  275.000;  298.000
236.376;  -38.725; -235.000; -378.000
236.519;  -55.025; -297.000; -319.000
236.663;  -21.275; -215.000; -117.000
236.806; -135.450;-1029.000; -999.000
236.949;   56.925;  543.000;  431.000
237.092;   55.975;  412.000;  391.000
237.236;  -82.475; -589.000; -502.000
237.379;   60.900;  352.000;  428.000
237.522; -113.225; -879.000; -768.000
237.666;  -15.875; -271.000;   18.000
237.809; -116.125; -851.000; -823.000
237.952;   32.400;  469.000;  271.000
238.095;  -47.775; -447.000; -442.000
238.238;   76.575;  688.000;  700.000
238.382;    5.375;  166.000;  103.000
238.525;  -64.100; -598.000; -511.000
238.668; -134.875;-1060.000; -985.000
238.811;  -79.925; -638.000; -643.000
238.954;  -58.725; -483.000; -334.000
239.097;   72.125;  617.000;  664.000
239.241;   27.000;  394.000;  326.000
239.384;  -32.975; -254.000; -214.000
239.527;  -66.650; -424.000; -224.000
239.670; -150.500; -994.000;-1091.000
239.813; -109.525; -696.000; -658.000
239.956;   69.525;  579.000;  473.000
240.099; -108.825; -778.000; -725.000
240.242;   66.650;  428.000;  432.000
240.385;   46.850;  466.000;  450.000
240.528;  -84.375; -706.000; -473.000
240.671;    6.775;  189.000;  134.000
240.814;  -44.600; -441.000; -158.000
240.957;  -92.050; -767.000; -578.000
241.100;  -95.975; -779.000; -755.000
241.243; -138.025;-1234.000; -893.000
241.386;  -63.700; -508.000; -379.000
241.529;  -90.450; -735.000; -547.000
241.672;  -62.575; -566.000; -495.000
241.815; -122.575; -832.000; -808.000
241.958;  -20.000; -125.000; -182.000
242.101;  -67.900; -545.000; -390.000
242.244;  -38.100; -270.000; -325.000
242.387;  -47.500; -304.000; -246.000
242.530;   56.400;  470.000;  134.000
242.673;  -51.050; -381.000; -309.000
242.815; -122.700; -925.000; -899.000
242.958;  -66.325; -482.000; -381.000
243.101;   -2.175;  132.000;  187.000
243.244;  -95.300; -564.000; -521.000
243.387;  -62.175; -313.000; -316.000
243.530;  -94.300; -657.000; -674.000
243.672;   -2.800;   43.000;  -92.000
243.815;  -49.300; -355.000; -283.000
243.958;   -3.400;   98.000;  -26.000
244.101;    1.950;   59.000;  -16.000
244.243;  -18.150;  -47.000;  101.000
244.386; -103.450; -761.000; -630.000
244.529;  -34.600; -132.000; -139.000
244.672; -157.250;-1154.000; -951.000
244.814;  -89.800; -621.000; -794.000
244.957;  -48.800; -380.000; -304.000
245.100;  -78.200; -489.000; -489.000
245.242;  -55.300; -387.000; -374.000
245.385;   -8.575;  -59.000;  -39.000
245.528; -119.325; -871.000; -705.000
245.670;   73.900;  612.000;  634.000
245.813;  -89.775; -599.000; -547.000
245.956;  -36.350; -324.000; -275.000
246.098;  -80.550; -508.000; -650.000
246.241;    4.925;  194.000;   48.000
246.383;  -24.175; -119.000;  -73.000
246.526;  -76.500; -454.000; -525.000
246.669; -113.500; -889.000; -780.000
246.811;   13.500;  172.000;   -1.000
246.954;  -54.200; -512.000; -426.000
247.096;  -15.100;  -84.000;   -6.000
247.239;  -68.425; -482.000; -445.000
247.381;  -68.750; -647.000; -488.000
247.524;   88.275;  645.000;  679.000
247.666;  -13.400;   58.000;   11.000
247.809; -120.475; -887.000; -691.000
247.951;   -7.500;  -75.000;  138.000
248.094;   25.025;  432.000;  308.000
248.236; -153.000;-1262.000;-1238.000
248.378;   10.525; -356.000;  -81.000
248.521;  -15.275; -334.000; -337.000
248.663;  -30.250; -236.000; -267.000
248.806;  -24.650; -300.000; -266.000
248.948;  -90.475; -886.000; -763.000
249.090;  -44.025; -428.000; -398.000
249.233;  -53.475; -344.000; -381.000
249.375;  -63.300; -474.000; -451.000
249.518;  -20.600;  -83.000; -133.000
249.660;  -20.350; -103.000;    3.000
249.802; -155.400;-1303.000;-1189.000
249.945;  -84.675; -612.000; -540.000
250.087; -110.775; -834.000; -768.000
250.229;  -53.500; -362.000; -480.000
250.371;  -76.150; -494.000; -439.000
250.514;  -61.300; -310.000; -244.000
250.656;  -11.900;   69.000;  102.000
250.798; -105.225; -849.000; -800.000
250.940;  -73.650; -322.000; -322.000
251.083;  -29.075; -335.000; -111.000
251.225;   45.750;  338.000;  310.000
251.367;  -53.325; -274.000; -373.000
251.509;  -36.800; -265.000; -210.000
251.651;  -98.650; -731.000; -671.000
251.794;   62.425;  538.000;  632.000
251.936;  -90.825; -821.000; -747.000
252.078;  -77.275; -540.000; -461.000
252.220;  -73.675; -645.000; -477.000
252.362;   71.550;  344.000;  462.000
252.504;  -70.875; -677.000; -584.000
252.646; -111.600; -875.000; -722.000
252.788;   -2.075;   14.000; -128.000
252.931;  -39.925; -257.000; -253.000
253.073;  -50.025; -376.000; -317.000
253.215;  -19.650;  141.000;  122.000
253.357;  -18.200;   82.000; -153.000
253.499;  -34.100; -374.000; -234.000
253.641;  -87.125; -749.000; -594.000
253.783;  -82.425; -609.000; -527.000
253.925;  -87.375; -586.000; -591.000
254.067; -100.625; -744.000; -667.000
254.209;  -42.725; -391.000; -259.000
254.351; -140.800; -865.000; -883.000
254.493;  -66.675; -441.000; -417.000
254.635; -122.450; -936.000; -818.000
254.777;  -91.950; -752.000; -687.000
254.918;  -63.225; -512.000; -430.000
255.060;  -70.925; -551.000; -395.000
255.202;  -66.450; -473.000; -261.000
255.344;  -82.000; -658.000; -455.000
255.486;  -69.750; -471.000; -406.000
255.628; -114.600; -780.000; -781.000
255.770;  -89.400; -676.000; -536.000
255.912;  -69.225; -559.000; -468.000
256.053;  -87.775; -730.000; -508.000
256.195;  140.825; 1008.000;  903.000
256.337; -106.800; -861.000; -595.000
256.479;   57.775;  532.000;  416.000
256.621;  -48.700; -394.000; -212.000
256.762; -101.025; -789.000; -742.000
256.904;   41.500;  485.000;  487.000
257.046;  -48.275; -381.000; -271.000
257.188;  -50.375; -351.000; -264.000
257.329;  -66.550; -525.000; -464.000
257.471; -121.600; -939.000; -807.000
257.613;  -76.000; -584.000; -498.000
257.755; -144.950;-1073.000; -982.000
257.896;   31.250;  286.000;  392.000
258.038;  -62.525; -403.000; -352.000
258.180;  -43.425; -354.000; -279.000
258.321;  -91.925; -581.000; -457.000
258.463;  -18.525;  -71.000;  133.000
258.605;  -86.750; -562.000; -570.000
258.746; -102.600; -886.000; -772.000
258.888; -146.325;-1026.000;-1020.000
259.029;   23.025;  121.000;   -8.000
259.171;  -93.400; -614.000; -550.000
259.313;   -5.925;  -49.000;  -47.000
259.454;  -75.400; -536.000; -414.000
259.596;  -54.550; -483.000; -390.000
259.737; -101.700; -590.000; -474.000
259.879;   39.225;  217.000;  311.000
260.020;   71.650;  901.000;  636.000
260.162;  -43.225; -146.000; -253.000
260.303; -119.825; -768.000; -687.000
260.445;  -76.000; -609.000; -613.000
260.586;   19.250;  392.000;  157.000
260.728;  -38.625; -360.000; -248.000
260.869; -112.025; -350.000; -343.000
261.011;   62.300;  706.000;  537.000
261.152;  -73.950; -479.000; -319.000
261.293;  -81.625; -576.000; -595.000
261.435;  -44.150; -219.000; -184.000
261.576;  -38.450; -455.000; -325.000
261.718;   47.500;  420.000;  470.000
261.859; -127.075; -940.000; -949.000
262.000; -136.075; -951.000;-1016.000
262.142;  -36.275;  -52.000;  -60.000
262.283; -104.925; -808.000; -691.000
262.424;  -99.750; -666.000; -625.000
262.566; -147.250;-1161.000; -983.000
262.707; -112.750; -840.000; -830.000
262.848; -127.750; -769.000; -726.000
262.990;  -46.125; -362.000; -345.000
263.131;   79.625;  650.000;  681.000
263.272;  -13.475;  -61.000;  -41.000
263.413;  -91.425; -589.000; -561.000
263.555;  -68.350; -669.000; -143.000
263.696;  -84.750; -550.000; -641.000
263.837;  -69.650; -449.000; -551.000
263.978;   -7.450;   -5.000;  -77.000
264.119;  -47.950; -283.000; -264.000
264.261; -113.300; -847.000; -630.000
264.402;  -10.700;   33.000;   40.000
264.543;  -66.275; -509.000; -524.000
264.684;  -15.500;   61.000;  -50.000
264.825;  -75.250; -816.000; -538.000
264.966;   -7.675;  -84.000;  -67.000
265.107; -110.000; -646.000; -670.000
265.248; -112.025; -825.000; -812.000
265.390;   -7.625;  152.000;   -9.000
265.531;  -28.925; -238.000; -107.000
265.672; -100.950; -557.000; -630.000
265.813;   40.675;  563.000;  439.000
265.954; -137.025; -959.000; -940.000
266.095;  -31.875; -372.000; -322.000
266.236;  -89.850; -686.000; -548.000
266.377;  -42.475; -243.000; -297.000
266.518;  -90.575; -619.000; -547.000
266.659;   14.125;  170.000;  268.000
266.800;   -7.850;   83.000;   85.000
266.941;  -83.125; -487.000; -478.000
267.082;   -4.675;  354.000;   99.000
267.223;  -45.200; -344.000; -273.000
267.364; -117.575; -892.000; -686.000
267.504;  -28.250;    3.000;  135.000
267.645;   -7.350;  160.000;   67.000
267.786;  -50.100; -147.000;  -86.000
267.927;  -81.125; -473.000; -379.000
268.068;  -28.200; -186.000;  -61.000
268.209;  -52.875; -175.000; -413.000
268.350;  -72.375; -388.000; -532.000
268.490;  -92.075; -648.000; -521.000
268.631;   22.925;  127.000;  225.000
268.772;  -99.800; -874.000; -647.000
268.913;  -63.200; -328.000; -476.000
269.054;  -32.075; -117.000;   12.000
269.194;  -45.475; -418.000; -402.000
269.335; -153.300;-1137.000;-1074.000
269.476;  -27.050;   33.000;  -35.000
269.617;  -47.175; -347.000; -392.000
269.757;  -92.025; -713.000; -646.000
269.898;  -98.800; -856.000; -613.000
270.039;  -71.150; -415.000; -405.000
270.180; -136.275; -952.000; -816.000
270.320;  -32.150; -190.000; -250.000
270.461;  -33.675; -277.000; -249.000
270.602;  -25.025; -186.000; -156.000
270.742; -131.375; -868.000; -943.000
270.883;  -63.675; -442.000; -390.000
271.023;  -55.450; -358.000; -357.000
271.164;  -84.500; -607.000; -528.000
271.305;  -91.600; -666.000; -654.000
271.445; -101.700; -722.000; -683.000
271.586;  -63.700; -462.000; -283.000
271.726;  -48.150; -397.000; -322.000
271.867;  -53.000; -594.000; -534.000
272.008;  169.225; -473.000; -285.000
272.148;  118.325;  462.000;  468.000
272.289;    9.075; -113.000; -181.000
272.429;   15.275;   19.000;  185.000
272.570;  -82.825; -633.000; -737.000
272.710; -103.575; -825.000; -775.000
272.851;  -24.525;  113.000; -130.000
272.991; -157.125;-1173.000;-1077.000
273.131;  -80.775; -419.000; -459.000
273.272;  -92.325; -683.000; -723.000
273.412;   -2.350; -143.000;  -31.000
273.553;  -50.100; -488.000; -507.000
273.693;  123.100;  913.000;  858.000
273.834;  -94.600; -894.000; -692.000
273.974;  -76.400; -664.000; -615.000
274.114; -106.050; -772.000; -560.000
274.255;   67.075;  414.000;  373.000
274.395;    4.350; -180.000; -125.000
274.535;   36.650;  199.000;  350.000
274.676;   31.675;  225.000;   94.000
274.816;    0.450;  110.000;   34.000
274.956;  -91.875; -624.000; -690.000
275.097;  -71.825;-1014.000; -922.000
275.237; -123.750; -913.000; -803.000
275.377; -104.275; -778.000; -689.000
275.517; -138.625; -878.000; -937.000
275.658;  -66.950; -590.000; -555.000
275.798;  -74.325; -606.000; -413.000
275.938;   11.450;  215.000;  323.000
276.078; -102.675; -626.000; -395.000
276.218;    2.050;   99.000;  104.000
276.359; -105.975;-1026.000;-1024.000
276.499;  -80.475; -605.000; -446.000
276.639;  -35.000; -305.000; -151.000
276.779;  -58.175; -475.000; -357.000
276.919;  -99.175; -783.000; -624.000
277.059;  -16.300; -261.000; -212.000
277.199;  -46.675; -357.000; -259.000
277.340;   30.175;  287.000;  175.000
277.480; -107.675; -840.000; -693.000
277.620;   19.850;  192.000;   16.000
277.760; -195.625;-1533.000;-1294.000
277.900;    7.050;  113.000;   33.000
278.040;    0.250;  137.000;  159.000
278.180;   36.200;  270.000;  170.000
278.320;    3.175;   21.000;   56.000
278.460;  -65.250; -443.000; -469.000
278.600;  -89.675; -708.000; -598.000
278.740;   56.000;  448.000;  224.000
278.880;  -63.475; -768.000; -791.000
279.020;  -19.175; -194.000; -144.000
279.160;  -92.950; -672.000; -595.000
279.300; -126.025; -926.000; -873.000
279.440;  -81.200; -709.000; -622.000
279.579;  -31.150;-1014.000; -929.000
279.719;  -62.725; -410.000; -394.000
279.859;   57.100;   -4.000;   41.000
279.999;   19.725; -208.000;  101.000
280.139;  -19.550; -435.000; -387.000
280.279;  -83.625; -708.000; -745.000
280.419;  -24.950; -229.000; -147.000
280.559;  -35.600; -259.000; -180.000
280.698;  -96.175; -790.000; -639.000
280.838; -100.725; -778.000; -800.000
280.978; -106.125; -846.000; -790.000
281.118; -117.075; -811.000; -704.000
281.257;   -0.525;   24.000;    6.000
281.397; -122.250;-1094.000; -960.000
281.537;  -90.800; -599.000; -712.000
281.677;  -17.850; -150.000; -101.000
281.816; -104.375; -700.000; -630.000
281.956;  -23.250; -193.000; -257.000
282.096;  -74.550; -539.000; -396.000
282.235; -108.425; -672.000; -638.000
282.375;  -24.000; -243.000;  -98.000
282.515; -105.750; -715.000; -707.000
282.654;   13.050;   29.000;  106.000
282.794;   29.525;  388.000;  244.000
282.934;  -73.800; -530.000; -491.000
283.073; -131.750;-1030.000; -857.000
283.213;  -58.775; -460.000; -467.000
283.353;  -40.400; -408.000; -349.000
283.492;  -32.275; -264.000; -296.000
283.632;  -51.125; -254.000; -168.000
283.771; -109.800; -859.000; -730.000
283.911;  -52.400; -369.000; -260.000
284.050;  -96.425; -794.000; -748.000
284.190; -165.075;-1229.000;-1096.000
284.329; -142.350;-1055.000; -964.000
284.469;  -61.150; -516.000; -591.000
284.608;  -69.875; -559.000; -598.000
284.748;  -78.050; -614.000; -570.000
284.887;  -22.575;  -87.000;  -20.000
285.027; -125.675; -844.000; -892.000
285.166;  -35.800; -192.000; -249.000
285.306;   -5.575; -116.000;  -33.000
285.445;  -31.600; -229.000; -343.000
285.584;  -84.175; -630.000; -494.000
285.724;  -45.375; -282.000; -322.000
285.863; -114.550; -857.000; -507.000
286.002;  -54.700; -366.000; -276.000
286.142; -110.275; -715.000; -622.000
286.281;  -70.600; -525.000; -493.000
286.420;  -72.125; -554.000; -417.000
286.560;   82.125;  653.000;  623.000
286.699; -135.875; -958.000; -912.000
286.838;  -87.900; -590.000; -591.000
286.978;  -93.400; -533.000; -537.000
287.117; -138.950;-1085.000; -950.000
287.256;  -37.000; -228.000; -211.000
287.395;  -51.900; -197.000; -378.000
287.535;  -59.050; -370.000; -298.000
287.674;  -96.350; -509.000; -484.000
287.813;   47.425;  661.000;  533.000
287.952; -138.775;-1010.000; -871.000
288.091; -142.525;-1049.000; -915.000
288.231;    2.850;   13.000;   15.000
288.370; -169.575;-1217.000;-1200.000
288.509;  -84.875; -728.000; -645.000
288.648; -105.750; -770.000; -548.000
288.787;  -45.600; -243.000;  -87.000
288.926;  -71.775; -454.000; -475.000
289.065;  105.425;  859.000;  672.000
289.204;  -53.625; -377.000; -217.000
289.344; -104.350; -791.000; -690.000
289.483;   12.550;  416.000;  304.000
289.622;  -33.700; -291.000; -149.000
289.761;  -14.050; -309.000; -166.000
289.900; -119.675; -785.000; -626.000
290.039;  -30.000;  -12.000;  -95.000
290.178;  -27.775; -274.000; -180.000
290.317;  -75.575; -618.000; -479.000
290.456;  -69.150; -463.000; -451.000
290.595; -130.075; -961.000; -833.000
290.734; -147.450; -904.000; -891.000
290.873;  -84.400; -456.000; -420.000
291.011; -119.875; -833.000; -843.000
291.150; -107.100; -770.000; -682.000
291.289;  -30.525; -343.000; -110.000
291.428;  -86.875; -599.000; -480.000
291.567;  -69.650; -370.000; -442.000
291.706;  -10.975;  109.000;  154.000
291.845;  -87.525; -597.000; -505.000
291.984; -155.525;-1234.000;-1061.000
292.122;   73.325;  602.000;  582.000
292.261;   55.550;  620.000;  463.000
292.400;   -8.225; -144.000;  211.000
292.539; -117.200; -959.000; -813.000
292.678;  -35.575; -325.000; -300.000
292.816; -156.075;-1136.000; -965.000
292.955; -101.725; -844.000; -684.000
293.094;  -32.025; -173.000; -337.000
293.233;  -62.675; -556.000; -400.000
293.371;  -33.625; -225.000;  -84.000
293.510; -116.400; -866.000; -780.000
293.649; -131.375; -959.000; -924.000
293.787;  -59.825;-1083.000;-1012.000
293.926;  -15.925; -113.000;  -32.000
294.065;  -58.850; -379.000; -290.000
294.203;   30.425;  298.000;  406.000
294.342;    9.825;   74.000;  156.000
294.481; 6182.875;51180.000; -836.000
294.619;  -23.750; -425.000; -582.000
294.758; -149.125;-1230.000;-1137.000
294.896;   51.900; -125.000;    5.000
295.035; -128.300;-1040.000;-1006.000
295.174; -132.950;-1082.000; -954.000
295.312;  -51.800; -323.000; -203.000
295.451;  -15.900; -307.000; -428.000
295.589;  -59.800; -389.000; -518.000
295.728;   15.225; -292.000; -165.000
295.866;   10.575;  -36.000;  -51.000
296.005;  -75.775; -584.000; -341.000
296.143;  -86.575; -558.000; -596.000
296.282; -114.000; -957.000; -881.000
296.420;  -75.575; -657.000; -557.000
296.559;  -90.975; -892.000; -633.000
296.697;    3.125; -847.000; -665.000
296.835;   32.550;-1141.000;-1002.000
296.974;   37.800;  -23.000;   39.000
297.112;   -4.225; -443.000; -504.000
297.251;  -94.625; -815.000; -755.000
297.389;   69.150; -576.000; -438.000
297.527;   31.950; -145.000;  -83.000
297.666;  -60.175; -486.000; -438.000
297.804;  -58.875; -404.000; -264.000
297.942;  -22.625; -136.000; -161.000
298.081;  -14.875; -183.000;   63.000
298.219;   46.675;  -17.000;  -19.000
298.357;   50.425; -144.000;  -71.000
298.495;   10.000; -810.000; -812.000
298.634;   61.075;  245.000;  219.000
298.772;   27.125; -220.000; -338.000
298.910;  -47.650; -309.000; -182.000
299.048;   -2.025; -130.000; -153.000
299.187;  -15.775; -350.000; -250.000
299.325;    1.175;   52.000;  122.000
299.463;   45.075; -389.000; -299.000
299.601;   80.750; -327.000; -271.000
299.739; -111.800; -908.000; -883.000
299.877;  -86.575; -791.000; -703.000
300.016;  -58.950;-1095.000; -935.000
300.154;  130.650;  -19.000; -161.000
300.292;   27.950; -428.000; -348.000
300.430;   25.200; -408.000; -291.000
300.568; -101.600; -940.000; -874.000
300.706;  -63.550; -366.000; -469.000
300.844;  -77.000;-1108.000; -979.000
300.982;  100.925;  246.000;  282.000
301.120; -108.975; -965.000; -866.000
301.258;  -63.150; -812.000; -705.000
301.396;   15.925;  104.000;  -41.000
301.534;   56.525; -218.000; -293.000
301.672;   -8.875; -664.000; -521.000
301.810;   16.800; -613.000; -545.000
301.948;   93.325;   53.000;  149.000
302.086;  583.050; -250.000;  -32.000
302.224;  879.075; -610.000; -585.000
302.362;   15.325; -558.000; -622.000
302.500;  -40.575; -923.000; -893.000
302.638;   85.225;  128.000;  245.000
302.776;  -12.950; -352.000; -408.000
302.913;   26.150;  447.000;  236.000
303.051;   -2.875;  -86.000;  -23.000
303.189;   47.300;   90.000;  118.000
303.327;  -44.950; -341.000; -256.000
303.465;  -85.800; -832.000; -588.000
303.603;  -94.475; -805.000; -604.000
303.740;   84.750;  417.000;  241.000
303.878;    9.725; -800.000; -759.000
304.016;  -87.875; -915.000; -790.000
304.154; -136.600;-1123.000;-1152.000
304.291;  -49.750; -505.000; -554.000
304.429;   13.825;  102.000;   74.000
304.567; -133.400; -908.000; -893.000
304.705;  -56.600; -408.000; -515.000
304.842;   84.225; -616.000; -540.000
304.980;   47.075;  215.000;   35.000
305.118;   35.075; -367.000; -365.000
305.255;  -93.250; -945.000; -927.000
305.393;   45.400;  178.000;  239.000
305.531; -114.950;-1173.000; -956.000
305.668;  -77.100; -663.000; -582.000
305.806;   98.050; -358.000; -439.000
305.943;   91.725; -629.000; -637.000
306.081;   38.425; -378.000; -267.000
306.219;  -94.450; -863.000; -748.000
306.356;   14.275;  158.000;   27.000
306.494;  104.925;  981.000;  761.000
306.631;  -21.700;  -11.000;  -55.000
306.769;   -0.250; -613.000; -485.000
306.906;  -33.150; -284.000; -258.000
307.044;  -71.350; -473.000; -488.000
307.181;  -75.025; -410.000; -332.000
307.319;   -3.625;  112.000;   87.000
307.456; -165.325;-1191.000;-1153.000
307.594; -103.900; -980.000; -727.000
307.731;   -5.875; -371.000; -164.000
307.868;   -7.750;  -15.000;   20.000
308.006; -150.100; -961.000; -847.000
308.143;  -76.075; -618.000; -330.000
308.281;  148.300;  -37.000; -254.000
308.418;  -24.025; -748.000; -640.000
308.555;  -77.300; -400.000; -250.000
308.693;  -85.700; -577.000; -573.000
308.830; -109.925; -712.000; -657.000
308.967;  -18.425; -215.000;  -95.000
309.105;  -57.800; -507.000; -396.000
309.242;   27.950; -468.000; -367.000
309.379;  290.975; -577.000; -655.000
309.517;  -82.400; -936.000; -948.000
309.654; -118.775; -910.000; -734.000
309.791;  -91.675; -662.000; -580.000
309.928; -131.600; -977.000; -914.000
310.065;  158.600;  819.000;  697.000
310.203;  -15.850; -825.000; -850.000
310.340;  -23.325; -465.000; -321.000
310.477;  -76.450; -412.000; -516.000
310.614;  -82.275; -383.000; -473.000
310.751;  -82.075; -427.000; -518.000
310.889;  -28.375;    1.000;   11.000
311.026; -147.525;-1161.000; -939.000
311.163;  -49.700; -386.000; -380.000
311.300;  -83.975; -512.000; -479.000
311.437;  -85.575; -658.000; -619.000
311.574; -168.750;-1226.000; -985.000
311.711;  -61.600; -595.000; -433.000
311.848;  -53.175; -380.000; -388.000
311.985;    4.975;  270.000;   93.000
312.122; -129.775; -932.000; -762.000
312.259; -129.325; -941.000; -994.000
312.396;  -96.025; -508.000; -551.000
312.533;  -98.850; -812.000; -790.000
312.670; -139.100;-1070.000; -898.000
312.807;  -51.250; -352.000; -367.000
312.944;  -82.125; -513.000; -611.000
313.081;  -41.075; -150.000; -415.000
313.218; -101.950;-1111.000; -867.000
313.355;    6.325; -531.000; -449.000
313.492;  -21.275; -455.000; -292.000
313.629;  121.375;  815.000;  735.000
313.766; -168.425;-1176.000;-1008.000
313.902;  -23.625; -186.000;   21.000
314.039;  -59.275; -372.000; -289.000
314.176;   17.975;  286.000;  192.000
314.313;  -80.575; -569.000; -473.000
314.450;  -83.550; -788.000; -684.000
314.587;  -59.125; -468.000; -480.000
314.723;   -0.825;  -78.000;  130.000
314.860;   26.025;  318.000;  332.000
314.997;    8.775;  223.000;  142.000
315.134;  -38.800; -385.000; -368.000
315.270;  -46.450; -480.000; -496.000
315.407; -121.875;-1094.000; -967.000
315.544;  -51.525; -657.000; -538.000
315.681;  -73.050; -681.000; -565.000
315.817;   22.575; -133.000; -176.000
315.954;    6.350; -613.000; -392.000
316.091; -135.325;-1045.000;-1023.000
316.227;  -31.075;  -71.000; -179.000
316.364;   -6.600;   23.000;    6.000
316.500;  -52.025; -113.000; -300.000
316.637;  -52.575; -181.000; -302.000
316.774;  -96.025; -625.000; -358.000
316.910;  -94.650; -598.000; -629.000
317.047;  -82.325; -487.000; -351.000
317.183;  -77.050; -435.000; -566.000
317.320;  -17.175; -367.000; -321.000
317.456;  -76.925; -733.000; -805.000
317.593;  -97.175; -598.000; -641.000
317.729;   23.300;  168.000;  -67.000
317.866; -200.850;-1434.000;-1285.000
318.002;  -92.350; -708.000; -948.000
318.139; -101.700; -883.000; -867.000
318.275; -116.025;-1003.000; -738.000
318.412;  -69.575; -517.000; -336.000
318.548;  -35.175; -751.000; -720.000
318.685; -101.725; -985.000; -888.000
318.821; -107.700; -762.000; -735.000
318.957;  -23.300;   34.000;  -23.000
319.094;   35.175;  297.000;  154.000
319.230;  -72.025; -756.000; -742.000
319.367;  113.050; -471.000; -520.000
319.503;   43.925; -538.000; -436.000
319.639;  -90.850; -877.000; -793.000
319.775;  -81.300; -750.000; -685.000
319.912;  -66.425; -424.000; -519.000
320.048;  -99.775;-1184.000;-1184.000
320.184;   93.775;   59.000;   70.000
320.321;  -61.800; -497.000; -467.000
320.457;   55.050;  475.000;  662.000
320.593;  -67.150; -375.000; -382.000
320.729; -109.225; -732.000; -734.000
320.866;  -73.500; -577.000; -635.000
321.002;  -82.525; -759.000; -809.000
321.138;  -21.075; -135.000; -211.000
321.274;   57.875; -148.000; -115.000
321.410;  -41.700; -585.000; -353.000
321.546;  -43.875;-1011.000; -911.000
321.683;   52.675;  400.000;  185.000
321.819;  -14.325;  -48.000; -117.000
321.955; -120.250; -743.000; -722.000
322.091;  -57.200; -585.000; -540.000
322.227;  -10.900; -382.000; -202.000
322.363;  -28.950; -320.000; -215.000
322.499;  -46.225; -343.000; -331.000
322.635;  136.625;  636.000;  443.000
322.771;   20.225; -139.000;   12.000
322.907;   72.850;  129.000;  327.000
323.043;  -36.200; -115.000; -206.000
323.179;  -42.075; -394.000; -363.000
323.315;   12.250; -401.000; -371.000
323.451;   63.825; -328.000; -236.000
323.587;   57.850;  -60.000;  -77.000
323.723;    1.675; -682.000; -601.000
323.859;  -19.275; -258.000;  -76.000
323.995;  -32.125; -467.000; -409.000
324.131; -131.875; -967.000; -892.000
324.267;  -52.425; -254.000; -276.000
324.402; -130.250; -960.000; -983.000
324.538;  -31.450; -279.000; -104.000
324.674;   14.775;  164.000;   77.000
324.810;   96.975;  226.000;  308.000
324.946;   -3.150; -810.000; -658.000
325.082;  -72.575; -568.000; -475.000
325.217;  -27.250;  -62.000;   16.000
325.353; -109.200; -764.000; -659.000
325.489;  -97.450; -540.000; -506.000
325.625;  -93.075; -579.000; -525.000
325.760;   53.800;  517.000;  376.000
325.896;  -26.425; -515.000; -702.000
326.032;  -48.150; -403.000; -352.000
326.168;  -70.950; -462.000; -369.000
326.303;  -68.625; -352.000; -461.000
326.439;  -37.975; -336.000; -276.000
326.575;   -9.400; -190.000;  -29.000
326.710;   -6.225; -156.000;  -30.000
326.846;  -21.775;  146.000;  103.000
326.982;  -99.925; -530.000; -548.000
327.117;  -71.625; -481.000; -442.000
327.253; -110.100; -745.000; -742.000
327.388; -130.500;-1137.000;-1153.000
327.524;  -66.225; -811.000; -578.000
327.659;  -36.825;  -58.000;  -22.000
327.795;  -32.775;   69.000;   45.000
327.931;  -76.325; -723.000; -499.000
328.066;  -36.900; -417.000; -276.000
328.202;  -31.800;   12.000; -129.000
328.337;   96.550;  957.000;  713.000
328.473;   27.750;  -12.000;  -74.000
328.608;  -25.675; -256.000; -267.000
328.743;  -75.475; -799.000; -664.000
328.879;   -1.625;  214.000;  114.000
329.014;  -41.700; -102.000; -122.000
329.150; -104.400; -358.000; -483.000
329.285;  -87.425; -465.000; -466.000
329.421;  -57.225; -548.000; -246.000
329.556;  -26.125;  -36.000;   85.000
329.691; -106.350; -633.000; -615.000
329.827;  -77.875; -626.000; -480.000
329.962;  -47.025;  131.000; -301.000
330.097;  -86.325; -673.000; -585.000
330.233;  -58.675; -410.000; -223.000
330.368; -142.200; -839.000; -628.000
330.503;  -31.950;    3.000;   98.000
330.638;    2.750;  -93.000; -125.000
330.774;  -62.275; -609.000; -530.000
330.909;  -41.775; -434.000; -244.000
331.044; -101.775; -714.000; -708.000
331.179; -179.950;-1217.000;-1109.000
331.315;    6.675;   77.000;   20.000
331.450;    8.575;  157.000;  285.000
331.585;  -98.725; -805.000; -706.000
331.720;  -87.200; -510.000; -460.000
331.855;  -22.075;  -35.000; -102.000
331.990;  261.850;   62.000;  138.000
332.126;  125.375; -110.000;   71.000
332.261;   -4.675; -379.000; -265.000
332.396;  -12.875; -135.000; -242.000
332.531;  -92.650;-1074.000;-1031.000
332.666;   23.825; -519.000; -363.000
332.801;  -97.425; -726.000; -807.000
332.936;  -32.550; -192.000; -122.000
333.071; -153.450; -870.000; -817.000
333.206;   16.250;  307.000;  379.000
333.341;   26.100;  344.000;  418.000
333.476;  -92.525; -627.000; -623.000
333.611;  -38.550; -251.000; -173.000
333.746;  -49.975; -381.000; -464.000
333.881; -122.900; -973.000; -935.000
334.016; -137.125; -936.000; -917.000
334.151; -131.900; -746.000; -702.000
334.286;   14.850;  152.000;  186.000
334.421;  -20.025; -125.000; -178.000
334.556;  -99.275; -611.000; -567.000
334.690;  -94.550; -631.000; -577.000
334.825;   53.500;  381.000;   83.000
334.960;  -62.950; -285.000; -413.000
335.095;    3.675;  135.000;  -91.000
335.230; -107.175; -722.000; -738.000
335.365; -140.375;-1084.000; -990.000
335.499; -133.700;-1108.000;-1037.000
335.634;   10.100;    9.000;  534.000
335.769; -104.375; -755.000; -720.000
335.904;  -67.050; -603.000; -561.000
336.038;  -69.000; -735.000; -657.000
336.173; -123.575;-1206.000;-1194.000
336.308;   -4.125; -116.000; -189.000
336.443;   10.925; -544.000; -634.000
336.577;  -76.325; -936.000; -787.000
336.712;   50.825;   -4.000;  -12.000
336.847;  -51.600; -724.000; -607.000
336.981;   40.675; -272.000; -208.000
337.116;  257.400;  615.000;  501.000
337.250;  117.550; -434.000; -421.000
337.385;  257.925; -297.000; -208.000
337.520;  104.875; -632.000; -603.000
337.654;  -44.325; -215.000; -126.000
337.789; -134.925; -989.000; -933.000
337.923;  -45.300; -104.000; -205.000
338.058;  -87.825; -673.000; -738.000
338.192;  -39.100; -611.000; -488.000
338.327;  -13.775;  -18.000; -155.000
338.461;  -75.850; -299.000; -469.000
338.596; -106.375; -780.000; -638.000
338.730; -104.275; -767.000; -803.000
338.865;   84.400;  -46.000; -140.000
338.999;  -41.275; -846.000; -702.000
339.134;  -19.650; -634.000; -536.000
339.268;   13.800; -741.000; -603.000
339.403;  382.525; -740.000; -775.000
339.537;  136.075; -894.000; -820.000
339.671; -122.650; -829.000; -813.000
339.806;  -70.800; -556.000; -512.000
339.940;    4.250; -261.000; -235.000
340.074;  -88.400; -685.000; -510.000
340.209;  -56.650; -351.000; -230.000
340.343;  -91.125; -517.000; -573.000
340.477;  139.075;  998.000; 1036.000
340.612;  -58.350;-1033.000; -900.000
340.746;  142.100; -199.000; -243.000
340.880;  -73.550; -924.000; -785.000
341.014;  -33.650;  -45.000; -154.000
341.149; -126.600; -756.000; -718.000
341.283; -115.775; -839.000; -754.000
341.417;  -99.050;-1124.000; -938.000
341.551;   98.475; -768.000; -708.000
341.685;  -43.925; -633.000; -611.000
341.820;  -67.950; -562.000; -493.000
341.954;  -44.325; -218.000; -349.000
342.088; -162.175;-1102.000;-1019.000
342.222;   40.325;  565.000;  618.000
342.356;  -68.200; -395.000; -335.000
342.490;  -99.450; -880.000; -841.000
342.624;  -53.850; -339.000; -242.000
342.758;  -20.150; -364.000; -312.000
342.892;  -65.025; -710.000; -585.000
343.026;  -38.625;  -58.000; -116.000
343.160;  -68.400; -426.000; -376.000
343.294;  -86.150; -474.000; -337.000
343.428;  -33.275; -488.000; -448.000
343.562;  -28.675; -172.000;  -23.000
343.696;  -42.775; -385.000; -314.000
343.830;  -27.450; -362.000; -356.000
343.964;    9.400; -231.000; -168.000
344.098;  818.225;  199.000;   70.000
344.232;  681.175; -266.000; -127.000
344.366;   83.475; -567.000; -453.000
344.500;   46.625; -665.000; -744.000
344.634;   29.475; -324.000; -164.000
344.768;  -33.250; -531.000; -341.000
344.902;   23.125;  278.000;  256.000
345.035;  -76.800; -556.000; -496.000
345.169; -141.450; -933.000; -656.000
345.303;  -37.075; -308.000; -482.000
345.437;  -84.850; -826.000; -717.000
345.571;  -79.025; -675.000; -594.000
345.704;  -67.975; -309.000; -532.000
345.838;  -31.325; -331.000; -284.000
345.972;  -35.450; -543.000; -495.000
346.106;  156.200; -179.000; -190.000
346.239;  395.600; -312.000; -243.000
346.373;   -7.350; -343.000; -302.000
346.507; -143.800; -950.000; -962.000
346.640;  111.225;  -30.000;   13.000
346.774;  -46.950; -650.000; -797.000
346.908;  -28.175; -138.000;  -11.000
347.041;  -95.675; -646.000; -593.000
347.175;   -4.675;  259.000;   27.000
347.309;  -79.900; -698.000; -628.000
347.442; -104.500; -883.000; -732.000
347.576;  240.225;  670.000;  668.000
347.709;  183.275; -123.000;  -52.000
347.843;  -95.925; -933.000; -825.000
347.976;   18.275;  235.000;  294.000
348.110; -175.775;-1268.000;-1186.000
348.243; -104.350; -679.000; -772.000
348.377;   -2.275;  -26.000;   60.000
348.510;   37.175;  403.000;  540.000
348.644;  -37.575;  -37.000; -159.000
348.777;  -10.375;  180.000;  191.000
348.911;  -60.000; -142.000; -112.000
349.044;  150.125;  471.000;  448.000
349.178;  130.100;-1069.000;-1006.000
349.311;  103.600;  141.000;  255.000
349.444;    3.225; -927.000; -813.000
349.578;  -12.775; -347.000; -200.000
349.711; -112.625; -959.000; -862.000
349.845;  -13.775; -661.000; -591.000
349.978; -144.775;-1224.000;-1137.000
350.111; -101.725; -546.000; -612.000
350.244;  -82.150; -596.000; -700.000
350.378;  -12.625; -392.000; -393.000
350.511;  -59.075; -393.000; -426.000
350.644; -112.725; -808.000; -806.000
350.778;    2.800;  168.000;  104.000
350.911;   -6.850;  134.000;  140.000
351.044;  -93.175; -685.000; -615.000
351.177;  -28.125; -321.000; -281.000
351.310;  -34.325;    3.000; -131.000
351.444;  -91.950; -888.000; -788.000
351.577;  108.450;  140.000;   90.000
351.710;   84.950;  593.000;  417.000
351.843;  -47.450; -165.000;  -77.000
351.976;  -18.450;  149.000;  -79.000
352.109; -101.650; -621.000; -612.000
352.242;  -40.350; -464.000; -419.000
352.376;  -63.325; -580.000; -636.000
352.509;  146.225; -437.000; -356.000
352.642;  -22.800; -654.000; -604.000
352.775;   49.100; -141.000;  -98.000
352.908; -110.775; -933.000; -904.000
353.041; -116.000; -814.000; -824.000
353.174;  -74.350; -551.000; -424.000
353.307;  -93.050; -753.000; -764.000
353.440;   69.025;  541.000;  453.000
353.573; -115.175; -957.000;-1008.000
353.706;  -56.500; -384.000; -558.000
353.839;  -33.475; -264.000; -220.000
353.971;  -98.825; -657.000; -512.000
354.104; -100.175; -896.000; -835.000
354.237;  -37.800; -627.000; -662.000
354.370;  -92.725; -846.000; -879.000
354.503; -179.450;-1231.000;-1308.000
354.636;  -43.975; -529.000; -348.000
354.769; -129.375; -937.000; -860.000
354.902;  -23.750; -230.000; -139.000
355.034;  -25.075; -164.000; -220.000
355.167;  -15.900; -262.000; -162.000
355.300;  -86.350;-1061.000; -880.000
355.433;  998.875;  -71.000;  -14.000
355.565; 1576.875; -402.000; -384.000
355.698;  391.375; -356.000; -296.000
355.831;   -5.725; -882.000; -801.000
355.964;   38.650; -285.000; -170.000
356.096;  -84.675; -856.000; -843.000
356.229;  -10.575; -523.000; -530.000
356.362;  321.250; -373.000; -266.000
356.494;  606.175; -229.000; -162.000
356.627;  448.575;  269.000;  377.000
356.760;  679.550;  120.000;   53.000
356.892; 1023.925; -286.000; -601.000
357.025;  598.725;  403.000;  389.000
357.157;  540.850; -167.000; -179.000
357.290;  737.750; -856.000; -713.000
357.423;  227.300; -667.000; -556.000
357.555;  103.925; -217.000; -228.000
357.688;  111.025; -483.000; -364.000
357.820;  425.750; -870.000; -877.000
357.953; 3599.425; -563.000; -589.000
358.085;  770.075; -632.000; -612.000
358.218;  965.175;-1131.000; -932.000
358.350;  180.550;  -58.000;  312.000
358.483; -135.950;-1300.000;-1187.000
358.615;  -46.925;-1182.000;-1078.000
358.747;  -66.525;-1187.000;-1058.000
358.880;   -2.975; -810.000; -744.000
359.012;  -10.275; -376.000; -202.000
359.145;  -45.250; -480.000; -511.000
359.277;   61.875; -962.000; -913.000
359.409; 2922.750;  536.000;  231.000
359.542;  766.525; -738.000; -688.000
359.674;   60.900;   46.000;   13.000
359.806;  -58.175; -565.000; -438.000
359.939;  -57.950; -617.000; -516.000
360.071;   -1.525; -583.000; -579.000
360.203;  -10.025; -411.000; -364.000
360.335;   43.000;  164.000;  -16.000
360.468;  161.875; -249.000; -307.000
360.600; 2385.300; -547.000; -454.000
360.732; 3031.200; -546.000; -423.000
360.864;  433.375;-1216.000;-1044.000
360.996;  234.250; -516.000; -554.000
361.129;   41.950; -389.000; -598.000
361.261;   -5.375;  110.000; -113.000
361.393;  -23.500; -252.000; -214.000
361.525;   20.400;   94.000;  244.000
361.657;  -50.600; -821.000; -703.000
361.789;    7.975; -139.000; -155.000
361.921;  183.725; -642.000; -593.000
362.053;  228.025;  524.000;  541.000
362.185;   37.625;  288.000;   72.000
362.318;  -92.275; -709.000; -705.000
362.450;   94.700;  294.000;  444.000
362.582;   55.475; -913.000; -870.000
362.714;  -34.900; -353.000; -332.000
362.846;  -90.325; -606.000; -490.000
362.978; -151.250; -941.000; -811.000
363.109;   22.000; -161.000; -260.000
363.241;  386.425; -739.000; -749.000
363.373;  429.350; -649.000; -564.000
363.505;  714.750; -186.000;  -91.000
363.637;  162.750; -787.000; -601.000
363.769; -123.475;-1067.000;-1080.000
363.901;  -73.750; -596.000; -654.000
364.033; -139.475;-1103.000;-1062.000
364.165;   -9.800; -283.000; -283.000
364.296;   67.425; -316.000; -177.000
364.428;   61.400;-1344.000;-1220.000
364.560;  -68.750; -679.000; -661.000
364.692;  -71.275; -738.000; -835.000
364.824;  204.450; -588.000; -456.000
364.955;  442.375; -402.000; -564.000
365.087; 1025.225;-1097.000; -852.000
365.219;   32.100; -686.000; -816.000
365.351;  -78.950; -526.000; -572.000
365.482;   41.400;  300.000;  240.000
365.614;  -49.350; -402.000; -314.000
365.746;  -97.975; -729.000; -752.000
365.877;  -96.650; -706.000; -672.000
366.009;  262.500;  -35.000;  -62.000
366.141;  -71.975;-1249.000;-1134.000
366.272; -117.450; -803.000; -719.000
366.404; -117.025;-1005.000; -874.000
366.535;  -31.225; -139.000;  -12.000
366.667; -105.700; -644.000; -649.000
366.799;   37.300;  353.000;  203.000
366.930; -124.050; -862.000; -996.000
367.062;  125.425; -639.000; -613.000
367.193;  182.900; -872.000; -842.000
367.325;  -68.475; -580.000; -684.000
367.456;   40.625; -246.000;   31.000
367.588;  156.100; -371.000; -318.000
367.719;   32.125;  -44.000;  -45.000
367.851;  -31.375; -222.000; -241.000
367.982;  -56.725; -875.000; -732.000
368.113;   68.000; -475.000; -358.000
368.245; -115.250; -960.000; -841.000
368.376;  -24.625; -254.000; -302.000
368.508;  -37.925; -188.000; -263.000
368.639; -146.275;-1166.000;-1034.000
368.770;  -36.975; -670.000; -589.000
368.902;  -68.850; -836.000; -926.000
369.033; -110.725; -906.000; -855.000
369.164;  -50.250; -720.000; -653.000
369.296; -110.050; -452.000; -601.000
369.427;  -16.600; -209.000; -144.000
369.558;  -82.425; -593.000; -377.000
369.689; -101.075; -721.000; -569.000
369.821; -131.650; -951.000; -845.000
369.952;  -21.025;   42.000; -108.000
370.083;  -44.625; -229.000; -108.000
370.214; -102.975; -735.000; -650.000
370.345;   -1.675;   65.000;   81.000
370.477;  -92.850; -810.000; -790.000
370.608;  198.125; -328.000; -264.000
370.739;  -60.500;-1233.000;-1292.000
370.870;  -45.000;-1102.000; -923.000
371.001;   62.475; -378.000; -467.000
371.132;  -79.300; -754.000; -735.000
371.263;  -27.750;  -42.000; -148.000
371.394; -129.900; -841.000; -748.000
371.525;   24.825;  345.000;  225.000
371.657;  -97.725; -808.000; -670.000
371.788;   57.525;  103.000;  199.000
371.919;  135.275; -384.000; -304.000
372.050; 3363.175;  -91.000; -156.000
372.181; 1068.425; -188.000; -294.000
372.311;  335.025;   42.000; -127.000
372.442;   19.700; -457.000; -451.000
372.573;  -26.475; -444.000; -340.000
372.704; -118.225;-1008.000; -980.000
372.835;   64.850; -228.000; -289.000
372.966;  -59.625; -646.000; -554.000
373.097;  -66.575; -575.000; -711.000
373.228;  -56.725; -717.000; -542.000
373.359;   91.125; -824.000; -536.000
373.490;  816.075; -881.000; -727.000
373.620; 1061.025;-1001.000; -803.000
373.751; 1589.275; -332.000; -396.000
373.882;  704.850; -663.000; -733.000
374.013;   50.375; -449.000; -262.000
374.143;  -56.450; -581.000; -659.000
374.274; -107.850; -987.000; -908.000
374.405;  150.475; -388.000; -276.000
374.536;  369.350; -526.000; -387.000
374.666;  982.075; -759.000; -807.000
374.797;  199.675; -817.000; -868.000
374.928;  742.000; -710.000; -560.000
375.058;  805.075; -535.000; -500.000
375.189;   68.200;  -59.000;  -93.000
375.320; -110.650; -928.000;-1034.000
375.450;  -57.350; -625.000; -616.000
375.581;  -59.725; -526.000; -436.000
375.712;  -32.800; -574.000; -250.000
375.842;  266.575; -438.000; -415.000
375.973;  176.200; -554.000; -513.000
376.103;  -59.900; -665.000; -648.000
376.234;  -89.000; -531.000; -552.000
376.364;  -40.275; -944.000; -867.000
376.495;  285.950;  925.000;  529.000
376.625;  -29.775; -472.000; -485.000
376.756;   33.575; -709.000; -678.000
376.886;  -87.275;-1178.000;-1026.000
377.017;   62.275;-1048.000;-1061.000
377.147;  388.825; -786.000; -782.000
377.278;   53.650;  174.000;  228.000
377.408; -131.275; -801.000; -815.000
377.538; -105.075; -707.000; -693.000
377.669;  -78.525; -537.000; -613.000
377.799;  -99.450; -645.000; -635.000
377.929;  -81.775; -610.000; -428.000
378.060; -137.575; -781.000; -847.000
378.190;  -75.975; -726.000; -531.000
378.320;  -49.775; -401.000; -406.000
378.451;  -22.300; -131.000;  -22.000
378.581;  -25.100;  -67.000; -110.000
378.711;  127.250; 1035.000;  866.000
378.841;  -26.975; -533.000; -675.000
378.972;  -89.675; -871.000; -751.000
379.102;  -29.425; -652.000; -579.000
379.232;  -24.150; -126.000;  -73.000
379.362; -106.850;-1001.000; -885.000
379.492;   -4.650; -373.000; -424.000
379.623;   73.950;    0.000;  111.000
379.753; -114.900;-1107.000; -974.000
379.883;  167.850;   59.000;  156.000
380.013;  -12.625;-1081.000;-1017.000
380.143; -122.625;-1097.000;-1056.000
380.273; -113.425; -985.000; -861.000
380.403;  -28.750; -344.000; -257.000
380.533;  -36.000; -651.000; -664.000
380.663;   53.575;  173.000;  128.000
380.793; -117.225;-1027.000;-1074.000
380.923;  -33.550; -103.000;  -34.000
381.053; -106.450; -613.000; -623.000
381.183;  -36.900; -106.000; -248.000
381.313;   19.000; -656.000; -470.000
381.443;   15.225; -692.000; -473.000
381.573;  153.400; -402.000; -409.000
381.703;  228.125;-1249.000;-1095.000
381.833; -146.350;-1454.000;-1336.000
381.963;   62.925; -134.000;  -87.000
382.093; 1303.150; -925.000; -909.000
382.223;  406.825; -713.000; -602.000
382.353;  -25.750; -801.000; -608.000
382.482;  290.900;-1091.000; -964.000
382.612;  672.525; -872.000; -644.000
382.742;  387.900; -695.000; -622.000
382.872;  218.150; -565.000; -551.000
383.002;   44.875;  347.000; -132.000
383.131;  -15.550; -226.000; -160.000
383.261;  -44.175; -706.000; -768.000
383.391;  300.200; -552.000; -377.000
383.521; 3412.650;  451.000;  263.000
383.650;  855.000; -947.000; -904.000
383.780;  -12.250; -783.000; -656.000
383.910;  101.550;  880.000;  802.000
384.039;   -7.425; -794.000; -656.000
384.169;  161.825;-1205.000;-1017.000
384.299;  -35.625; -650.000; -662.000
384.428;  -93.675; -764.000; -680.000
384.558;  -52.675; -308.000; -275.000
384.687;  -58.300; -414.000; -334.000
384.817;   -6.675;   75.000;   -2.000
384.947;    0.350; -234.000; -141.000
385.076;  249.375;  982.000;  912.000
385.206;   91.000;  369.000;  480.000
385.335;  -53.200; -549.000; -417.000
385.465;  -94.775; -655.000; -663.000
385.594;  108.650;  -53.000;  -44.000
385.724;  366.475; -868.000; -838.000
385.853;   81.400; -296.000; -270.000
385.982; 1193.875; -743.000; -787.000
386.112; 1995.925;-1052.000; -871.000
386.241;  130.750; -307.000; -312.000
386.371;    2.850; -174.000;  -87.000
386.500;   -7.350; -825.000; -789.000
386.629;   -1.850; -874.000; -817.000
386.759;   56.525;  -43.000;   68.000
386.888;  -22.275; -170.000; -250.000
387.017;  -95.600; -648.000; -620.000
387.147;  -98.525; -771.000; -798.000
387.276;  -12.125; -410.000; -397.000
387.405;  -17.400; -398.000; -342.000
387.535;  -55.650; -452.000; -361.000
387.664;  -81.900; -692.000; -620.000
387.793;   38.300; -198.000; -113.000
387.922;  444.825;  255.000;  200.000
388.052;   -3.250; -576.000; -423.000
388.181;  -15.200; -342.000; -472.000
388.310;  -45.075; -889.000; -710.000
388.439;  -71.300; -749.000; -742.000
388.568;  158.150;  365.000;  244.000
388.697;  916.875; -756.000; -653.000
388.826;  179.500; -768.000; -666.000
388.956;   35.600; -285.000; -307.000
389.085;  -42.525; -347.000; -287.000
389.214; -117.325; -842.000; -872.000
389.343;  -81.650; -645.000; -413.000
389.472;  400.700;  126.000;  149.000
389.601;  512.150;   91.000;    0.000
389.730;    3.275; -568.000; -687.000
389.859;   49.925;  226.000;   46.000
389.988;  140.500; -423.000; -408.000
390.117;  118.225; -168.000; -146.000
390.246;  -21.400; -331.000; -320.000
390.375;   74.600; -673.000; -626.000
390.504;  -62.675; -703.000; -621.000
390.633; -105.475; -672.000; -726.000
390.761;  -84.075; -732.000; -645.000
390.890;   10.375;   -4.000; -130.000
391.019;  -50.250; -421.000; -441.000
391.148; -138.825; -826.000; -855.000
391.277;  -73.800; -576.000; -493.000
391.406;  -92.925; -821.000; -805.000
391.534;   19.900;  574.000; -301.000
391.663;  -65.225; -583.000; -645.000
391.792; -119.400; -673.000; -701.000
391.921;   60.275;   -3.000;   15.000
392.050;  148.875; -287.000; -228.000
392.178;  -83.575;-1206.000;-1061.000
392.307;  105.525; -758.000; -712.000
392.436;   61.650; -427.000; -641.000
392.564;    8.425;  166.000;   -6.000
392.693;  -87.150; -860.000; -682.000
392.822;  148.650; -529.000; -534.000
392.950;   60.375; -880.000; -714.000
393.079;  277.875; -188.000; -328.000
393.208;   18.675; -488.000; -511.000
393.336;  -31.650; -170.000; -145.000
393.465;  -58.700; -317.000; -199.000
393.593;  -10.725;   62.000;   79.000
393.722; -154.675;-1121.000; -916.000
393.850;  -42.325; -188.000;  -61.000
393.979; -148.825; -926.000; -805.000
394.107;  -84.125; -517.000; -537.000
394.236;  -37.850; -570.000; -507.000
394.364;  188.925;  383.000;  206.000
394.493;  322.450; -911.000; -767.000
394.621;   -4.425; -955.000; -916.000
394.750;  720.550; -873.000; -923.000
394.878; 3063.450; -247.000; -149.000
395.007; 4281.500; -721.000; -807.000
395.135;  323.350; -790.000; -721.000
395.263;  -95.450;-1038.000;-1040.000
395.392;  -16.450;  -25.000; -107.000
395.520; -146.200; -818.000; -679.000
395.648;  -93.400; -865.000; -915.000
395.777;  -22.575; -366.000; -405.000
395.905;  -54.225; -449.000; -564.000
396.033;   19.150;  217.000;  172.000
396.162;  514.675; -399.000; -453.000
396.290;  482.900;  -17.000;   -2.000
396.418;   75.500; -555.000; -514.000
396.546;  -82.150; -571.000; -466.000
396.674; -109.325; -850.000; -878.000
396.803;  -14.025;  -72.000;  -23.000
396.931;   60.900; -179.000; -199.000
397.059;   22.800;-1026.000; -989.000
397.187; -119.500;-1026.000; -975.000
397.315; -129.400; -884.000; -649.000
397.443; -106.325; -592.000; -443.000
397.572;  -99.650; -578.000; -424.000
397.700;  -24.350; -607.000; -614.000
397.828;    9.500;  120.000;  -90.000
397.956;  -56.000; -508.000; -478.000
398.084;  -66.175; -767.000; -626.000
398.212;   21.800;  137.000;  124.000
398.340;    7.125;  -56.000;  159.000
398.468;   16.100; -390.000; -169.000
398.596; -141.000; -993.000; -953.000
398.724; -145.575; -762.000; -767.000
398.852; -146.225;-1024.000; -976.000
398.980;  -62.450; -560.000; -560.000
399.108;  -54.800; -982.000; -735.000
399.236;   19.550;   13.000;    8.000
399.363;   -8.700;  222.000;  196.000
399.491;  -72.225; -404.000; -398.000
399.619; -137.350; -829.000; -800.000
399.747; -122.100; -859.000; -771.000
399.875;   74.300;  220.000;  234.000
400.003;  -62.825; -359.000; -284.000
400.130;  -98.825; -421.000; -341.000
400.258;  -44.175;  -83.000;   38.000
400.386;  -66.425; -352.000; -168.000
400.514;  -65.450; -526.000; -587.000
400.641; -106.750; -928.000; -802.000
400.769; -154.400; -979.000; -888.000
400.897; -125.900; -838.000; -793.000
401.025;  -30.500; -166.000; -152.000
401.152;  -20.650;  220.000;   38.000
401.280;  -82.775; -430.000; -429.000
401.408; -117.125; -712.000; -576.000
401.535; -102.600; -735.000; -758.000
401.663; -195.650;-1134.000;-1054.000
401.790;  -93.500; -514.000; -525.000
401.918;   43.750;  436.000;  405.000
402.046;  -25.125;  134.000;  122.000
402.173;  -38.725;  -18.000;    7.000
402.301;  -78.425; -519.000; -397.000
402.428;   27.575;  528.000;  383.000
402.556; -153.500;-1188.000; -913.000
402.683;  -41.900;  -20.000;   -1.000
402.811;  -36.425;  -37.000; -206.000
402.938;  -15.200;   20.000;   27.000
403.066;  137.725; -574.000; -558.000
403.193;  293.725;  299.000;  239.000
403.321;  207.675; -396.000; -574.000
403.448;  274.000;   83.000;   27.000
403.575;  126.575;  -90.000;  -46.000
403.703; -110.175; -732.000; -557.000
403.830;  -67.100; -531.000; -496.000
403.957; -134.125;-1117.000;-1023.000
404.085;   -0.125;  -61.000; -172.000
404.212;  109.250;  -50.000;   63.000
404.339;  261.950; -566.000; -306.000
404.467; 5967.750; -612.000; -524.000
404.594; 4043.275; -287.000; -227.000
404.721;  899.275; -869.000; -764.000
404.848;   85.925; -113.000; -202.000
404.976;  -97.550; -856.000; -783.000
405.103;   -7.725;  -14.000;  -82.000
405.230;   -7.875;  190.000;  226.000
405.357;    4.425;  117.000;   44.000
405.484;  266.800;  -49.000;    5.000
405.612;   42.250; -548.000; -563.000
405.739;  -60.225; -488.000; -243.000
405.866;   57.975;  669.000;  385.000
405.993;  -52.225; -398.000; -102.000
406.120; -148.075; -801.000; -887.000
406.247;  -60.950; -323.000; -342.000
406.374;  368.200;  540.000;  629.000
406.501;   70.075; -632.000; -702.000
406.628;  -90.200; -621.000; -589.000
406.755; -104.275; -803.000; -620.000
406.882;  -55.400; -228.000; -277.000
407.009; -117.675; -719.000; -628.000
407.136;   15.675; -480.000; -401.000
407.263;   97.600; -939.000; -829.000
407.390;  -84.775; -692.000; -614.000
407.517; -176.500;-1139.000;-1187.000
407.644;  -71.225; -332.000; -256.000
407.771;  -66.800; -249.000; -287.000
407.898;   -3.450;  168.000;  328.000
408.025;  -73.775; -421.000; -313.000
408.151;  -19.625;   82.000;  153.000
408.278;  -75.800; -267.000; -216.000
408.405; -122.575; -931.000; -899.000
408.532;  -72.525; -549.000; -542.000
408.659; -116.925; -677.000; -648.000
408.785; -205.950;-1298.000;-1170.000
408.912;  -68.650; -412.000; -296.000
409.039; -125.850; -610.000; -686.000
409.166; -118.475; -591.000; -555.000
409.292; -118.575; -571.000; -534.000
409.419; -131.100; -665.000; -649.000
409.546;  -90.350; -431.000; -192.000
409.672; -124.425; -713.000; -545.000
409.799;  -30.750;  -36.000;   34.000
409.926;  -44.600; -180.000; -179.000
410.052; -181.525;-1127.000;-1091.000
410.179;  -67.500; -368.000; -392.000
410.305;  -88.150; -375.000; -493.000
410.432;  -58.575; -220.000; -333.000
410.558;  -90.450; -305.000; -380.000
410.685; -118.150; -688.000; -431.000
410.812; -100.075; -409.000; -588.000
410.938; -149.925; -964.000; -808.000
411.065; -108.875; -671.000; -645.000
411.191;  -32.750; -189.000; -174.000
411.317; -119.025; -823.000; -742.000
411.444;  -64.125; -317.000; -246.000
411.570;  -84.250; -339.000; -294.000
411.697; -134.325; -758.000; -752.000
411.823; -179.600; -989.000; -999.000
411.949;  -44.025;  -56.000;   17.000
412.076;  -98.950; -539.000; -519.000
412.202; -136.750; -758.000; -757.000
412.329; -134.100; -798.000; -752.000
412.455; -131.400; -821.000; -657.000
412.581;  -31.225;  -15.000;  172.000
412.707;  -68.700; -540.000; -457.000
412.834;    2.175;  156.000;  219.000
412.960; -104.950; -785.000; -784.000
413.086; -103.025; -743.000; -701.000
413.212;  105.450;  604.000;  578.000
413.339;  -81.125; -685.000; -701.000
413.465;   -8.850; -364.000; -310.000
413.591;  -92.075; -757.000; -474.000
413.717;  -58.575; -358.000; -366.000
413.843; -142.800; -839.000; -861.000
413.969;  -72.975;  -47.000; -292.000
414.096; -101.475; -679.000; -679.000
414.222;  -28.750;  -33.000;   85.000
414.348;  -41.125; -652.000; -385.000
414.474;   66.500;   38.000;  -52.000
414.600;  -26.650; -126.000; -144.000
414.726;   -9.025;  -96.000;  -55.000
414.852;  -52.750; -365.000; -342.000
414.978;   25.350;  104.000;  -18.000
415.104;   33.550;   38.000;   80.000
415.230;   16.250; -329.000; -330.000
415.356;   47.450; -409.000; -514.000
415.482;  198.950;   13.000;  -35.000
415.608;  288.450; -247.000; -323.000
415.734;  973.275;   67.000;   38.000
415.860;20308.000; -875.000; -767.000
415.986;15574.825; -685.000; -607.000
416.111; 1377.100; -798.000; -652.000
416.237;  272.175; -424.000; -571.000
416.363; 1141.750; -765.000; -733.000
416.489; 4480.950; -324.000; -251.000
416.615;  514.975; -707.000; -742.000
416.741;  -23.800; -677.000; -784.000
416.866;  -81.675; -673.000; -736.000
416.992; -119.050; -801.000; -818.000
417.118;  -38.375;  -41.000;  -80.000
417.244;  -73.925; -798.000; -531.000
417.369;  -79.425; -801.000; -612.000
417.495;   -9.600; -325.000; -254.000
417.621;  -77.925;-1015.000; -803.000
417.746;    5.550; -579.000; -572.000
417.872;   39.750; -254.000; -144.000
417.998;   59.300; -515.000; -530.000
418.123; 1086.725;-1073.000; -845.000
418.249; 5735.400; -512.000; -601.000
418.374;  855.175; -916.000; -824.000
418.500;  131.975; -383.000; -482.000
418.626;  118.875;   70.000;  -59.000
418.751;  125.875; -549.000; -448.000
418.877;  219.800; -637.000; -643.000
419.002; 1790.225; -688.000; -560.000
419.128;13278.000; -930.000; -721.000
419.253; 3488.750; -967.000; -837.000
419.379;  461.325; -391.000; -338.000
419.504;  411.200;  325.000;  415.000
419.629;  550.150; -393.000; -212.000
419.755; 3649.125; -317.000; -254.000
419.880;22792.850;  -98.000;   67.000
420.006;12054.600; -280.000; -221.000
420.131;31197.850; -662.000; -775.000
420.256; 4784.325; -315.000; -316.000
420.382;  593.175; -665.000; -687.000
420.507;   76.075; -649.000; -778.000
420.632;   95.275; -337.000; -339.000
420.758;  215.625; -251.000; -425.000
420.883;  -80.000; -876.000; -672.000
421.008;  -93.050; -775.000; -619.000
421.133;  -88.800; -509.000; -467.000
421.259;  -60.400; -325.000; -259.000
421.384; -126.100; -834.000; -693.000
421.509;  -62.800;-1052.000; -862.000
421.634;  945.700; -936.000; -820.000
421.759;  431.800; -359.000; -327.000
421.885;  -60.900; -717.000; -656.000
422.010;  -85.700; -673.000; -542.000
422.135; -152.275; -695.000; -727.000
422.260;   22.450;  340.000;  280.000
422.385;  -60.125;   12.000;  -98.000
422.510;  -10.800;  151.000;  -26.000
422.635;    6.625;  -87.000;  -43.000
422.760;   82.550; -766.000; -791.000
422.885;   51.600;  -57.000;  -80.000
423.010;  -38.125; -112.000; -169.000
423.135;  -90.550; -481.000; -561.000
423.260;  -22.775; -150.000; -245.000
423.385;   45.575;  476.000;  222.000
423.510;   21.650;   71.000;  -22.000
423.635;   63.250;  133.000;   45.000
423.760;   45.575;  383.000;  328.000
423.885;   67.150;  336.000;  391.000
424.010;   -3.950;  -68.000;  -13.000
424.135;  -22.175;    5.000;  -33.000
424.259;  -92.700; -654.000; -457.000
424.384;  -68.875; -279.000; -272.000
424.509;  -49.150; -260.000; -186.000
424.634;  -89.775; -761.000; -623.000
424.759;  -25.350; -688.000; -544.000
424.883;  -12.950; -506.000; -527.000
425.008;  152.550; -502.000; -410.000
425.133; 2090.200; -679.000; -653.000
425.258; 1035.225; -517.000; -381.000
425.382;  950.650; -867.000; -774.000
425.507; 2474.325; -487.000; -543.000
425.632;  449.925; -802.000; -663.000
425.756;  478.100; -256.000; -146.000
425.881; 6799.175; -831.000; -857.000
426.006;19640.925; -604.000; -355.000
426.130; 3195.375; -696.000; -508.000
426.255;  403.500; -611.000; -491.000
426.379;  186.450; -189.000; -577.000
426.504;  369.150;  660.000;  544.000
426.629; 4084.225; -519.000; -466.000
426.753; 2987.900;   64.000;  -46.000
426.878;  341.275; -252.000; -288.000
427.002;  175.550; -651.000; -668.000
427.127; 1572.750;  -35.000; -158.000
427.251;11965.775;  372.000;  401.000
427.375; 3660.700; -191.000; -173.000
427.500; 2144.275; -616.000; -610.000
427.624;  774.925; -234.000; -400.000
427.749;   71.325; -216.000; -225.000
427.873;  -36.525; -499.000; -412.000
427.997;  -46.225; -222.000; -230.000
428.122;   60.275;  795.000;  703.000
428.246;   54.825;  433.000;  434.000
428.371; -128.025; -869.000; -773.000
428.495; -107.250; -624.000; -646.000
428.619;  -38.075; -186.000; -117.000
428.743;   -1.950;   65.000;  132.000
428.868;   -2.800; -732.000; -643.000
428.992; 1265.625; -219.000; -326.000
429.116;  542.050; -329.000; -357.000
429.240;  233.925;  419.000;  426.000
429.365;  -20.550; -454.000; -574.000
429.489;  -39.750; -638.000; -647.000
429.613;    2.600; -236.000; -177.000
429.737;   23.825; -563.000; -432.000
429.861;  269.875; -247.000; -133.000
429.985; 5682.400; -425.000; -305.000
430.109; 6652.725; -770.000; -908.000
430.234;  798.425;   76.000;  -50.000
430.358;   69.075; -250.000; -160.000
430.482;  -84.775; -672.000; -564.000
430.606;  -64.925; -655.000; -375.000
430.730;  -26.150; -437.000; -388.000
430.854;   81.975; -909.000; -835.000
430.978;  -97.450; -795.000; -764.000
431.102;  -96.975; -499.000; -422.000
431.226; -131.875; -874.000; -815.000
431.350;    8.375;  345.000;  422.000
431.474;  -68.925; -661.000; -373.000
431.597; -159.575;-1060.000; -848.000
431.721;  -87.050; -276.000; -267.000
431.845; -130.625; -704.000; -472.000
431.969;  -83.725; -304.000; -349.000
432.093;  -89.150; -395.000; -317.000
432.217;  -28.200;   32.000;   82.000
432.341;  -75.650; -523.000; -518.000
432.464;   -7.225;   96.000;   40.000
432.588;  143.050; -401.000; -329.000
432.712;   68.600;  -52.000;  -52.000
432.836;   45.975;  213.000;  263.000
432.959;  -30.450; -372.000; -311.000
433.083;   78.650;   11.000;    2.000
433.207;  387.950;  285.000;  930.000
433.330; 5233.775; -391.000; -200.000
433.454; 6795.625; -654.000; -638.000
433.578; 3830.675;  583.000;  278.000
433.701;  741.725; -623.000; -675.000
433.825;  132.500; -292.000; -299.000
433.949;  130.050;   28.000;  -72.000
434.072;   39.700; -410.000; -323.000
434.196;  -20.350; -309.000; -117.000
434.319; 3645.475;25482.000;25124.000
434.443;  681.175; -656.000; -603.000
434.566; 2825.475;  281.000;   62.000
434.690;  493.850; -637.000; -383.000
434.813;   52.125; -251.000; -173.000
434.937;  -63.325; -569.000; -696.000
435.060;  -58.950; -423.000; -332.000
435.184;  209.825; -492.000; -217.000
435.307;  123.575;  159.000;  102.000
435.431;  -29.950;  -40.000;   24.000
435.554;  -90.475; -399.000; -240.000
435.677;  -96.000; -350.000; -258.000
435.801;  -40.175;  -25.000;   49.000
435.924;  -30.825;    1.000;  -67.000
436.048; -118.600;-1019.000; -732.000
436.171;  -73.875; -240.000;  -66.000
436.294;  -41.200; -248.000; -229.000
436.417;   79.150; -963.000; -849.000
436.541;  -81.900; -814.000; -840.000
436.664;  -66.525; -242.000; -316.000
436.787;  -32.550;   13.000;  113.000
436.910; -128.900; -792.000; -422.000
437.034;   -5.550;  142.000;  143.000
437.157;   21.525;  -11.000;    0.000
437.280;  -53.250; -392.000; -292.000
437.403; -103.825; -982.000; -869.000
437.526;  444.275; -903.000; -865.000
437.649; 1844.650; -505.000; -332.000
437.772;  272.675; -692.000; -540.000
437.896;   96.550;  700.000;  544.000
438.019; -107.575; -758.000; -503.000
438.142; -115.250; -596.000; -506.000
438.265;  -42.225; -639.000; -670.000
438.388;  438.875; -520.000; -410.000
438.511;   75.800; -597.000; -394.000
438.634;  -45.950; -247.000; -125.000
438.757; -135.625; -693.000; -619.000
438.880;  -40.050;  -34.000;  -57.000
439.003;  -82.150; -417.000; -437.000
439.126;  -79.400; -287.000; -167.000
439.248;  -70.000;  -98.000; -139.000
439.371;  -51.025;    9.000;  -53.000
439.494;   31.975;  510.000;  439.000
439.617;  -62.400;   65.000;  -88.000
439.740; -180.700; -968.000; -816.000
439.863; -139.775; -755.000; -595.000
439.986; -133.275; -476.000; -431.000
440.108;  -55.075; -161.000; -112.000
440.231; -166.625; -950.000; -836.000
440.354;  -50.650;  -64.000; -150.000
440.477;   11.275; -566.000; -542.000
440.599;  -28.325; -200.000; -225.000
440.722; -120.750; -709.000; -586.000
440.845;   60.675;  751.000;  928.000
440.968; -111.850; -415.000; -311.000
441.090;  -71.750; -199.000;  -33.000
441.213; -171.775;-1021.000; -825.000
441.336;  -68.025; -159.000;   -5.000
441.458;  -79.475; -549.000; -396.000
441.581;  -91.800; -628.000; -629.000
441.703;  -71.075; -152.000;   13.000
441.826; -116.825; -557.000; -400.000
441.948;  -55.775;   56.000;   51.000
442.071;   11.075;  555.000;  424.000
442.193; -108.150; -531.000; -485.000
442.316;   14.050;  152.000;   97.000
442.438;   39.550; -233.000;  -10.000
442.561;   63.250;  272.000;  262.000
442.683;  395.450; -809.000; -522.000
442.806;  948.725;   -8.000;   74.000
442.928;    2.275; -859.000; -604.000
443.051;  -83.825; -577.000; -373.000
443.173;  -96.775; -341.000; -339.000
443.295;  -98.700; -263.000; -371.000
443.418;  -79.325; -321.000;  -29.000
443.540;  -26.300; -106.000;   -4.000
443.662; -114.750; -563.000; -465.000
443.785;  -21.000;  335.000;  199.000
443.907; -100.525; -362.000; -208.000
444.029; -144.775; -767.000; -494.000
444.152; -149.200; -644.000; -554.000
444.274;  -57.225;  -18.000;  -24.000
444.396;  -99.775; -461.000; -221.000
444.518; -129.550; -691.000; -454.000
444.640; -106.050; -268.000; -111.000
444.763;  -17.500;  388.000;  249.000
444.885; -115.900; -432.000; -392.000
445.007;  -38.075;   35.000;   86.000
445.129; -107.450; -610.000; -515.000
445.251; -100.400; -372.000; -439.000
445.373; -144.625; -537.000; -386.000
445.495;    1.175;  242.000;  350.000
445.617;   54.050;  853.000;  753.000
445.739;  -85.325; -215.000;  -97.000
445.861;  -53.625; -245.000; -112.000
445.984;  -45.625; -267.000; -101.000
446.105;  139.225; -418.000; -251.000
446.227;  503.275; -176.000;  -19.000
446.349;  -14.475; -358.000; -249.000
446.471; -120.625; -615.000; -448.000
446.593;  -71.800; -316.000;   19.000
446.715;  -20.675;  -67.000;   41.000
446.837;   49.425;  697.000;  832.000
446.959; -105.700; -457.000; -478.000
447.081; -142.975; -628.000; -518.000
447.203;   42.300;  862.000;  834.000
447.325; -104.050; -270.000;   42.000
447.446;   -5.175;  286.000;  530.000
447.568; -145.425; -921.000; -803.000
447.690;  -88.075; -236.000; -245.000
447.812; -168.875; -798.000; -519.000
447.933;  -31.750;  155.000;  127.000
448.055;  -60.125; -306.000; -261.000
448.177;  118.775;   31.000;   79.000
448.299;   57.825; -935.000; -727.000
448.420;   27.250;  -25.000;  159.000
448.542;  -46.725;   -3.000;   33.000
448.664;  -28.125;  109.000;  322.000
448.785;  -44.825;  265.000;   83.000
448.907;  -89.850; -614.000; -353.000
449.028;  -36.275; -771.000; -471.000
449.150;   32.450;  492.000;  589.000
449.272; -180.350;-1044.000; -913.000
449.393;   17.600;  612.000;  694.000
449.515; -149.075; -634.000; -581.000
449.636;  -67.050; -264.000; -155.000
449.758;   69.025;  763.000;  622.000
449.879;  -99.675; -498.000; -396.000
450.001;  -80.725; -149.000;  -49.000
450.122;  -41.050;  -95.000;  162.000
450.244;  -26.600;   37.000;  364.000
450.365;  -91.525; -495.000; -301.000
450.486;  -40.475;   80.000;  268.000
450.608;   -1.125;  393.000;  326.000
450.729;   72.275;  578.000;  645.000
450.850;   20.100; -574.000; -466.000
450.972;  777.800; -552.000; -389.000
451.093; 5225.725;  190.000;  588.000
451.214; 2472.525; -516.000; -337.000
451.336;  419.700;  773.000;  579.000
451.457;   67.200;  264.000;  393.000
451.578;  -53.225; -118.000;  -74.000
451.699; -123.375; -546.000; -540.000
451.821;  -80.925; -284.000;  -50.000
451.942;   -0.425;  278.000;  285.000
452.063;   26.725;  228.000;  419.000
452.184;  559.500;  -54.000;  -49.000
452.305; 1164.500;  103.000;  170.000
452.427;  166.050; -549.000; -301.000
452.548;  -16.650;   23.000;   79.000
452.669;  -44.500; -257.000;  -89.000
452.790;  -46.375;    3.000;  -18.000
452.911;  -10.050;  195.000;  259.000
453.032;  -71.350; -289.000;  -60.000
453.153;  -46.000;  -29.000;   81.000
453.274;   59.725;  737.000;  868.000
453.395;  -49.775;  -51.000;  175.000
453.516;  113.125; 1317.000; 1388.000
453.637;  -72.850; -205.000; -150.000
453.758;  -67.350;   15.000;   69.000
453.879; -122.400; -462.000; -250.000
454.000;   56.900; 1086.000;  948.000
454.121; -117.600; -554.000; -326.000
454.242; -127.900; -599.000; -383.000
454.362;  -61.750;  -99.000;  114.000
454.483;  -33.775; -309.000; -229.000
454.604;   46.575;  512.000;  580.000
454.725; -122.400; -627.000; -555.000
454.846; -125.800; -474.000; -406.000
454.967;  -35.175;  230.000;  539.000
455.087;  -48.900;  179.000;  153.000
455.208;   20.650;  554.000;  856.000
455.329;  -66.425;  -22.000;   82.000
455.450;   41.125;  473.000;  633.000
455.570;  -69.825; -234.000; -211.000
455.691;  -55.450;  201.000;  407.000
455.812; -118.500; -270.000;  -92.000
455.932;  -71.875;  107.000;  -97.000
456.053;  -66.350;   36.000;   24.000
456.173; -114.825; -433.000; -355.000
456.294; -139.000; -476.000; -303.000
456.415;  -69.225;  -73.000;   70.000
456.535;  -55.750;  297.000;  273.000
456.656;  -46.650;  132.000;  240.000
456.776;  -62.175;    3.000;  298.000
456.897;  -14.400;  308.000;  513.000
457.017;  -77.975; -153.000;   -3.000
457.138; -123.825; -402.000; -249.000
457.258;  -31.450;  263.000;  224.000
457.379;  -12.200;  509.000;  521.000
457.499;  -34.700;  443.000;  432.000
457.620; -124.400; -407.000; -231.000
457.740; -102.725; -132.000;  -11.000
457.860;  -68.700;   87.000;   44.000
457.981;  -52.225;  132.000;  124.000
458.101;  -76.225;  -89.000;   40.000
458.221;  -18.600;  336.000;  402.000
458.342;  -59.775;   -4.000;  -37.000
458.462;   29.850;  617.000;  352.000
458.582;  -33.950; -302.000; -294.000
458.703;   13.625;  303.000;  154.000
458.823;  -40.275;   22.000;  163.000
458.943;   27.500;  341.000;  467.000
459.063;  -22.975; 1124.000;  192.000
459.183;  -24.650;  328.000;  313.000
459.304;    0.700;  315.000;  517.000
459.424;  -71.125; -246.000;  -89.000
459.544;  334.650;  388.000;  764.000
459.664;  884.200;  499.000;  506.000
459.784;  343.100; 1004.000; 1175.000
459.904;   59.275;  867.000;  744.000
460.024;   62.725;  867.000;  684.000
460.144;   -9.700;  449.000;  554.000
460.264;  -30.750;  515.000;  327.000
460.385;  -86.250; -145.000; -119.000
460.505;   31.600;  905.000;  858.000
460.625;  -95.450;  -17.000;  -68.000
460.745;  -17.300;  396.000;  541.000
460.864;  -44.625;  153.000;  469.000
460.984;    3.850;  499.000;  573.000
461.104;  125.850; 1656.000; 1775.000
461.224;   14.150;  657.000;  650.000
461.344;  -29.925;  431.000;  360.000
461.464;  -41.375;  258.000;  513.000
461.584;  -26.075;  283.000;  466.000
461.704;  -65.250;   58.000;  108.000
461.824;  -52.650;  238.000;  259.000
461.943;  -50.650;  191.000;  130.000
462.063;  -77.475;    2.000;  324.000
462.183;   23.300;  639.000;  717.000
462.303;   95.975; 1678.000; 1230.000
462.422;   24.875;  781.000;  840.000
462.542;  -36.450;  271.000;  391.000
462.662;   26.875;  353.000;  380.000
462.782;  247.575;  833.000;  572.000
462.901;  517.675;  545.000;  717.000
463.021;  294.300; 1702.000; 1638.000
463.141;   -5.150;  337.000;  770.000
463.260;  -12.025;  614.000;  474.000
463.380;   17.950;  902.000;  884.000
463.499;  -39.900;  342.000;  332.000
463.619;  -31.100;  581.000;  559.000
463.738;  116.825; 1644.000;  903.000
463.858;    3.425;  657.000;  811.000
463.978;  -24.250;  542.000;  396.000
464.097;   52.475;  921.000; 1114.000
464.217;  124.950; 1196.000; 1143.000
464.336;  120.725; 1068.000; 1130.000
464.455;  -31.350;  328.000;  659.000
464.575;   18.925;  597.000;  602.000
464.694;  157.000; 1204.000; 1179.000
464.814;  128.550; 1190.000; 1138.000
464.933;   74.000; 1095.000; 1027.000
465.052;   79.100; 1412.000; 1054.000
465.172;   79.975;  922.000;  799.000
465.291;  135.100; 1376.000; 1320.000
465.410;   24.125;  462.000;  735.000
465.530;   75.575; 1355.000; 1310.000
465.649;   59.950; 1209.000; 1273.000
465.768;  136.275; 1673.000; 1508.000
465.888;   52.125;  941.000; 1174.000
466.007;   81.000; 1335.000; 1440.000
466.126;  -10.175;  721.000;  641.000
466.245;   40.325; 1176.000; 1187.000
466.364;   23.550;  950.000; 1060.000
466.484;   52.775; 1024.000; 1213.000
466.603;   32.225; 1101.000; 1222.000
466.722;  100.850; 1490.000; 1769.000
466.841;   79.100; 1151.000; 1401.000
466.960;   27.725; 1069.000;  972.000
467.079;  131.550; 1971.000; 1786.000
467.198;   39.875; 1238.000; 1181.000
467.317;   95.850; 1768.000; 1162.000
467.436;   63.600; 1709.000; 1261.000
467.555;  117.000; 1796.000; 1746.000
467.674;   72.250; 1227.000; 1329.000
467.793;   52.700; 1376.000; 1374.000
467.912;   80.550; 1658.000; 1539.000
468.031;  141.900; 2038.000; 1930.000
468.150;  122.650; 1842.000; 1837.000
468.269;  177.875; 2313.000; 2090.000
468.388;  181.100; 2168.000; 2339.000
468.507;  245.825; 2884.000; 2903.000
468.626;  268.900; 2555.000; 2541.000
468.744;  132.625; 2018.000; 2174.000
468.863;  209.800; 2312.000; 2523.000
468.982;   86.675; 1503.000; 1555.000
469.101;  211.000; 2788.000; 2692.000
469.220;  162.475; 2333.000; 2176.000
469.338;  241.800; 2935.000; 3051.000
469.457;  191.200; 2719.000; 2545.000
469.576;  326.400; 3953.000; 3784.000
469.695;  234.575; 2877.000; 3066.000
469.813;  406.525; 4148.000; 4192.000
469.932;  398.950; 4255.000; 4485.000
470.051;  440.400; 4075.000; 4161.000
470.169;  860.250; 4470.000; 4338.000
470.288; 1550.350; 4700.000; 4809.000
470.406;  911.325; 5059.000; 5194.000
470.525;  631.150; 6101.000; 5787.000
470.644;  630.025; 6847.000; 6794.000
470.762;  806.000; 8397.000; 7873.000
470.881;  894.550; 8651.000; 8464.000
470.999; 1030.200; 9685.000; 9151.000
471.118; 1105.350;11174.000;10711.000

