
Integration time [ms]: 100.000
Averaging Nr. [scans]: 40
Smoothing Nr. [pixels]: 0
Data measured with spectrometer [name]: 2101012U2
Wave   ;Sample   ;Dark     ;Reference
[nm]   ;[counts] ;[counts] ;[counts] 

197.733;   57.525;  516.000;  404.000
197.879;  -89.300; -610.000; -634.000
198.025;  -48.850; -475.000; -420.000
198.171;  -71.400; -602.000; -612.000
198.317;  -35.900; -401.000; -316.000
198.463;  -64.400; -655.000; -404.000
198.609;   48.025;  181.000; -137.000
198.755;  -81.225; -644.000; -410.000
198.901;  -64.700; -505.000; -424.000
199.047;  -73.150; -615.000; -488.000
199.193;  -34.850; -230.000; -468.000
199.339;  -34.400; -222.000; -369.000
199.485;   51.450;  330.000;  271.000
199.631;    5.175;  227.000;  310.000
199.777;  -50.500; -466.000; -398.000
199.923;  -68.850; -610.000; -424.000
200.069;    1.325; -141.000;  -58.000
200.215;   56.675;  128.000;  453.000
200.361;   38.075;  243.000;  477.000
200.507;  -69.925; -600.000; -373.000
200.653;  -20.050; -371.000; -194.000
200.798;  -37.475; -215.000; -125.000
200.944;   -2.325; -146.000;  -41.000
201.090;   26.500;   61.000;  222.000
201.236;    7.000; -116.000; -158.000
201.382;  119.275;  874.000;  903.000
201.528;   17.000;  -58.000;  -48.000
201.674;  -68.400; -386.000; -293.000
201.819;  -60.875; -540.000; -439.000
201.965;  -95.575; -699.000; -447.000
202.111;  -16.750; -273.000; -226.000
202.257;  -44.375; -250.000; -238.000
202.402;   20.125;   13.000;  -36.000
202.548;  -42.700; -169.000; -116.000
202.694;   85.250;  410.000; -183.000
202.840;  -84.475; -603.000; -531.000
202.985;  -78.000; -681.000; -639.000
203.131; -124.100; -832.000; -666.000
203.277;  -16.700; -199.000; -262.000
203.423;  -62.475; -434.000; -520.000
203.568;  -27.775; -462.000; -237.000
203.714;  -63.400; -535.000; -542.000
203.860;  -90.175; -682.000; -641.000
204.005;   18.050;  112.000;  167.000
204.151;   76.750;  561.000;  556.000
204.296;  -47.400; -354.000; -221.000
204.442;  -75.725; -600.000; -547.000
204.588;  -84.500; -592.000; -579.000
204.733;   25.100;  178.000;  168.000
204.879; -144.100;-1018.000; -822.000
205.025;   14.550;  -99.000;  126.000
205.170;    0.025;  -17.000;   94.000
205.316;   75.000;  438.000;  661.000
205.461;  -96.400; -698.000; -554.000
205.607;   81.800;  609.000;  665.000
205.752;  -77.850; -626.000; -551.000
205.898;  -50.325; -501.000; -391.000
206.043;  -82.750; -578.000; -506.000
206.189;  -32.050; -243.000; -285.000
206.334;   75.300;  554.000;  606.000
206.480;   79.675;  409.000;  239.000
206.625;  -93.725; -529.000; -552.000
206.771;  -48.225; -451.000; -373.000
206.916;  -22.450; -210.000; -537.000
207.062;  -75.950; -545.000; -591.000
207.207;  -62.625; -546.000; -443.000
207.353;   58.150;  185.000;  460.000
207.498;   14.325;  196.000;   85.000
207.643;  -47.275; -501.000; -370.000
207.789; -141.200;-1069.000; -910.000
207.934;  -86.600; -665.000; -713.000
208.080;  -39.275; -154.000;   66.000
208.225;   -0.350;  -22.000;  -57.000
208.370;  -88.825; -727.000; -619.000
208.516;  -66.950; -741.000; -487.000
208.661;  -36.450; -127.000;  -69.000
208.806;  -20.575; -165.000; -171.000
208.952; -141.400;-1044.000; -731.000
209.097;   67.325;  378.000;  349.000
209.242;  -56.500; -307.000; -382.000
209.387;   69.350;  392.000;  350.000
209.533;  -58.225; -321.000; -350.000
209.678;   95.775;  472.000;  543.000
209.823;  -47.475; -408.000; -310.000
209.969;  -88.775; -860.000; -757.000
210.114; -112.575; -907.000; -719.000
210.259; -110.725; -939.000; -889.000
210.404;  -21.400; -171.000;  103.000
210.549;   16.650;  108.000;    3.000
210.695;  -25.125;   -3.000;  -95.000
210.840;   34.050;   94.000;   67.000
210.985;  -71.450; -484.000; -303.000
211.130;   70.775;  268.000;  406.000
211.275;   15.450;  207.000;  199.000
211.420;  -40.800; -300.000; -289.000
211.566;  -78.075; -536.000; -489.000
211.711;   29.025;  218.000;  157.000
211.856;  -82.000; -545.000; -519.000
212.001;   11.650;  151.000;   44.000
212.146;   16.000;  153.000;   49.000
212.291;  -17.275; -210.000; -186.000
212.436;  -29.075; -280.000;   -6.000
212.581;  -79.850; -685.000; -653.000
212.726;  -84.850; -487.000; -538.000
212.871;  -55.975; -552.000; -217.000
213.016; -161.975;-1172.000;-1029.000
213.161;   61.950;  406.000;  291.000
213.306;  -76.400; -435.000; -577.000
213.451;  -83.800; -778.000; -689.000
213.596;  -47.075; -455.000; -347.000
213.741;  -58.025; -448.000; -538.000
213.886; -100.400; -498.000; -517.000
214.031;  -23.150; -294.000; -124.000
214.176;  -58.700; -408.000; -341.000
214.321;  -14.000; -296.000; -157.000
214.466;  -40.600; -163.000;  -43.000
214.611;   -3.150;  -61.000;  -10.000
214.756; -117.750; -948.000; -858.000
214.901;  -29.725; -388.000; -226.000
215.046; -117.400; -797.000; -825.000
215.191;   20.825;  128.000;   35.000
215.336;  -18.675; -157.000;  -19.000
215.480;  -65.675; -684.000; -505.000
215.625;  -28.675; -175.000;  -19.000
215.770;  -91.600; -757.000; -662.000
215.915;  -15.775;   -5.000;  -97.000
216.060;    9.250; -113.000;  -21.000
216.205; -122.925; -731.000; -779.000
216.349;  -66.450; -470.000; -533.000
216.494; -151.875; -939.000; -867.000
216.639; -106.525; -823.000; -888.000
216.784;  -93.125; -577.000; -525.000
216.929;   67.025;  392.000;  281.000
217.073;  -19.250; -244.000;  -31.000
217.218;    8.525;   78.000;  -47.000
217.363; -102.575; -656.000; -618.000
217.507;  -80.450; -623.000; -588.000
217.652; -125.700; -845.000; -874.000
217.797;  -83.550; -708.000; -659.000
217.942; -124.000; -856.000; -720.000
218.086;   86.025;  608.000;  539.000
218.231;  -23.650; -174.000;  -26.000
218.376;  -38.475; -337.000; -229.000
218.520;   -7.650;  -41.000;   96.000
218.665;  -30.625; -338.000; -204.000
218.810;  -52.350; -275.000; -233.000
218.954;   33.675;  201.000;   35.000
219.099; -126.250; -713.000; -963.000
219.243;  -73.425; -589.000; -554.000
219.388;  -25.775; -264.000; -136.000
219.532;    0.475; -116.000; -116.000
219.677;  -74.975; -564.000; -521.000
219.822;   16.750;   33.000;   89.000
219.966;   -4.875;   17.000;  -99.000
220.111;  -30.000; -328.000;  -40.000
220.255;  -94.025; -797.000; -750.000
220.400;  -22.650; -180.000; -146.000
220.544;  -84.650; -516.000; -450.000
220.689;  -59.200; -422.000; -451.000
220.833;  -29.925; -123.000;  -58.000
220.978;  -52.225; -393.000; -563.000
221.122;   18.600;  319.000;  307.000
221.267; -103.975; -906.000; -837.000
221.411;  -68.400; -478.000; -394.000
221.555;  -16.725; -104.000;  -23.000
221.700;  -58.075; -329.000; -222.000
221.844;   48.325;  255.000;  272.000
221.989;  -43.625; -328.000; -311.000
222.133;  -40.525; -289.000; -307.000
222.277;  -16.875;    5.000;   78.000
222.422;    9.675;  227.000;  113.000
222.566;  -41.700; -381.000; -214.000
222.711;  -52.125; -414.000; -479.000
222.855;  -91.950; -643.000; -586.000
222.999;  -88.875; -642.000; -717.000
223.144;  -50.000; -195.000; -194.000
223.288;   63.675;  423.000;  251.000
223.432;   32.325;  184.000;  230.000
223.576;   22.925;  152.000;  -21.000
223.721;   32.950;  364.000;  273.000
223.865;  -54.475; -472.000; -475.000
224.009;  237.975; 1673.000; 1631.000
224.153;  -69.325; -660.000; -671.000
224.298;  -74.350; -531.000; -489.000
224.442;   -1.900;  -74.000;  -33.000
224.586;  -21.925; -169.000; -106.000
224.730;  -91.775; -858.000; -670.000
224.875; -116.900; -739.000; -688.000
225.019;   21.375;  102.000;  188.000
225.163;   53.300;  208.000;  341.000
225.307;   12.900;   97.000;  -91.000
225.451;   52.600;  360.000;  481.000
225.595;   29.700;  264.000;  176.000
225.739;   -8.475; -170.000;  -94.000
225.884;   15.250;   86.000;    5.000
226.028;  -97.775; -760.000; -626.000
226.172;  -23.425; -260.000; -273.000
226.316; -121.225; -941.000; -902.000
226.460;  -59.875; -645.000; -493.000
226.604;  -64.250; -406.000; -400.000
226.748;  -86.575; -836.000; -733.000
226.892;  -41.675; -227.000; -181.000
227.036;  -41.300; -537.000; -447.000
227.180;  -76.700; -551.000; -375.000
227.324;  -65.225; -561.000; -580.000
227.468; -113.775; -819.000; -717.000
227.612;   23.225;  242.000;  -28.000
227.756; -105.750; -845.000; -698.000
227.900;   40.375;  342.000;  441.000
228.044;  -74.350; -509.000; -290.000
228.188;   67.700;  448.000;  568.000
228.332; -106.725; -546.000; -472.000
228.476;  -32.100; -223.000; -149.000
228.620;  -39.225; -210.000; -150.000
228.764;   86.550;  431.000;  349.000
228.908;  -23.725; -155.000;   30.000
229.052;  -51.550; -615.000; -528.000
229.195;  -25.075; -172.000;   13.000
229.339;   -7.500; -235.000; -305.000
229.483;  -24.475;    5.000; -162.000
229.627;   -0.450; -156.000;  139.000
229.771;  -56.275; -218.000; -294.000
229.915;   15.400;  230.000;   79.000
230.059; -103.650; -648.000; -663.000
230.202;  -38.600; -370.000; -317.000
230.346;  -18.575; -107.000;  107.000
230.490;  -65.900; -489.000; -521.000
230.634; -113.375; -736.000; -553.000
230.777;   87.875;  478.000;  509.000
230.921;  -64.175; -450.000; -359.000
231.065;  -39.150; -246.000; -286.000
231.209;   14.175;  261.000;  265.000
231.352;   24.700;   54.000;   40.000
231.496;    9.850;  568.000;  188.000
231.640;  -91.600; -693.000; -621.000
231.783;   51.825;  546.000;  525.000
231.927;  -33.625; -294.000; -365.000
232.071; -135.675; -962.000; -736.000
232.214; -113.275; -980.000; -764.000
232.358; -104.775; -683.000; -599.000
232.502;    5.025;  -19.000;    7.000
232.645; -159.025;-1090.000; -927.000
232.789;  -11.625; -257.000; -218.000
232.933;  -59.625; -407.000; -224.000
233.076; -130.425;-1038.000; -897.000
233.220; -114.800; -752.000; -777.000
233.363;  -71.275; -669.000; -477.000
233.507;   54.025;  371.000;  129.000
233.650; -100.450; -764.000; -834.000
233.794;   46.125;  438.000;  461.000
233.938;  -52.250; -530.000; -362.000
234.081;  -30.175;  -93.000;   31.000
234.225;  -53.225; -631.000; -539.000
234.368; -116.700; -773.000; -723.000
234.512;  -31.625; -385.000; -299.000
234.655;  -87.850; -582.000; -555.000
234.798;  -68.675; -493.000; -466.000
234.942; -133.475; -884.000;-1002.000
235.085;  -71.625; -651.000; -443.000
235.229;  -86.625; -405.000; -410.000
235.372;  -31.900; -247.000; -191.000
235.516;  -67.150; -397.000; -321.000
235.659;   12.100;   92.000;  121.000
235.802;  -23.950;  -38.000;  -22.000
235.946;   28.300;  335.000;  215.000
236.089;   17.200;  126.000;  250.000
236.233;   57.250;  275.000;  298.000
236.376;  -54.275; -235.000; -378.000
236.519;  -43.750; -297.000; -319.000
236.663;  -33.050; -215.000; -117.000
236.806; -127.950;-1029.000; -999.000
236.949;   42.450;  543.000;  431.000
237.092;   68.675;  412.000;  391.000
237.236; -102.175; -589.000; -502.000
237.379;   67.100;  352.000;  428.000
237.522; -135.500; -879.000; -768.000
237.666;   -8.200; -271.000;   18.000
237.809; -129.625; -851.000; -823.000
237.952;   42.275;  469.000;  271.000
238.095;  -78.450; -447.000; -442.000
238.238;   88.975;  688.000;  700.000
238.382;   -9.750;  166.000;  103.000
238.525;  -75.025; -598.000; -511.000
238.668; -135.925;-1060.000; -985.000
238.811;  -83.725; -638.000; -643.000
238.954;  -78.950; -483.000; -334.000
239.097;   90.750;  617.000;  664.000
239.241;   31.750;  394.000;  326.000
239.384;  -28.100; -254.000; -214.000
239.527;  -57.975; -424.000; -224.000
239.670; -145.400; -994.000;-1091.000
239.813; -112.200; -696.000; -658.000
239.956;   89.225;  579.000;  473.000
240.099; -117.150; -778.000; -725.000
240.242;   63.125;  428.000;  432.000
240.385;   42.025;  466.000;  450.000
240.528;  -85.900; -706.000; -473.000
240.671;   16.925;  189.000;  134.000
240.814;  -36.925; -441.000; -158.000
240.957; -115.625; -767.000; -578.000
241.100;  -97.375; -779.000; -755.000
241.243; -154.750;-1234.000; -893.000
241.386;  -60.850; -508.000; -379.000
241.529; -101.475; -735.000; -547.000
241.672;  -57.225; -566.000; -495.000
241.815; -130.900; -832.000; -808.000
241.958;  -25.575; -125.000; -182.000
242.101;  -97.675; -545.000; -390.000
242.244;  -36.025; -270.000; -325.000
242.387;  -48.375; -304.000; -246.000
242.530;   53.050;  470.000;  134.000
242.673;  -51.075; -381.000; -309.000
242.815; -113.000; -925.000; -899.000
242.958;  -70.950; -482.000; -381.000
243.101;    4.250;  132.000;  187.000
243.244;  -88.850; -564.000; -521.000
243.387;  -44.675; -313.000; -316.000
243.530; -106.000; -657.000; -674.000
243.672;   11.050;   43.000;  -92.000
243.815;  -58.100; -355.000; -283.000
243.958;   -6.500;   98.000;  -26.000
244.101;   -1.025;   59.000;  -16.000
244.243;   -7.850;  -47.000;  101.000
244.386; -128.475; -761.000; -630.000
244.529;  -33.975; -132.000; -139.000
244.672; -153.600;-1154.000; -951.000
244.814;  -98.825; -621.000; -794.000
244.957;  -50.200; -380.000; -304.000
245.100;  -66.250; -489.000; -489.000
245.242;  -64.700; -387.000; -374.000
245.385;   -3.325;  -59.000;  -39.000
245.528; -125.650; -871.000; -705.000
245.670;  100.325;  612.000;  634.000
245.813;  -91.500; -599.000; -547.000
245.956;  -35.975; -324.000; -275.000
246.098;  -78.250; -508.000; -650.000
246.241;    9.125;  194.000;   48.000
246.383;  -15.300; -119.000;  -73.000
246.526;  -75.225; -454.000; -525.000
246.669; -129.850; -889.000; -780.000
246.811;   23.850;  172.000;   -1.000
246.954;  -77.775; -512.000; -426.000
247.096;  -29.150;  -84.000;   -6.000
247.239;  -82.925; -482.000; -445.000
247.381;  -74.450; -647.000; -488.000
247.524;   84.275;  645.000;  679.000
247.666;   -9.750;   58.000;   11.000
247.809; -124.550; -887.000; -691.000
247.951;   -7.450;  -75.000;  138.000
248.094;   35.375;  432.000;  308.000
248.236; -154.350;-1262.000;-1238.000
248.378;   14.725; -356.000;  -81.000
248.521;  -12.525; -334.000; -337.000
248.663;  -41.500; -236.000; -267.000
248.806;  -17.675; -300.000; -266.000
248.948; -103.375; -886.000; -763.000
249.090;  -45.225; -428.000; -398.000
249.233;  -47.475; -344.000; -381.000
249.375;  -59.075; -474.000; -451.000
249.518;  -30.025;  -83.000; -133.000
249.660;    3.375; -103.000;    3.000
249.802; -179.275;-1303.000;-1189.000
249.945;  -63.550; -612.000; -540.000
250.087; -128.350; -834.000; -768.000
250.229;  -49.850; -362.000; -480.000
250.371;  -88.525; -494.000; -439.000
250.514;  -48.425; -310.000; -244.000
250.656;  -10.325;   69.000;  102.000
250.798; -118.825; -849.000; -800.000
250.940;  -64.050; -322.000; -322.000
251.083;  -21.925; -335.000; -111.000
251.225;   37.925;  338.000;  310.000
251.367;  -25.550; -274.000; -373.000
251.509;  -30.875; -265.000; -210.000
251.651;  -97.700; -731.000; -671.000
251.794;   75.600;  538.000;  632.000
251.936; -110.400; -821.000; -747.000
252.078;  -78.050; -540.000; -461.000
252.220;  -65.525; -645.000; -477.000
252.362;  102.700;  344.000;  462.000
252.504;  -61.200; -677.000; -584.000
252.646; -121.400; -875.000; -722.000
252.788;    6.350;   14.000; -128.000
252.931;  -46.150; -257.000; -253.000
253.073;  -44.475; -376.000; -317.000
253.215;  -12.825;  141.000;  122.000
253.357;  -14.625;   82.000; -153.000
253.499;  -65.175; -374.000; -234.000
253.641;  -83.425; -749.000; -594.000
253.783; -103.125; -609.000; -527.000
253.925;  -86.000; -586.000; -591.000
254.067; -112.475; -744.000; -667.000
254.209;  -20.100; -391.000; -259.000
254.351; -149.050; -865.000; -883.000
254.493;  -65.450; -441.000; -417.000
254.635; -141.750; -936.000; -818.000
254.777;  -78.375; -752.000; -687.000
254.918;  -78.300; -512.000; -430.000
255.060;  -45.825; -551.000; -395.000
255.202;  -74.500; -473.000; -261.000
255.344;  -77.825; -658.000; -455.000
255.486;  -86.750; -471.000; -406.000
255.628;  -98.900; -780.000; -781.000
255.770;  -91.325; -676.000; -536.000
255.912;  -62.450; -559.000; -468.000
256.053;  -90.600; -730.000; -508.000
256.195;  177.175; 1008.000;  903.000
256.337; -107.975; -861.000; -595.000
256.479;   62.625;  532.000;  416.000
256.621;  -52.400; -394.000; -212.000
256.762; -104.150; -789.000; -742.000
256.904;   44.700;  485.000;  487.000
257.046;  -34.025; -381.000; -271.000
257.188;  -61.300; -351.000; -264.000
257.329;  -72.175; -525.000; -464.000
257.471; -131.450; -939.000; -807.000
257.613;  -71.825; -584.000; -498.000
257.755; -152.050;-1073.000; -982.000
257.896;   30.225;  286.000;  392.000
258.038;  -74.850; -403.000; -352.000
258.180;  -28.525; -354.000; -279.000
258.321;  -89.425; -581.000; -457.000
258.463;   13.525;  -71.000;  133.000
258.605;  -99.775; -562.000; -570.000
258.746;  -94.650; -886.000; -772.000
258.888; -158.000;-1026.000;-1020.000
259.029;   22.500;  121.000;   -8.000
259.171; -103.900; -614.000; -550.000
259.313;   -2.750;  -49.000;  -47.000
259.454;  -78.725; -536.000; -414.000
259.596;  -43.725; -483.000; -390.000
259.737;  -83.325; -590.000; -474.000
259.879;   33.625;  217.000;  311.000
260.020;   92.175;  901.000;  636.000
260.162;  -37.525; -146.000; -253.000
260.303; -124.750; -768.000; -687.000
260.445;  -75.325; -609.000; -613.000
260.586;   17.225;  392.000;  157.000
260.728;  -41.075; -360.000; -248.000
260.869; -132.825; -350.000; -343.000
261.011;   97.825;  706.000;  537.000
261.152;  -64.525; -479.000; -319.000
261.293;  -78.125; -576.000; -595.000
261.435;  -49.300; -219.000; -184.000
261.576;  -41.025; -455.000; -325.000
261.718;   49.100;  420.000;  470.000
261.859; -124.525; -940.000; -949.000
262.000; -136.175; -951.000;-1016.000
262.142;  -16.625;  -52.000;  -60.000
262.283; -122.250; -808.000; -691.000
262.424;  -78.600; -666.000; -625.000
262.566; -158.925;-1161.000; -983.000
262.707; -111.075; -840.000; -830.000
262.848; -121.775; -769.000; -726.000
262.990;  -51.650; -362.000; -345.000
263.131;   77.750;  650.000;  681.000
263.272;   -3.150;  -61.000;  -41.000
263.413;  -94.425; -589.000; -561.000
263.555;  -74.050; -669.000; -143.000
263.696;  -93.700; -550.000; -641.000
263.837;  -53.225; -449.000; -551.000
263.978;  -23.650;   -5.000;  -77.000
264.119;  -34.950; -283.000; -264.000
264.261; -123.000; -847.000; -630.000
264.402;   -3.800;   33.000;   40.000
264.543;  -93.025; -509.000; -524.000
264.684;  -10.500;   61.000;  -50.000
264.825;  -87.175; -816.000; -538.000
264.966;    3.825;  -84.000;  -67.000
265.107; -122.950; -646.000; -670.000
265.248; -119.975; -825.000; -812.000
265.390;  -17.775;  152.000;   -9.000
265.531;  -12.675; -238.000; -107.000
265.672; -106.000; -557.000; -630.000
265.813;   64.225;  563.000;  439.000
265.954; -157.675; -959.000; -940.000
266.095;  -12.475; -372.000; -322.000
266.236; -107.125; -686.000; -548.000
266.377;  -38.825; -243.000; -297.000
266.518;  -93.825; -619.000; -547.000
266.659;   26.050;  170.000;  268.000
266.800;   -3.100;   83.000;   85.000
266.941;  -86.600; -487.000; -478.000
267.082;   15.850;  354.000;   99.000
267.223;  -49.900; -344.000; -273.000
267.364; -133.825; -892.000; -686.000
267.504;  -11.800;    3.000;  135.000
267.645;   -9.175;  160.000;   67.000
267.786;  -29.650; -147.000;  -86.000
267.927;  -71.125; -473.000; -379.000
268.068;  -16.250; -186.000;  -61.000
268.209;  -47.600; -175.000; -413.000
268.350;  -51.700; -388.000; -532.000
268.490;  -81.250; -648.000; -521.000
268.631;   35.525;  127.000;  225.000
268.772; -130.575; -874.000; -647.000
268.913;  -34.700; -328.000; -476.000
269.054;  -13.100; -117.000;   12.000
269.194;  -53.875; -418.000; -402.000
269.335; -163.300;-1137.000;-1074.000
269.476;  -10.900;   33.000;  -35.000
269.617;  -56.000; -347.000; -392.000
269.757;  -83.225; -713.000; -646.000
269.898; -111.475; -856.000; -613.000
270.039;  -53.675; -415.000; -405.000
270.180; -154.150; -952.000; -816.000
270.320;  -29.000; -190.000; -250.000
270.461;  -46.975; -277.000; -249.000
270.602;   -2.150; -186.000; -156.000
270.742; -126.625; -868.000; -943.000
270.883;  -56.025; -442.000; -390.000
271.023;  -57.125; -358.000; -357.000
271.164;  -74.125; -607.000; -528.000
271.305;  -96.050; -666.000; -654.000
271.445;  -90.675; -722.000; -683.000
271.586;  -75.950; -462.000; -283.000
271.726;  -35.175; -397.000; -322.000
271.867;  -72.275; -594.000; -534.000
272.008;  209.050; -473.000; -285.000
272.148;  125.575;  462.000;  468.000
272.289;   28.650; -113.000; -181.000
272.429;    9.450;   19.000;  185.000
272.570;  -77.300; -633.000; -737.000
272.710; -110.025; -825.000; -775.000
272.851;  -13.925;  113.000; -130.000
272.991; -182.525;-1173.000;-1077.000
273.131;  -58.075; -419.000; -459.000
273.272;  -85.175; -683.000; -723.000
273.412;   34.325; -143.000;  -31.000
273.553;  -56.000; -488.000; -507.000
273.693;  133.700;  913.000;  858.000
273.834;  -81.775; -894.000; -692.000
273.974;  -62.250; -664.000; -615.000
274.114; -103.375; -772.000; -560.000
274.255;   88.600;  414.000;  373.000
274.395;   27.325; -180.000; -125.000
274.535;   57.650;  199.000;  350.000
274.676;   17.575;  225.000;   94.000
274.816;    8.125;  110.000;   34.000
274.956;  -84.750; -624.000; -690.000
275.097;  -42.400;-1014.000; -922.000
275.237; -111.950; -913.000; -803.000
275.377;  -93.875; -778.000; -689.000
275.517; -145.550; -878.000; -937.000
275.658;  -47.725; -590.000; -555.000
275.798;  -67.075; -606.000; -413.000
275.938;   32.375;  215.000;  323.000
276.078; -103.375; -626.000; -395.000
276.218;    1.400;   99.000;  104.000
276.359; -142.650;-1026.000;-1024.000
276.499;  -66.450; -605.000; -446.000
276.639;  -28.625; -305.000; -151.000
276.779;  -39.775; -475.000; -357.000
276.919; -104.550; -783.000; -624.000
277.059;  -20.800; -261.000; -212.000
277.199;  -42.375; -357.000; -259.000
277.340;   60.175;  287.000;  175.000
277.480; -122.575; -840.000; -693.000
277.620;   38.575;  192.000;   16.000
277.760; -213.925;-1533.000;-1294.000
277.900;   32.500;  113.000;   33.000
278.040;   18.900;  137.000;  159.000
278.180;   54.425;  270.000;  170.000
278.320;   -0.625;   21.000;   56.000
278.460;  -69.975; -443.000; -469.000
278.600;  -99.650; -708.000; -598.000
278.740;   62.275;  448.000;  224.000
278.880;  -36.050; -768.000; -791.000
279.020;   15.775; -194.000; -144.000
279.160;  -99.950; -672.000; -595.000
279.300; -121.075; -926.000; -873.000
279.440;  -84.775; -709.000; -622.000
279.579;   -7.325;-1014.000; -929.000
279.719;  -59.325; -410.000; -394.000
279.859;   84.025;   -4.000;   41.000
279.999;   47.300; -208.000;  101.000
280.139;   -7.725; -435.000; -387.000
280.279;  -81.550; -708.000; -745.000
280.419;   -6.475; -229.000; -147.000
280.559;  -27.975; -259.000; -180.000
280.698;  -67.050; -790.000; -639.000
280.838;  -78.800; -778.000; -800.000
280.978;  -98.175; -846.000; -790.000
281.118; -119.775; -811.000; -704.000
281.257;   16.700;   24.000;    6.000
281.397;  -93.675;-1094.000; -960.000
281.537;  -77.725; -599.000; -712.000
281.677;  -39.725; -150.000; -101.000
281.816;  -85.250; -700.000; -630.000
281.956;  -31.825; -193.000; -257.000
282.096;  -60.875; -539.000; -396.000
282.235; -116.025; -672.000; -638.000
282.375;  -12.775; -243.000;  -98.000
282.515; -101.700; -715.000; -707.000
282.654;   38.975;   29.000;  106.000
282.794;   23.800;  388.000;  244.000
282.934;  -56.600; -530.000; -491.000
283.073; -139.925;-1030.000; -857.000
283.213;  -44.100; -460.000; -467.000
283.353;  -21.625; -408.000; -349.000
283.492;  -30.875; -264.000; -296.000
283.632;  -29.950; -254.000; -168.000
283.771;  -95.700; -859.000; -730.000
283.911;  -39.525; -369.000; -260.000
284.050; -108.700; -794.000; -748.000
284.190; -175.425;-1229.000;-1096.000
284.329; -140.900;-1055.000; -964.000
284.469;  -53.000; -516.000; -591.000
284.608;  -48.450; -559.000; -598.000
284.748;  -93.675; -614.000; -570.000
284.887;   -4.675;  -87.000;  -20.000
285.027; -138.100; -844.000; -892.000
285.166;  -29.250; -192.000; -249.000
285.306;   10.025; -116.000;  -33.000
285.445;  -33.300; -229.000; -343.000
285.584;  -91.475; -630.000; -494.000
285.724;  -23.400; -282.000; -322.000
285.863; -120.975; -857.000; -507.000
286.002;  -42.750; -366.000; -276.000
286.142; -117.450; -715.000; -622.000
286.281;  -69.000; -525.000; -493.000
286.420;  -73.825; -554.000; -417.000
286.560;  109.950;  653.000;  623.000
286.699; -140.950; -958.000; -912.000
286.838;  -73.375; -590.000; -591.000
286.978;  -96.450; -533.000; -537.000
287.117; -127.250;-1085.000; -950.000
287.256;  -33.325; -228.000; -211.000
287.395;  -41.625; -197.000; -378.000
287.535;  -52.750; -370.000; -298.000
287.674;  -67.125; -509.000; -484.000
287.813;   51.225;  661.000;  533.000
287.952; -120.325;-1010.000; -871.000
288.091; -145.300;-1049.000; -915.000
288.231;    9.175;   13.000;   15.000
288.370; -178.800;-1217.000;-1200.000
288.509;  -78.300; -728.000; -645.000
288.648;  -87.425; -770.000; -548.000
288.787;  -28.975; -243.000;  -87.000
288.926;  -63.825; -454.000; -475.000
289.065;  137.175;  859.000;  672.000
289.204;  -58.900; -377.000; -217.000
289.344;  -87.775; -791.000; -690.000
289.483;   18.875;  416.000;  304.000
289.622;   -9.650; -291.000; -149.000
289.761;   -5.450; -309.000; -166.000
289.900; -102.450; -785.000; -626.000
290.039;  -22.050;  -12.000;  -95.000
290.178;  -33.600; -274.000; -180.000
290.317;  -84.750; -618.000; -479.000
290.456;  -65.075; -463.000; -451.000
290.595; -147.350; -961.000; -833.000
290.734; -138.300; -904.000; -891.000
290.873;  -65.800; -456.000; -420.000
291.011; -101.025; -833.000; -843.000
291.150; -106.025; -770.000; -682.000
291.289;  -21.350; -343.000; -110.000
291.428;  -96.575; -599.000; -480.000
291.567;  -58.950; -370.000; -442.000
291.706;   -5.850;  109.000;  154.000
291.845;  -82.425; -597.000; -505.000
291.984; -166.425;-1234.000;-1061.000
292.122;   76.300;  602.000;  582.000
292.261;   43.925;  620.000;  463.000
292.400;   18.600; -144.000;  211.000
292.539; -143.200; -959.000; -813.000
292.678;  -23.500; -325.000; -300.000
292.816; -158.125;-1136.000; -965.000
292.955;  -77.525; -844.000; -684.000
293.094;  -15.700; -173.000; -337.000
293.233;  -47.450; -556.000; -400.000
293.371;  -45.150; -225.000;  -84.000
293.510; -103.175; -866.000; -780.000
293.649; -141.500; -959.000; -924.000
293.787;  -21.550;-1083.000;-1012.000
293.926;    8.175; -113.000;  -32.000
294.065;  -32.575; -379.000; -290.000
294.203;   52.525;  298.000;  406.000
294.342;   36.950;   74.000;  156.000
294.481; 7258.400;51180.000; -836.000
294.619;    0.275; -425.000; -582.000
294.758; -149.100;-1230.000;-1137.000
294.896;   99.500; -125.000;    5.000
295.035; -121.925;-1040.000;-1006.000
295.174;  -98.100;-1082.000; -954.000
295.312;  -40.950; -323.000; -203.000
295.451;   15.175; -307.000; -428.000
295.589;  -51.200; -389.000; -518.000
295.728;   34.075; -292.000; -165.000
295.866;    2.925;  -36.000;  -51.000
296.005;  -44.075; -584.000; -341.000
296.143;  -74.550; -558.000; -596.000
296.282;  -86.475; -957.000; -881.000
296.420;  -72.675; -657.000; -557.000
296.559;  -65.025; -892.000; -633.000
296.697;   54.500; -847.000; -665.000
296.835;  156.200;-1141.000;-1002.000
296.974;   49.500;  -23.000;   39.000
297.112;   34.325; -443.000; -504.000
297.251;  -62.825; -815.000; -755.000
297.389;  154.275; -576.000; -438.000
297.527;   62.075; -145.000;  -83.000
297.666;  -38.850; -486.000; -438.000
297.804;  -55.450; -404.000; -264.000
297.942;   12.650; -136.000; -161.000
298.081;    1.100; -183.000;   63.000
298.219;  108.150;  -17.000;  -19.000
298.357;   67.050; -144.000;  -71.000
298.495;   77.650; -810.000; -812.000
298.634;  113.750;  245.000;  219.000
298.772;  109.225; -220.000; -338.000
298.910;  -32.700; -309.000; -182.000
299.048;   -5.325; -130.000; -153.000
299.187;  -28.175; -350.000; -250.000
299.325;   44.650;   52.000;  122.000
299.463;   76.700; -389.000; -299.000
299.601;  183.225; -327.000; -271.000
299.739;  -99.975; -908.000; -883.000
299.877;  -70.525; -791.000; -703.000
300.016;  -26.275;-1095.000; -935.000
300.154;  214.775;  -19.000; -161.000
300.292;   94.475; -428.000; -348.000
300.430;   64.325; -408.000; -291.000
300.568;  -88.250; -940.000; -874.000
300.706;  -35.475; -366.000; -469.000
300.844;  -56.425;-1108.000; -979.000
300.982;  152.725;  246.000;  282.000
301.120; -116.700; -965.000; -866.000
301.258;  -45.450; -812.000; -705.000
301.396;   58.950;  104.000;  -41.000
301.534;  147.500; -218.000; -293.000
301.672;   26.450; -664.000; -521.000
301.810;   79.625; -613.000; -545.000
301.948;  155.250;   53.000;  149.000
302.086;  774.625; -250.000;  -32.000
302.224; 1212.250; -610.000; -585.000
302.362;   91.850; -558.000; -622.000
302.500;   12.825; -923.000; -893.000
302.638;  138.300;  128.000;  245.000
302.776;   11.375; -352.000; -408.000
302.913;   63.925;  447.000;  236.000
303.051;   16.550;  -86.000;  -23.000
303.189;   67.550;   90.000;  118.000
303.327;  -30.400; -341.000; -256.000
303.465;  -75.500; -832.000; -588.000
303.603;  -91.575; -805.000; -604.000
303.740;  134.450;  417.000;  241.000
303.878;   67.950; -800.000; -759.000
304.016;  -83.175; -915.000; -790.000
304.154; -113.575;-1123.000;-1152.000
304.291;   -9.425; -505.000; -554.000
304.429;   20.675;  102.000;   74.000
304.567; -112.650; -908.000; -893.000
304.705;  -53.300; -408.000; -515.000
304.842;  133.275; -616.000; -540.000
304.980;   60.950;  215.000;   35.000
305.118;   91.125; -367.000; -365.000
305.255;  -35.125; -945.000; -927.000
305.393;   71.650;  178.000;  239.000
305.531; -101.700;-1173.000; -956.000
305.668;  -57.350; -663.000; -582.000
305.806;  108.875; -358.000; -439.000
305.943;  138.850; -629.000; -637.000
306.081;   90.100; -378.000; -267.000
306.219;  -87.325; -863.000; -748.000
306.356;    1.875;  158.000;   27.000
306.494;  117.000;  981.000;  761.000
306.631;   -2.175;  -11.000;  -55.000
306.769;   13.500; -613.000; -485.000
306.906;  -14.200; -284.000; -258.000
307.044;  -48.850; -473.000; -488.000
307.181;  -63.575; -410.000; -332.000
307.319;   23.275;  112.000;   87.000
307.456; -175.100;-1191.000;-1153.000
307.594;  -90.475; -980.000; -727.000
307.731;   -2.825; -371.000; -164.000
307.868;   16.900;  -15.000;   20.000
308.006; -143.550; -961.000; -847.000
308.143;  -56.025; -618.000; -330.000
308.281;  158.850;  -37.000; -254.000
308.418;   -2.050; -748.000; -640.000
308.555;  -68.475; -400.000; -250.000
308.693;  -58.875; -577.000; -573.000
308.830; -107.775; -712.000; -657.000
308.967;   -4.500; -215.000;  -95.000
309.105;  -54.000; -507.000; -396.000
309.242;   44.300; -468.000; -367.000
309.379;  312.175; -577.000; -655.000
309.517;  -54.150; -936.000; -948.000
309.654;  -93.200; -910.000; -734.000
309.791;  -57.025; -662.000; -580.000
309.928; -112.950; -977.000; -914.000
310.065;  212.725;  819.000;  697.000
310.203;   36.425; -825.000; -850.000
310.340;    8.775; -465.000; -321.000
310.477;  -81.550; -412.000; -516.000
310.614;  -52.750; -383.000; -473.000
310.751;  -74.100; -427.000; -518.000
310.889;   -0.550;    1.000;   11.000
311.026; -166.725;-1161.000; -939.000
311.163;  -39.850; -386.000; -380.000
311.300;  -64.600; -512.000; -479.000
311.437;  -66.550; -658.000; -619.000
311.574; -157.250;-1226.000; -985.000
311.711;  -45.475; -595.000; -433.000
311.848;  -44.325; -380.000; -388.000
311.985;   18.975;  270.000;   93.000
312.122; -121.875; -932.000; -762.000
312.259; -121.575; -941.000; -994.000
312.396;  -84.625; -508.000; -551.000
312.533;  -97.450; -812.000; -790.000
312.670; -135.600;-1070.000; -898.000
312.807;  -38.400; -352.000; -367.000
312.944;  -69.800; -513.000; -611.000
313.081;  -25.175; -150.000; -415.000
313.218; -114.650;-1111.000; -867.000
313.355;   26.225; -531.000; -449.000
313.492;    9.125; -455.000; -292.000
313.629;  152.525;  815.000;  735.000
313.766; -157.175;-1176.000;-1008.000
313.902;    4.150; -186.000;   21.000
314.039;  -56.275; -372.000; -289.000
314.176;   45.850;  286.000;  192.000
314.313;  -76.850; -569.000; -473.000
314.450;  -63.875; -788.000; -684.000
314.587;  -59.350; -468.000; -480.000
314.723;    1.575;  -78.000;  130.000
314.860;   39.175;  318.000;  332.000
314.997;   57.525;  223.000;  142.000
315.134;  -46.550; -385.000; -368.000
315.270;  -20.800; -480.000; -496.000
315.407; -124.550;-1094.000; -967.000
315.544;  -36.775; -657.000; -538.000
315.681;  -67.275; -681.000; -565.000
315.817;   48.725; -133.000; -176.000
315.954;   32.300; -613.000; -392.000
316.091; -107.975;-1045.000;-1023.000
316.227;  -16.200;  -71.000; -179.000
316.364;   10.025;   23.000;    6.000
316.500;  -55.300; -113.000; -300.000
316.637;  -38.875; -181.000; -302.000
316.774;  -98.200; -625.000; -358.000
316.910;  -76.125; -598.000; -629.000
317.047;  -69.000; -487.000; -351.000
317.183;  -38.175; -435.000; -566.000
317.320;  -27.650; -367.000; -321.000
317.456;  -85.850; -733.000; -805.000
317.593;  -94.550; -598.000; -641.000
317.729;   14.975;  168.000;  -67.000
317.866; -198.700;-1434.000;-1285.000
318.002;  -75.175; -708.000; -948.000
318.139;  -79.525; -883.000; -867.000
318.275;  -97.325;-1003.000; -738.000
318.412;  -55.025; -517.000; -336.000
318.548;  -12.125; -751.000; -720.000
318.685;  -93.825; -985.000; -888.000
318.821;  -83.225; -762.000; -735.000
318.957;  -10.925;   34.000;  -23.000
319.094;   52.050;  297.000;  154.000
319.230;  -42.725; -756.000; -742.000
319.367;  184.775; -471.000; -520.000
319.503;   74.375; -538.000; -436.000
319.639;  -89.375; -877.000; -793.000
319.775;  -52.525; -750.000; -685.000
319.912;  -41.375; -424.000; -519.000
320.048;  -82.375;-1184.000;-1184.000
320.184;   92.625;   59.000;   70.000
320.321;  -70.075; -497.000; -467.000
320.457;   73.700;  475.000;  662.000
320.593;  -66.825; -375.000; -382.000
320.729; -101.225; -732.000; -734.000
320.866;  -85.400; -577.000; -635.000
321.002;  -56.075; -759.000; -809.000
321.138;    0.100; -135.000; -211.000
321.274;  100.475; -148.000; -115.000
321.410;  -31.700; -585.000; -353.000
321.546;    0.350;-1011.000; -911.000
321.683;   51.150;  400.000;  185.000
321.819;   28.750;  -48.000; -117.000
321.955; -110.550; -743.000; -722.000
322.091;  -35.475; -585.000; -540.000
322.227;   -3.500; -382.000; -202.000
322.363;  -12.450; -320.000; -215.000
322.499;  -38.125; -343.000; -331.000
322.635;  178.350;  636.000;  443.000
322.771;   38.800; -139.000;   12.000
322.907;  115.050;  129.000;  327.000
323.043;  -22.850; -115.000; -206.000
323.179;  -29.650; -394.000; -363.000
323.315;   70.850; -401.000; -371.000
323.451;  160.325; -328.000; -236.000
323.587;   77.000;  -60.000;  -77.000
323.723;   50.250; -682.000; -601.000
323.859;   -9.300; -258.000;  -76.000
323.995;  -23.700; -467.000; -409.000
324.131; -118.125; -967.000; -892.000
324.267;  -38.425; -254.000; -276.000
324.402; -122.575; -960.000; -983.000
324.538;   -0.500; -279.000; -104.000
324.674;   30.775;  164.000;   77.000
324.810;  176.000;  226.000;  308.000
324.946;   42.700; -810.000; -658.000
325.082;  -64.125; -568.000; -475.000
325.217;  -21.500;  -62.000;   16.000
325.353; -100.300; -764.000; -659.000
325.489;  -83.300; -540.000; -506.000
325.625;  -67.500; -579.000; -525.000
325.760;   51.800;  517.000;  376.000
325.896;  -39.525; -515.000; -702.000
326.032;  -52.650; -403.000; -352.000
326.168;  -47.250; -462.000; -369.000
326.303;  -65.550; -352.000; -461.000
326.439;  -25.075; -336.000; -276.000
326.575;    4.400; -190.000;  -29.000
326.710;    4.950; -156.000;  -30.000
326.846;  -13.525;  146.000;  103.000
326.982;  -82.200; -530.000; -548.000
327.117;  -76.825; -481.000; -442.000
327.253;  -98.075; -745.000; -742.000
327.388; -155.825;-1137.000;-1153.000
327.524;  -21.225; -811.000; -578.000
327.659;  -29.100;  -58.000;  -22.000
327.795;  -12.175;   69.000;   45.000
327.931;  -93.500; -723.000; -499.000
328.066;  -24.550; -417.000; -276.000
328.202;   -1.000;   12.000; -129.000
328.337;  116.550;  957.000;  713.000
328.473;   37.675;  -12.000;  -74.000
328.608;  -13.600; -256.000; -267.000
328.743;  -72.750; -799.000; -664.000
328.879;   29.175;  214.000;  114.000
329.014;  -49.700; -102.000; -122.000
329.150;  -83.000; -358.000; -483.000
329.285;  -68.875; -465.000; -466.000
329.421;  -47.075; -548.000; -246.000
329.556;  -20.800;  -36.000;   85.000
329.691;  -87.050; -633.000; -615.000
329.827;  -74.950; -626.000; -480.000
329.962;  -43.650;  131.000; -301.000
330.097;  -97.625; -673.000; -585.000
330.233;  -46.200; -410.000; -223.000
330.368; -121.225; -839.000; -628.000
330.503;   -6.300;    3.000;   98.000
330.638;   -0.925;  -93.000; -125.000
330.774;  -34.150; -609.000; -530.000
330.909;  -36.175; -434.000; -244.000
331.044;  -83.950; -714.000; -708.000
331.179; -169.225;-1217.000;-1109.000
331.315;   20.950;   77.000;   20.000
331.450;    8.275;  157.000;  285.000
331.585;  -80.050; -805.000; -706.000
331.720;  -86.950; -510.000; -460.000
331.855;  -11.900;  -35.000; -102.000
331.990;  182.200;   62.000;  138.000
332.126;   91.250; -110.000;   71.000
332.261;  -36.900; -379.000; -265.000
332.396;    6.675; -135.000; -242.000
332.531; -115.050;-1074.000;-1031.000
332.666;   22.325; -519.000; -363.000
332.801; -108.175; -726.000; -807.000
332.936;   -7.600; -192.000; -122.000
333.071; -143.725; -870.000; -817.000
333.206;   33.100;  307.000;  379.000
333.341;   38.525;  344.000;  418.000
333.476;  -62.875; -627.000; -623.000
333.611;  -26.525; -251.000; -173.000
333.746;  -28.975; -381.000; -464.000
333.881;  -98.725; -973.000; -935.000
334.016; -121.975; -936.000; -917.000
334.151; -110.625; -746.000; -702.000
334.286;   45.875;  152.000;  186.000
334.421;   -2.925; -125.000; -178.000
334.556;  -65.375; -611.000; -567.000
334.690;  -77.150; -631.000; -577.000
334.825;   84.625;  381.000;   83.000
334.960;  -44.800; -285.000; -413.000
335.095;   20.250;  135.000;  -91.000
335.230;  -80.450; -722.000; -738.000
335.365;  -95.125;-1084.000; -990.000
335.499; -134.150;-1108.000;-1037.000
335.634;   58.125;    9.000;  534.000
335.769;  -83.700; -755.000; -720.000
335.904;  -33.950; -603.000; -561.000
336.038;  -50.350; -735.000; -657.000
336.173;  -87.775;-1206.000;-1194.000
336.308;   33.175; -116.000; -189.000
336.443;    9.900; -544.000; -634.000
336.577;  -51.425; -936.000; -787.000
336.712;   99.400;   -4.000;  -12.000
336.847;   -6.350; -724.000; -607.000
336.981;  124.500; -272.000; -208.000
337.116;  360.150;  615.000;  501.000
337.250;  232.450; -434.000; -421.000
337.385;  180.050; -297.000; -208.000
337.520;   34.300; -632.000; -603.000
337.654;  -38.475; -215.000; -126.000
337.789; -115.850; -989.000; -933.000
337.923;  -26.225; -104.000; -205.000
338.058;  -80.700; -673.000; -738.000
338.192;  -26.325; -611.000; -488.000
338.327;   16.025;  -18.000; -155.000
338.461;  -58.900; -299.000; -469.000
338.596;  -75.225; -780.000; -638.000
338.730; -111.325; -767.000; -803.000
338.865;   58.900;  -46.000; -140.000
338.999;  -68.075; -846.000; -702.000
339.134;  -43.275; -634.000; -536.000
339.268;    3.225; -741.000; -603.000
339.403;  326.000; -740.000; -775.000
339.537;   55.150; -894.000; -820.000
339.671; -111.625; -829.000; -813.000
339.806;  -75.250; -556.000; -512.000
339.940;   11.025; -261.000; -235.000
340.074; -106.200; -685.000; -510.000
340.209;  -38.850; -351.000; -230.000
340.343;  -79.600; -517.000; -573.000
340.477;  162.850;  998.000; 1036.000
340.612;  -72.125;-1033.000; -900.000
340.746;  112.350; -199.000; -243.000
340.880;  -49.075; -924.000; -785.000
341.014;   -8.575;  -45.000; -154.000
341.149; -115.925; -756.000; -718.000
341.283; -101.550; -839.000; -754.000
341.417;  -78.250;-1124.000; -938.000
341.551;  244.900; -768.000; -708.000
341.685;   -7.100; -633.000; -611.000
341.820;  -53.250; -562.000; -493.000
341.954;  -38.050; -218.000; -349.000
342.088; -147.600;-1102.000;-1019.000
342.222;   59.825;  565.000;  618.000
342.356;  -52.775; -395.000; -335.000
342.490;  -76.125; -880.000; -841.000
342.624;  -42.450; -339.000; -242.000
342.758;   13.550; -364.000; -312.000
342.892;  -47.675; -710.000; -585.000
343.026;  -39.775;  -58.000; -116.000
343.160;  -37.750; -426.000; -376.000
343.294;  -85.475; -474.000; -337.000
343.428;    2.200; -488.000; -448.000
343.562;  -14.675; -172.000;  -23.000
343.696;  -13.400; -385.000; -314.000
343.830;   -5.425; -362.000; -356.000
343.964;   41.300; -231.000; -168.000
344.098; 1227.975;  199.000;   70.000
344.232; 1017.975; -266.000; -127.000
344.366;   89.975; -567.000; -453.000
344.500;  113.925; -665.000; -744.000
344.634;   72.650; -324.000; -164.000
344.768;   15.750; -531.000; -341.000
344.902;   27.750;  278.000;  256.000
345.035;  -63.200; -556.000; -496.000
345.169; -142.825; -933.000; -656.000
345.303;    7.225; -308.000; -482.000
345.437;  -57.325; -826.000; -717.000
345.571;  -66.675; -675.000; -594.000
345.704;  -56.875; -309.000; -532.000
345.838;   13.250; -331.000; -284.000
345.972;  -17.925; -543.000; -495.000
346.106;  154.300; -179.000; -190.000
346.239;  432.900; -312.000; -243.000
346.373;   30.375; -343.000; -302.000
346.507; -153.575; -950.000; -962.000
346.640;  210.275;  -30.000;   13.000
346.774;   -7.575; -650.000; -797.000
346.908;   -0.125; -138.000;  -11.000
347.041;  -78.175; -646.000; -593.000
347.175;   10.300;  259.000;   27.000
347.309;  -45.225; -698.000; -628.000
347.442;  -88.250; -883.000; -732.000
347.576;  371.225;  670.000;  668.000
347.709;  301.725; -123.000;  -52.000
347.843;  -70.825; -933.000; -825.000
347.976;   42.200;  235.000;  294.000
348.110; -181.275;-1268.000;-1186.000
348.243;  -97.225; -679.000; -772.000
348.377;  -12.925;  -26.000;   60.000
348.510;   51.800;  403.000;  540.000
348.644;  -52.600;  -37.000; -159.000
348.777;   15.425;  180.000;  191.000
348.911;  -38.250; -142.000; -112.000
349.044;  233.525;  471.000;  448.000
349.178;  254.700;-1069.000;-1006.000
349.311;  135.550;  141.000;  255.000
349.444;  -32.325; -927.000; -813.000
349.578;    5.375; -347.000; -200.000
349.711;  -93.850; -959.000; -862.000
349.845;   52.700; -661.000; -591.000
349.978; -145.400;-1224.000;-1137.000
350.111;  -74.275; -546.000; -612.000
350.244;  -69.700; -596.000; -700.000
350.378;   41.725; -392.000; -393.000
350.511;  -69.275; -393.000; -426.000
350.644; -102.350; -808.000; -806.000
350.778;    8.525;  168.000;  104.000
350.911;   11.475;  134.000;  140.000
351.044;  -92.750; -685.000; -615.000
351.177;   -5.200; -321.000; -281.000
351.310;  -18.175;    3.000; -131.000
351.444;  -48.375; -888.000; -788.000
351.577;  148.125;  140.000;   90.000
351.710;  118.000;  593.000;  417.000
351.843;  -42.000; -165.000;  -77.000
351.976;   10.425;  149.000;  -79.000
352.109;  -94.125; -621.000; -612.000
352.242;   -6.200; -464.000; -419.000
352.376;  -34.350; -580.000; -636.000
352.509;  273.975; -437.000; -356.000
352.642;   59.550; -654.000; -604.000
352.775;   93.175; -141.000;  -98.000
352.908; -113.775; -933.000; -904.000
353.041;  -84.025; -814.000; -824.000
353.174;  -54.250; -551.000; -424.000
353.307;  -69.725; -753.000; -764.000
353.440;   79.900;  541.000;  453.000
353.573;  -96.200; -957.000;-1008.000
353.706;  -49.400; -384.000; -558.000
353.839;   -8.350; -264.000; -220.000
353.971;  -86.300; -657.000; -512.000
354.104;  -74.675; -896.000; -835.000
354.237;  -16.200; -627.000; -662.000
354.370;  -70.525; -846.000; -879.000
354.503; -190.275;-1231.000;-1308.000
354.636;  -38.625; -529.000; -348.000
354.769; -131.175; -937.000; -860.000
354.902;    6.850; -230.000; -139.000
355.034;   -8.525; -164.000; -220.000
355.167;  -13.600; -262.000; -162.000
355.300; -102.025;-1061.000; -880.000
355.433;  848.900;  -71.000;  -14.000
355.565; 1251.950; -402.000; -384.000
355.698;  305.575; -356.000; -296.000
355.831;   15.200; -882.000; -801.000
355.964;  116.175; -285.000; -170.000
356.096;  -81.675; -856.000; -843.000
356.229;   53.450; -523.000; -530.000
356.362;  248.625; -373.000; -266.000
356.494;  523.200; -229.000; -162.000
356.627;  572.975;  269.000;  377.000
356.760;  616.750;  120.000;   53.000
356.892;  778.000; -286.000; -601.000
357.025;  838.625;  403.000;  389.000
357.157;  801.550; -167.000; -179.000
357.290;  510.275; -856.000; -713.000
357.423;  167.400; -667.000; -556.000
357.555;  149.875; -217.000; -228.000
357.688;  174.000; -483.000; -364.000
357.820;  583.625; -870.000; -877.000
357.953; 4395.200; -563.000; -589.000
358.085; 1048.225; -632.000; -612.000
358.218; 1753.725;-1131.000; -932.000
358.350;  322.625;  -58.000;  312.000
358.483;  -93.750;-1300.000;-1187.000
358.615;   42.950;-1182.000;-1078.000
358.747;   -2.200;-1187.000;-1058.000
358.880;   72.475; -810.000; -744.000
359.012;    1.000; -376.000; -202.000
359.145;  -18.300; -480.000; -511.000
359.277;   94.600; -962.000; -913.000
359.409; 3719.575;  536.000;  231.000
359.542;  969.825; -738.000; -688.000
359.674;   85.975;   46.000;   13.000
359.806;  -66.400; -565.000; -438.000
359.939;  -42.550; -617.000; -516.000
360.071;  -24.500; -583.000; -579.000
360.203;  -11.775; -411.000; -364.000
360.335;   52.675;  164.000;  -16.000
360.468;  232.275; -249.000; -307.000
360.600; 2869.225; -547.000; -454.000
360.732; 2326.175; -546.000; -423.000
360.864;  306.125;-1216.000;-1044.000
360.996;  430.175; -516.000; -554.000
361.129;   73.850; -389.000; -598.000
361.261;   39.025;  110.000; -113.000
361.393;  -25.975; -252.000; -214.000
361.525;   30.375;   94.000;  244.000
361.657;  -28.025; -821.000; -703.000
361.789;   23.025; -139.000; -155.000
361.921;  348.300; -642.000; -593.000
362.053;  348.500;  524.000;  541.000
362.185;   73.725;  288.000;   72.000
362.318;  -51.875; -709.000; -705.000
362.450;  180.275;  294.000;  444.000
362.582;  282.025; -913.000; -870.000
362.714;  -24.725; -353.000; -332.000
362.846;  -87.975; -606.000; -490.000
362.978; -141.975; -941.000; -811.000
363.109;   87.825; -161.000; -260.000
363.241;  597.175; -739.000; -749.000
363.373;  391.275; -649.000; -564.000
363.505;  519.450; -186.000;  -91.000
363.637;  130.700; -787.000; -601.000
363.769; -113.050;-1067.000;-1080.000
363.901;  -58.600; -596.000; -654.000
364.033; -106.375;-1103.000;-1062.000
364.165;   34.600; -283.000; -283.000
364.296;   49.150; -316.000; -177.000
364.428;   43.075;-1344.000;-1220.000
364.560;  -82.150; -679.000; -661.000
364.692;  -48.400; -738.000; -835.000
364.824;  415.925; -588.000; -456.000
364.955;  464.375; -402.000; -564.000
365.087;  621.750;-1097.000; -852.000
365.219;    7.525; -686.000; -816.000
365.351;  -76.025; -526.000; -572.000
365.482;   85.300;  300.000;  240.000
365.614;  -28.000; -402.000; -314.000
365.746;  -83.000; -729.000; -752.000
365.877; -114.900; -706.000; -672.000
366.009;  217.750;  -35.000;  -62.000
366.141; -132.800;-1249.000;-1134.000
366.272; -101.800; -803.000; -719.000
366.404; -106.775;-1005.000; -874.000
366.535;   -5.175; -139.000;  -12.000
366.667;  -96.575; -644.000; -649.000
366.799;   52.200;  353.000;  203.000
366.930; -117.775; -862.000; -996.000
367.062;  121.350; -639.000; -613.000
367.193;   86.300; -872.000; -842.000
367.325;  -57.050; -580.000; -684.000
367.456;  119.400; -246.000;   31.000
367.588;  155.950; -371.000; -318.000
367.719;   15.600;  -44.000;  -45.000
367.851;   -2.325; -222.000; -241.000
367.982;  -12.900; -875.000; -732.000
368.113;  167.650; -475.000; -358.000
368.245; -112.350; -960.000; -841.000
368.376;    0.900; -254.000; -302.000
368.508;  -19.475; -188.000; -263.000
368.639; -122.525;-1166.000;-1034.000
368.770;    5.200; -670.000; -589.000
368.902;  -22.750; -836.000; -926.000
369.033; -105.200; -906.000; -855.000
369.164;  -51.850; -720.000; -653.000
369.296; -106.425; -452.000; -601.000
369.427;   35.425; -209.000; -144.000
369.558;  -51.925; -593.000; -377.000
369.689;  -63.775; -721.000; -569.000
369.821; -129.550; -951.000; -845.000
369.952;   -9.175;   42.000; -108.000
370.083;  -63.750; -229.000; -108.000
370.214;  -61.325; -735.000; -650.000
370.345;   -3.800;   65.000;   81.000
370.477;  -70.100; -810.000; -790.000
370.608;  336.650; -328.000; -264.000
370.739;  -11.975;-1233.000;-1292.000
370.870;   -7.950;-1102.000; -923.000
371.001;  144.700; -378.000; -467.000
371.132;  -66.375; -754.000; -735.000
371.263;  -13.950;  -42.000; -148.000
371.394; -135.575; -841.000; -748.000
371.525;   35.975;  345.000;  225.000
371.657;  -89.100; -808.000; -670.000
371.788;   96.225;  103.000;  199.000
371.919;  237.825; -384.000; -304.000
372.050; 4725.650;  -91.000; -156.000
372.181; 1394.675; -188.000; -294.000
372.311;  527.775;   42.000; -127.000
372.442;   69.775; -457.000; -451.000
372.573;   -7.050; -444.000; -340.000
372.704; -116.025;-1008.000; -980.000
372.835;  139.450; -228.000; -289.000
372.966;  -42.225; -646.000; -554.000
373.097;  -30.025; -575.000; -711.000
373.228;  -13.575; -717.000; -542.000
373.359;  232.650; -824.000; -536.000
373.490; 1297.525; -881.000; -727.000
373.620; 1612.225;-1001.000; -803.000
373.751; 2443.650; -332.000; -396.000
373.882; 1116.050; -663.000; -733.000
374.013;  134.450; -449.000; -262.000
374.143;   -9.100; -581.000; -659.000
374.274;  -92.975; -987.000; -908.000
374.405;  231.700; -388.000; -276.000
374.536;  633.350; -526.000; -387.000
374.666; 1577.650; -759.000; -807.000
374.797;  347.750; -817.000; -868.000
374.928; 1264.600; -710.000; -560.000
375.058; 1218.450; -535.000; -500.000
375.189;  131.650;  -59.000;  -93.000
375.320;  -95.575; -928.000;-1034.000
375.450;  -19.025; -625.000; -616.000
375.581;  -42.350; -526.000; -436.000
375.712;   -5.175; -574.000; -250.000
375.842;  439.175; -438.000; -415.000
375.973;  337.150; -554.000; -513.000
376.103;   -6.375; -665.000; -648.000
376.234;  -63.875; -531.000; -552.000
376.364;    0.700; -944.000; -867.000
376.495;  406.900;  925.000;  529.000
376.625;   39.250; -472.000; -485.000
376.756;  128.975; -709.000; -678.000
376.886;  -51.175;-1178.000;-1026.000
377.017;   27.750;-1048.000;-1061.000
377.147;  244.725; -786.000; -782.000
377.278;   72.900;  174.000;  228.000
377.408; -119.150; -801.000; -815.000
377.538;  -99.375; -707.000; -693.000
377.669;  -78.250; -537.000; -613.000
377.799;  -65.500; -645.000; -635.000
377.929;  -23.350; -610.000; -428.000
378.060; -113.650; -781.000; -847.000
378.190;  -64.325; -726.000; -531.000
378.320;  -36.725; -401.000; -406.000
378.451;    4.350; -131.000;  -22.000
378.581;    4.650;  -67.000; -110.000
378.711;  170.100; 1035.000;  866.000
378.841;   19.650; -533.000; -675.000
378.972;  -53.600; -871.000; -751.000
379.102;   43.850; -652.000; -579.000
379.232;    3.500; -126.000;  -73.000
379.362;  -82.325;-1001.000; -885.000
379.492;   31.625; -373.000; -424.000
379.623;  140.925;    0.000;  111.000
379.753;  -74.725;-1107.000; -974.000
379.883;  266.800;   59.000;  156.000
380.013;   55.700;-1081.000;-1017.000
380.143;  -81.875;-1097.000;-1056.000
380.273;  -90.300; -985.000; -861.000
380.403;   14.700; -344.000; -257.000
380.533;   -3.850; -651.000; -664.000
380.663;  115.800;  173.000;  128.000
380.793;  -63.375;-1027.000;-1074.000
380.923;  -13.250; -103.000;  -34.000
381.053;  -87.775; -613.000; -623.000
381.183;  -20.225; -106.000; -248.000
381.313;   88.150; -656.000; -470.000
381.443;   82.875; -692.000; -473.000
381.573;  326.575; -402.000; -409.000
381.703;  468.200;-1249.000;-1095.000
381.833; -109.100;-1454.000;-1336.000
381.963;  151.000; -134.000;  -87.000
382.093; 1789.100; -925.000; -909.000
382.223;  557.575; -713.000; -602.000
382.353;    8.575; -801.000; -608.000
382.482;  577.525;-1091.000; -964.000
382.612; 1014.750; -872.000; -644.000
382.742;  577.025; -695.000; -622.000
382.872;  379.525; -565.000; -551.000
383.002;   94.250;  347.000; -132.000
383.131;  -11.650; -226.000; -160.000
383.261;   -8.750; -706.000; -768.000
383.391;  279.525; -552.000; -377.000
383.521; 2562.250;  451.000;  263.000
383.650;  528.975; -947.000; -904.000
383.780;  -19.750; -783.000; -656.000
383.910;  127.575;  880.000;  802.000
384.039;   75.200; -794.000; -656.000
384.169;  335.000;-1205.000;-1017.000
384.299;   14.300; -650.000; -662.000
384.428;  -88.300; -764.000; -680.000
384.558;  -26.500; -308.000; -275.000
384.687;  -27.875; -414.000; -334.000
384.817;   29.075;   75.000;   -2.000
384.947;   44.950; -234.000; -141.000
385.076;  361.525;  982.000;  912.000
385.206;  131.925;  369.000;  480.000
385.335;  -10.625; -549.000; -417.000
385.465;  -74.025; -655.000; -663.000
385.594;  197.450;  -53.000;  -44.000
385.724;  634.950; -868.000; -838.000
385.853;  189.700; -296.000; -270.000
385.982; 1896.025; -743.000; -787.000
386.112; 2938.175;-1052.000; -871.000
386.241;  212.725; -307.000; -312.000
386.371;   57.000; -174.000;  -87.000
386.500;   16.875; -825.000; -789.000
386.629;   56.625; -874.000; -817.000
386.759;   63.325;  -43.000;   68.000
386.888;   13.225; -170.000; -250.000
387.017;  -67.500; -648.000; -620.000
387.147;  -69.325; -771.000; -798.000
387.276;   33.900; -410.000; -397.000
387.405;   53.150; -398.000; -342.000
387.535;  -37.025; -452.000; -361.000
387.664;  -56.775; -692.000; -620.000
387.793;  105.550; -198.000; -113.000
387.922;  721.050;  255.000;  200.000
388.052;   58.350; -576.000; -423.000
388.181;   82.875; -342.000; -472.000
388.310;   79.750; -889.000; -710.000
388.439;    1.975; -749.000; -742.000
388.568;  265.825;  365.000;  244.000
388.697; 1467.175; -756.000; -653.000
388.826;  318.675; -768.000; -666.000
388.956;  116.425; -285.000; -307.000
389.085;   -8.075; -347.000; -287.000
389.214;  -89.525; -842.000; -872.000
389.343;  -64.350; -645.000; -413.000
389.472;  355.650;  126.000;  149.000
389.601;  514.175;   91.000;    0.000
389.730;   52.650; -568.000; -687.000
389.859;   77.625;  226.000;   46.000
389.988;  276.050; -423.000; -408.000
390.117;  194.225; -168.000; -146.000
390.246;   22.250; -331.000; -320.000
390.375;  195.400; -673.000; -626.000
390.504;  -39.975; -703.000; -621.000
390.633;  -91.050; -672.000; -726.000
390.761;  -49.175; -732.000; -645.000
390.890;   49.975;   -4.000; -130.000
391.019;   17.325; -421.000; -441.000
391.148; -129.200; -826.000; -855.000
391.277;  -45.975; -576.000; -493.000
391.406;  -58.500; -821.000; -805.000
391.534;   30.175;  574.000; -301.000
391.663;  -45.600; -583.000; -645.000
391.792;  -64.250; -673.000; -701.000
391.921;  164.100;   -3.000;   15.000
392.050;  324.850; -287.000; -228.000
392.178;   12.875;-1206.000;-1061.000
392.307;  233.825; -758.000; -712.000
392.436;  124.450; -427.000; -641.000
392.564;   43.200;  166.000;   -6.000
392.693;  -91.275; -860.000; -682.000
392.822;  314.075; -529.000; -534.000
392.950;  170.075; -880.000; -714.000
393.079;  477.975; -188.000; -328.000
393.208;   64.550; -488.000; -511.000
393.336;   15.400; -170.000; -145.000
393.465;  -46.650; -317.000; -199.000
393.593;    7.125;   62.000;   79.000
393.722; -160.700;-1121.000; -916.000
393.850;  -28.125; -188.000;  -61.000
393.979; -164.375; -926.000; -805.000
394.107;  -65.000; -517.000; -537.000
394.236;    6.225; -570.000; -507.000
394.364;  231.975;  383.000;  206.000
394.493;  338.075; -911.000; -767.000
394.621;  -24.500; -955.000; -916.000
394.750;  576.425; -873.000; -923.000
394.878; 2509.750; -247.000; -149.000
395.007; 3279.125; -721.000; -807.000
395.135;  231.475; -790.000; -721.000
395.263;  -95.500;-1038.000;-1040.000
395.392;   13.975;  -25.000; -107.000
395.520; -156.000; -818.000; -679.000
395.648;  -59.475; -865.000; -915.000
395.777;    5.875; -366.000; -405.000
395.905;  -39.250; -449.000; -564.000
396.033;    6.975;  217.000;  172.000
396.162;  579.875; -399.000; -453.000
396.290;  499.425;  -17.000;   -2.000
396.418;  163.275; -555.000; -514.000
396.546;  -61.750; -571.000; -466.000
396.674;  -88.025; -850.000; -878.000
396.803;   17.000;  -72.000;  -23.000
396.931;  168.800; -179.000; -199.000
397.059;  133.850;-1026.000; -989.000
397.187;  -85.900;-1026.000; -975.000
397.315; -126.075; -884.000; -649.000
397.443;  -90.325; -592.000; -443.000
397.572; -104.000; -578.000; -424.000
397.700;   42.175; -607.000; -614.000
397.828;   34.725;  120.000;  -90.000
397.956;  -29.950; -508.000; -478.000
398.084;  -68.350; -767.000; -626.000
398.212;   63.350;  137.000;  124.000
398.340;   29.475;  -56.000;  159.000
398.468;   67.475; -390.000; -169.000
398.596; -133.100; -993.000; -953.000
398.724; -117.800; -762.000; -767.000
398.852; -176.450;-1024.000; -976.000
398.980;  -56.550; -560.000; -560.000
399.108;  -32.625; -982.000; -735.000
399.236;   60.500;   13.000;    8.000
399.363;   20.375;  222.000;  196.000
399.491;  -62.200; -404.000; -398.000
399.619; -135.575; -829.000; -800.000
399.747;  -82.250; -859.000; -771.000
399.875;   86.025;  220.000;  234.000
400.003;  -36.500; -359.000; -284.000
400.130;  -94.775; -421.000; -341.000
400.258;  -34.525;  -83.000;   38.000
400.386;  -57.950; -352.000; -168.000
400.514;  -15.150; -526.000; -587.000
400.641;  -68.000; -928.000; -802.000
400.769; -136.350; -979.000; -888.000
400.897; -102.875; -838.000; -793.000
401.025;    0.275; -166.000; -152.000
401.152;  -29.225;  220.000;   38.000
401.280;  -81.975; -430.000; -429.000
401.408; -125.850; -712.000; -576.000
401.535;  -94.475; -735.000; -758.000
401.663; -200.025;-1134.000;-1054.000
401.790;  -69.750; -514.000; -525.000
401.918;   41.625;  436.000;  405.000
402.046;    2.100;  134.000;  122.000
402.173;  -42.325;  -18.000;    7.000
402.301;  -60.475; -519.000; -397.000
402.428;   30.375;  528.000;  383.000
402.556; -138.975;-1188.000; -913.000
402.683;  -32.325;  -20.000;   -1.000
402.811;   -5.175;  -37.000; -206.000
402.938;   -4.725;   20.000;   27.000
403.066;  305.250; -574.000; -558.000
403.193;  442.900;  299.000;  239.000
403.321;  370.625; -396.000; -574.000
403.448;  431.775;   83.000;   27.000
403.575;  196.150;  -90.000;  -46.000
403.703;  -90.625; -732.000; -557.000
403.830;  -66.625; -531.000; -496.000
403.957; -154.125;-1117.000;-1023.000
404.085;   23.250;  -61.000; -172.000
404.212;  102.975;  -50.000;   63.000
404.339;  241.700; -566.000; -306.000
404.467; 4806.250; -612.000; -524.000
404.594; 3566.400; -287.000; -227.000
404.721;  979.900; -869.000; -764.000
404.848;   99.025; -113.000; -202.000
404.976;  -95.425; -856.000; -783.000
405.103;   -8.200;  -14.000;  -82.000
405.230;  -16.325;  190.000;  226.000
405.357;   38.300;  117.000;   44.000
405.484;  197.650;  -49.000;    5.000
405.612;   40.150; -548.000; -563.000
405.739;  -78.550; -488.000; -243.000
405.866;   92.925;  669.000;  385.000
405.993;  -45.575; -398.000; -102.000
406.120; -139.450; -801.000; -887.000
406.247;  -40.025; -323.000; -342.000
406.374;  631.750;  540.000;  629.000
406.501;  196.600; -632.000; -702.000
406.628;  -59.250; -621.000; -589.000
406.755;  -95.325; -803.000; -620.000
406.882;  -40.975; -228.000; -277.000
407.009; -100.400; -719.000; -628.000
407.136;   80.875; -480.000; -401.000
407.263;  230.700; -939.000; -829.000
407.390;  -61.325; -692.000; -614.000
407.517; -168.750;-1139.000;-1187.000
407.644;  -50.575; -332.000; -256.000
407.771;  -69.375; -249.000; -287.000
407.898;    8.850;  168.000;  328.000
408.025;  -80.100; -421.000; -313.000
408.151;   -9.275;   82.000;  153.000
408.278;  -80.000; -267.000; -216.000
408.405;  -98.775; -931.000; -899.000
408.532;  -66.850; -549.000; -542.000
408.659;  -99.375; -677.000; -648.000
408.785; -210.725;-1298.000;-1170.000
408.912;  -67.650; -412.000; -296.000
409.039; -128.350; -610.000; -686.000
409.166;  -98.225; -591.000; -555.000
409.292; -108.650; -571.000; -534.000
409.419; -123.825; -665.000; -649.000
409.546;  -88.425; -431.000; -192.000
409.672; -102.875; -713.000; -545.000
409.799;  -14.450;  -36.000;   34.000
409.926;  -33.250; -180.000; -179.000
410.052; -186.325;-1127.000;-1091.000
410.179;  -44.525; -368.000; -392.000
410.305;  -98.375; -375.000; -493.000
410.432;  -33.875; -220.000; -333.000
410.558;  -89.000; -305.000; -380.000
410.685; -113.800; -688.000; -431.000
410.812; -100.575; -409.000; -588.000
410.938; -136.300; -964.000; -808.000
411.065;  -96.900; -671.000; -645.000
411.191;   -5.775; -189.000; -174.000
411.317; -129.775; -823.000; -742.000
411.444;  -59.575; -317.000; -246.000
411.570;  -82.750; -339.000; -294.000
411.697; -119.500; -758.000; -752.000
411.823; -175.825; -989.000; -999.000
411.949;  -20.850;  -56.000;   17.000
412.076; -121.350; -539.000; -519.000
412.202; -122.575; -758.000; -757.000
412.329; -123.350; -798.000; -752.000
412.455;  -98.475; -821.000; -657.000
412.581;  -38.925;  -15.000;  172.000
412.707;  -50.525; -540.000; -457.000
412.834;   13.400;  156.000;  219.000
412.960;  -80.425; -785.000; -784.000
413.086;  -93.125; -743.000; -701.000
413.212;  192.050;  604.000;  578.000
413.339;  -50.025; -685.000; -701.000
413.465;   45.575; -364.000; -310.000
413.591;  -76.050; -757.000; -474.000
413.717;  -51.350; -358.000; -366.000
413.843; -153.750; -839.000; -861.000
413.969;  -53.650;  -47.000; -292.000
414.096; -110.325; -679.000; -679.000
414.222;  -12.225;  -33.000;   85.000
414.348;   -4.125; -652.000; -385.000
414.474;  141.175;   38.000;  -52.000
414.600;  -15.050; -126.000; -144.000
414.726;   -6.650;  -96.000;  -55.000
414.852;  -62.050; -365.000; -342.000
414.978;   53.750;  104.000;  -18.000
415.104;   33.550;   38.000;   80.000
415.230;   25.575; -329.000; -330.000
415.356;   46.650; -409.000; -514.000
415.482;  207.575;   13.000;  -35.000
415.608;  244.025; -247.000; -323.000
415.734;  881.650;   67.000;   38.000
415.860;18072.000; -875.000; -767.000
415.986;12699.250; -685.000; -607.000
416.111; 1052.650; -798.000; -652.000
416.237;  215.350; -424.000; -571.000
416.363;  935.250; -765.000; -733.000
416.489; 3456.275; -324.000; -251.000
416.615;  321.425; -707.000; -742.000
416.741;  -46.100; -677.000; -784.000
416.866; -101.975; -673.000; -736.000
416.992; -145.025; -801.000; -818.000
417.118;  -35.375;  -41.000;  -80.000
417.244;  -58.050; -798.000; -531.000
417.369;  -78.175; -801.000; -612.000
417.495;    7.275; -325.000; -254.000
417.621;  -93.125;-1015.000; -803.000
417.746;   10.950; -579.000; -572.000
417.872;   25.750; -254.000; -144.000
417.998;   34.525; -515.000; -530.000
418.123;  872.350;-1073.000; -845.000
418.249; 4568.925; -512.000; -601.000
418.374;  580.400; -916.000; -824.000
418.500;   85.000; -383.000; -482.000
418.626;   94.575;   70.000;  -59.000
418.751;  123.725; -549.000; -448.000
418.877;  176.250; -637.000; -643.000
419.002; 1587.150; -688.000; -560.000
419.128;10602.050; -930.000; -721.000
419.253; 2471.725; -967.000; -837.000
419.379;  310.425; -391.000; -338.000
419.504;  351.150;  325.000;  415.000
419.629;  414.750; -393.000; -212.000
419.755; 2913.250; -317.000; -254.000
419.880;16830.775;  -98.000;   67.000
420.006; 9768.775; -280.000; -221.000
420.131;25399.100; -662.000; -775.000
420.256; 3590.250; -315.000; -316.000
420.382;  475.825; -665.000; -687.000
420.507;   61.525; -649.000; -778.000
420.632;  201.425; -337.000; -339.000
420.758;  386.200; -251.000; -425.000
420.883;  -73.400; -876.000; -672.000
421.008;  -80.825; -775.000; -619.000
421.133;  -73.925; -509.000; -467.000
421.259;  -32.900; -325.000; -259.000
421.384; -118.500; -834.000; -693.000
421.509;    3.975;-1052.000; -862.000
421.634; 1823.950; -936.000; -820.000
421.759;  754.625; -359.000; -327.000
421.885;  -43.675; -717.000; -656.000
422.010;  -70.125; -673.000; -542.000
422.135; -158.925; -695.000; -727.000
422.260;   47.150;  340.000;  280.000
422.385;  -40.225;   12.000;  -98.000
422.510;   10.425;  151.000;  -26.000
422.635;   28.625;  -87.000;  -43.000
422.760;  129.725; -766.000; -791.000
422.885;   62.950;  -57.000;  -80.000
423.010;  -30.725; -112.000; -169.000
423.135;  -89.450; -481.000; -561.000
423.260;    4.125; -150.000; -245.000
423.385;   84.275;  476.000;  222.000
423.510;   50.625;   71.000;  -22.000
423.635;  112.125;  133.000;   45.000
423.760;   79.400;  383.000;  328.000
423.885;   52.075;  336.000;  391.000
424.010;   38.400;  -68.000;  -13.000
424.135;  -23.225;    5.000;  -33.000
424.259;  -78.200; -654.000; -457.000
424.384;  -75.750; -279.000; -272.000
424.509;  -12.625; -260.000; -186.000
424.634; -108.750; -761.000; -623.000
424.759;  -32.375; -688.000; -544.000
424.883;  -19.650; -506.000; -527.000
425.008;  173.625; -502.000; -410.000
425.133; 1733.700; -679.000; -653.000
425.258;  764.350; -517.000; -381.000
425.382; 1342.575; -867.000; -774.000
425.507; 3354.700; -487.000; -543.000
425.632;  465.575; -802.000; -663.000
425.756;  378.450; -256.000; -146.000
425.881; 5159.475; -831.000; -857.000
426.006;13386.275; -604.000; -355.000
426.130; 2151.000; -696.000; -508.000
426.255;  265.875; -611.000; -491.000
426.379;  115.250; -189.000; -577.000
426.504;  337.575;  660.000;  544.000
426.629; 3650.550; -519.000; -466.000
426.753; 2443.775;   64.000;  -46.000
426.878;  263.575; -252.000; -288.000
427.002;  152.775; -651.000; -668.000
427.127; 1444.000;  -35.000; -158.000
427.251; 9667.950;  372.000;  401.000
427.375; 2710.250; -191.000; -173.000
427.500; 2843.625; -616.000; -610.000
427.624;  940.725; -234.000; -400.000
427.749;  134.425; -216.000; -225.000
427.873;  -34.725; -499.000; -412.000
427.997;  -36.150; -222.000; -230.000
428.122;   83.550;  795.000;  703.000
428.246;   97.650;  433.000;  434.000
428.371; -139.725; -869.000; -773.000
428.495; -101.275; -624.000; -646.000
428.619;  -31.825; -186.000; -117.000
428.743;   36.050;   65.000;  132.000
428.868;   64.550; -732.000; -643.000
428.992; 1858.700; -219.000; -326.000
429.116;  753.025; -329.000; -357.000
429.240;  391.775;  419.000;  426.000
429.365;   -0.725; -454.000; -574.000
429.489;  -23.875; -638.000; -647.000
429.613;   25.300; -236.000; -177.000
429.737;   24.425; -563.000; -432.000
429.861;  241.325; -247.000; -133.000
429.985; 4907.075; -425.000; -305.000
430.109; 5187.025; -770.000; -908.000
430.234;  595.975;   76.000;  -50.000
430.358;   51.825; -250.000; -160.000
430.482;  -69.675; -672.000; -564.000
430.606;  -58.150; -655.000; -375.000
430.730;   42.725; -437.000; -388.000
430.854;  241.525; -909.000; -835.000
430.978;  -44.775; -795.000; -764.000
431.102;  -79.475; -499.000; -422.000
431.226;  -94.775; -874.000; -815.000
431.350;   27.175;  345.000;  422.000
431.474;  -54.975; -661.000; -373.000
431.597; -156.475;-1060.000; -848.000
431.721;  -80.275; -276.000; -267.000
431.845; -131.975; -704.000; -472.000
431.969;  -75.275; -304.000; -349.000
432.093;  -95.225; -395.000; -317.000
432.217;  -22.550;   32.000;   82.000
432.341; -101.475; -523.000; -518.000
432.464;   14.150;   96.000;   40.000
432.588;  305.200; -401.000; -329.000
432.712;  145.025;  -52.000;  -52.000
432.836;   30.400;  213.000;  263.000
432.959;  -27.500; -372.000; -311.000
433.083;   50.200;   11.000;    2.000
433.207;  350.200;  285.000;  930.000
433.330; 4252.425; -391.000; -200.000
433.454; 5130.300; -654.000; -638.000
433.578; 2992.700;  583.000;  278.000
433.701;  553.625; -623.000; -675.000
433.825;  197.950; -292.000; -299.000
433.949;  322.900;   28.000;  -72.000
434.072;  131.250; -410.000; -323.000
434.196;    5.600; -309.000; -117.000
434.319; 3815.300;25482.000;25124.000
434.443;  755.250; -656.000; -603.000
434.566; 2288.900;  281.000;   62.000
434.690;  352.650; -637.000; -383.000
434.813;   58.000; -251.000; -173.000
434.937;  -60.075; -569.000; -696.000
435.060;  -24.700; -423.000; -332.000
435.184;  577.125; -492.000; -217.000
435.307;  277.800;  159.000;  102.000
435.431;   13.550;  -40.000;   24.000
435.554;  -88.350; -399.000; -240.000
435.677;  -87.750; -350.000; -258.000
435.801;  -59.725;  -25.000;   49.000
435.924;   11.700;    1.000;  -67.000
436.048; -103.625;-1019.000; -732.000
436.171;  -56.000; -240.000;  -66.000
436.294;  -35.250; -248.000; -229.000
436.417;   34.050; -963.000; -849.000
436.541; -107.450; -814.000; -840.000
436.664;  -63.450; -242.000; -316.000
436.787;  -24.125;   13.000;  113.000
436.910; -104.900; -792.000; -422.000
437.034;   25.100;  142.000;  143.000
437.157;  114.550;  -11.000;    0.000
437.280;  -28.850; -392.000; -292.000
437.403;  -41.850; -982.000; -869.000
437.526; 1075.900; -903.000; -865.000
437.649; 3572.875; -505.000; -332.000
437.772;  552.500; -692.000; -540.000
437.896;  166.675;  700.000;  544.000
438.019;  -96.475; -758.000; -503.000
438.142;  -75.750; -596.000; -506.000
438.265;   29.375; -639.000; -670.000
438.388;  848.400; -520.000; -410.000
438.511;  189.175; -597.000; -394.000
438.634;  -16.800; -247.000; -125.000
438.757; -142.725; -693.000; -619.000
438.880;  -17.525;  -34.000;  -57.000
439.003;  -83.900; -417.000; -437.000
439.126;  -65.725; -287.000; -167.000
439.248;  -74.150;  -98.000; -139.000
439.371;  -48.500;    9.000;  -53.000
439.494;   24.725;  510.000;  439.000
439.617;  -43.550;   65.000;  -88.000
439.740; -192.150; -968.000; -816.000
439.863; -134.825; -755.000; -595.000
439.986; -120.700; -476.000; -431.000
440.108;  -46.150; -161.000; -112.000
440.231; -170.750; -950.000; -836.000
440.354;  -36.775;  -64.000; -150.000
440.477;   97.200; -566.000; -542.000
440.599;   34.725; -200.000; -225.000
440.722; -119.200; -709.000; -586.000
440.845;   82.500;  751.000;  928.000
440.968; -117.800; -415.000; -311.000
441.090;  -71.525; -199.000;  -33.000
441.213; -188.175;-1021.000; -825.000
441.336;  -62.975; -159.000;   -5.000
441.458;  -82.025; -549.000; -396.000
441.581;  -58.550; -628.000; -629.000
441.703;  -64.550; -152.000;   13.000
441.826; -118.950; -557.000; -400.000
441.948;  -69.225;   56.000;   51.000
442.071;   18.400;  555.000;  424.000
442.193; -118.500; -531.000; -485.000
442.316;   17.150;  152.000;   97.000
442.438;   29.700; -233.000;  -10.000
442.561;  105.200;  272.000;  262.000
442.683;  864.450; -809.000; -522.000
442.806; 1755.900;   -8.000;   74.000
442.928;  105.375; -859.000; -604.000
443.051;  -53.525; -577.000; -373.000
443.173; -104.250; -341.000; -339.000
443.295;  -82.425; -263.000; -371.000
443.418;  -66.525; -321.000;  -29.000
443.540;    7.750; -106.000;   -4.000
443.662; -120.575; -563.000; -465.000
443.785;   -0.325;  335.000;  199.000
443.907; -106.275; -362.000; -208.000
444.029; -132.625; -767.000; -494.000
444.152; -150.800; -644.000; -554.000
444.274;  -29.225;  -18.000;  -24.000
444.396; -122.275; -461.000; -221.000
444.518; -128.425; -691.000; -454.000
444.640; -123.625; -268.000; -111.000
444.763;  -17.350;  388.000;  249.000
444.885; -133.500; -432.000; -392.000
445.007;  -33.025;   35.000;   86.000
445.129; -126.050; -610.000; -515.000
445.251;  -87.450; -372.000; -439.000
445.373; -154.100; -537.000; -386.000
445.495;    2.650;  242.000;  350.000
445.617;   54.825;  853.000;  753.000
445.739;  -56.675; -215.000;  -97.000
445.861;  -29.850; -245.000; -112.000
445.984;  -24.800; -267.000; -101.000
446.105;  316.650; -418.000; -251.000
446.227;  880.500; -176.000;  -19.000
446.349;   48.600; -358.000; -249.000
446.471;  -68.400; -615.000; -448.000
446.593;  -59.075; -316.000;   19.000
446.715;   11.400;  -67.000;   41.000
446.837;   53.925;  697.000;  832.000
446.959;  -91.800; -457.000; -478.000
447.081; -142.700; -628.000; -518.000
447.203;   58.675;  862.000;  834.000
447.325;  -98.950; -270.000;   42.000
447.446;   -7.125;  286.000;  530.000
447.568; -158.825; -921.000; -803.000
447.690;  -64.100; -236.000; -245.000
447.812; -148.500; -798.000; -519.000
447.933;  -31.250;  155.000;  127.000
448.055;  -72.925; -306.000; -261.000
448.177;  213.500;   31.000;   79.000
448.299;  161.875; -935.000; -727.000
448.420;   25.375;  -25.000;  159.000
448.542;  -45.000;   -3.000;   33.000
448.664;  -15.375;  109.000;  322.000
448.785;  -53.825;  265.000;   83.000
448.907;  -68.400; -614.000; -353.000
449.028;  -20.800; -771.000; -471.000
449.150;   75.450;  492.000;  589.000
449.272; -185.275;-1044.000; -913.000
449.393;   37.100;  612.000;  694.000
449.515; -158.275; -634.000; -581.000
449.636;  -56.875; -264.000; -155.000
449.758;   78.750;  763.000;  622.000
449.879;  -87.500; -498.000; -396.000
450.001;  -95.800; -149.000;  -49.000
450.122;  -41.225;  -95.000;  162.000
450.244;  -33.350;   37.000;  364.000
450.365; -111.600; -495.000; -301.000
450.486;  -51.875;   80.000;  268.000
450.608;    4.875;  393.000;  326.000
450.729;   58.425;  578.000;  645.000
450.850;  -29.550; -574.000; -466.000
450.972;  569.075; -552.000; -389.000
451.093; 3954.450;  190.000;  588.000
451.214; 1643.000; -516.000; -337.000
451.336;  321.400;  773.000;  579.000
451.457;   21.050;  264.000;  393.000
451.578;  -32.550; -118.000;  -74.000
451.699; -142.625; -546.000; -540.000
451.821;  -83.175; -284.000;  -50.000
451.942;  -17.525;  278.000;  285.000
452.063;   18.400;  228.000;  419.000
452.184;  449.325;  -54.000;  -49.000
452.305;  913.200;  103.000;  170.000
452.427;   76.650; -549.000; -301.000
452.548;  -20.975;   23.000;   79.000
452.669;  -45.175; -257.000;  -89.000
452.790;  -34.925;    3.000;  -18.000
452.911;  -21.000;  195.000;  259.000
453.032;  -56.750; -289.000;  -60.000
453.153;  -46.100;  -29.000;   81.000
453.274;   59.925;  737.000;  868.000
453.395;  -60.225;  -51.000;  175.000
453.516;  127.575; 1317.000; 1388.000
453.637;  -50.850; -205.000; -150.000
453.758;  -49.225;   15.000;   69.000
453.879; -128.200; -462.000; -250.000
454.000;   81.675; 1086.000;  948.000
454.121; -118.650; -554.000; -326.000
454.242; -116.000; -599.000; -383.000
454.362;  -66.925;  -99.000;  114.000
454.483;  -41.675; -309.000; -229.000
454.604;   68.125;  512.000;  580.000
454.725; -130.575; -627.000; -555.000
454.846; -133.250; -474.000; -406.000
454.967;  -26.075;  230.000;  539.000
455.087;  -59.150;  179.000;  153.000
455.208;   16.500;  554.000;  856.000
455.329;  -75.375;  -22.000;   82.000
455.450;   23.525;  473.000;  633.000
455.570; -108.125; -234.000; -211.000
455.691;  -45.025;  201.000;  407.000
455.812; -129.175; -270.000;  -92.000
455.932;  -62.825;  107.000;  -97.000
456.053;  -92.975;   36.000;   24.000
456.173; -126.325; -433.000; -355.000
456.294; -135.275; -476.000; -303.000
456.415;  -72.800;  -73.000;   70.000
456.535;  -46.725;  297.000;  273.000
456.656;  -47.725;  132.000;  240.000
456.776;  -89.125;    3.000;  298.000
456.897;   -2.800;  308.000;  513.000
457.017;  -84.100; -153.000;   -3.000
457.138;  -94.625; -402.000; -249.000
457.258;  -27.825;  263.000;  224.000
457.379;   -7.600;  509.000;  521.000
457.499;  -39.275;  443.000;  432.000
457.620; -136.100; -407.000; -231.000
457.740; -103.675; -132.000;  -11.000
457.860;  -55.950;   87.000;   44.000
457.981;  -63.150;  132.000;  124.000
458.101;  -78.975;  -89.000;   40.000
458.221;  -33.475;  336.000;  402.000
458.342;  -58.000;   -4.000;  -37.000
458.462;   -5.150;  617.000;  352.000
458.582;  -51.200; -302.000; -294.000
458.703;  -28.500;  303.000;  154.000
458.823;  -46.550;   22.000;  163.000
458.943;   19.000;  341.000;  467.000
459.063;   -7.725; 1124.000;  192.000
459.183;  -29.750;  328.000;  313.000
459.304;    4.700;  315.000;  517.000
459.424;  -77.375; -246.000;  -89.000
459.544;  290.325;  388.000;  764.000
459.664;  672.875;  499.000;  506.000
459.784;  277.400; 1004.000; 1175.000
459.904;   38.825;  867.000;  744.000
460.024;   86.000;  867.000;  684.000
460.144;    9.150;  449.000;  554.000
460.264;  -10.925;  515.000;  327.000
460.385; -102.325; -145.000; -119.000
460.505;   28.425;  905.000;  858.000
460.625; -102.600;  -17.000;  -68.000
460.745;  -11.350;  396.000;  541.000
460.864;  -58.225;  153.000;  469.000
460.984;   21.850;  499.000;  573.000
461.104;  125.275; 1656.000; 1775.000
461.224;    9.425;  657.000;  650.000
461.344;  -33.850;  431.000;  360.000
461.464;  -28.800;  258.000;  513.000
461.584;  -16.950;  283.000;  466.000
461.704;  -37.375;   58.000;  108.000
461.824;  -69.350;  238.000;  259.000
461.943;  -39.300;  191.000;  130.000
462.063;  -92.600;    2.000;  324.000
462.183;   44.975;  639.000;  717.000
462.303;   92.075; 1678.000; 1230.000
462.422;   37.325;  781.000;  840.000
462.542;  -47.100;  271.000;  391.000
462.662;   40.625;  353.000;  380.000
462.782;  201.550;  833.000;  572.000
462.901;  412.000;  545.000;  717.000
463.021;  248.325; 1702.000; 1638.000
463.141;  -13.725;  337.000;  770.000
463.260;  -24.375;  614.000;  474.000
463.380;   14.325;  902.000;  884.000
463.499;  -55.300;  342.000;  332.000
463.619;  -44.900;  581.000;  559.000
463.738;  105.225; 1644.000;  903.000
463.858;   13.200;  657.000;  811.000
463.978;  -56.300;  542.000;  396.000
464.097;   38.325;  921.000; 1114.000
464.217;  110.575; 1196.000; 1143.000
464.336;  110.125; 1068.000; 1130.000
464.455;  -51.650;  328.000;  659.000
464.575;   63.200;  597.000;  602.000
464.694;  184.975; 1204.000; 1179.000
464.814;  128.675; 1190.000; 1138.000
464.933;   86.125; 1095.000; 1027.000
465.052;  107.675; 1412.000; 1054.000
465.172;   94.625;  922.000;  799.000
465.291;  148.300; 1376.000; 1320.000
465.410;   18.675;  462.000;  735.000
465.530;   87.950; 1355.000; 1310.000
465.649;   67.200; 1209.000; 1273.000
465.768;  168.175; 1673.000; 1508.000
465.888;   47.975;  941.000; 1174.000
466.007;  103.050; 1335.000; 1440.000
466.126;  -36.975;  721.000;  641.000
466.245;   62.575; 1176.000; 1187.000
466.364;   19.750;  950.000; 1060.000
466.484;   69.300; 1024.000; 1213.000
466.603;   29.100; 1101.000; 1222.000
466.722;  130.950; 1490.000; 1769.000
466.841;   74.875; 1151.000; 1401.000
466.960;   41.325; 1069.000;  972.000
467.079;  125.625; 1971.000; 1786.000
467.198;   51.975; 1238.000; 1181.000
467.317;   66.800; 1768.000; 1162.000
467.436;   78.875; 1709.000; 1261.000
467.555;  124.475; 1796.000; 1746.000
467.674;   68.200; 1227.000; 1329.000
467.793;   30.850; 1376.000; 1374.000
467.912;   89.075; 1658.000; 1539.000
468.031;  129.100; 2038.000; 1930.000
468.150;  141.575; 1842.000; 1837.000
468.269;  193.050; 2313.000; 2090.000
468.388;  205.250; 2168.000; 2339.000
468.507;  245.525; 2884.000; 2903.000
468.626;  233.300; 2555.000; 2541.000
468.744;  139.850; 2018.000; 2174.000
468.863;  199.850; 2312.000; 2523.000
468.982;   98.050; 1503.000; 1555.000
469.101;  211.875; 2788.000; 2692.000
469.220;  140.925; 2333.000; 2176.000
469.338;  255.900; 2935.000; 3051.000
469.457;  167.775; 2719.000; 2545.000
469.576;  351.525; 3953.000; 3784.000
469.695;  218.925; 2877.000; 3066.000
469.813;  428.350; 4148.000; 4192.000
469.932;  414.875; 4255.000; 4485.000
470.051;  434.100; 4075.000; 4161.000
470.169;  778.900; 4470.000; 4338.000
470.288; 1319.100; 4700.000; 4809.000
470.406;  781.175; 5059.000; 5194.000
470.525;  623.850; 6101.000; 5787.000
470.644;  636.400; 6847.000; 6794.000
470.762;  821.825; 8397.000; 7873.000
470.881;  905.675; 8651.000; 8464.000
470.999; 1036.700; 9685.000; 9151.000
471.118; 1098.350;11174.000;10711.000

