
Integration time [ms]: 100.000
Averaging Nr. [scans]: 40
Smoothing Nr. [pixels]: 0
Data measured with spectrometer [name]: 2101012U2
Wave   ;Sample   ;Dark     ;Reference
[nm]   ;[counts] ;[counts] ;[counts] 

197.733;   53.525;  516.000;  404.000
197.879;  -93.650; -610.000; -634.000
198.025;  -52.875; -475.000; -420.000
198.171;  -73.325; -602.000; -612.000
198.317;  -17.025; -401.000; -316.000
198.463;  -73.300; -655.000; -404.000
198.609;   29.025;  181.000; -137.000
198.755;  -88.025; -644.000; -410.000
198.901;  -94.325; -505.000; -424.000
199.047;  -79.650; -615.000; -488.000
199.193;  -32.375; -230.000; -468.000
199.339;  -41.750; -222.000; -369.000
199.485;   35.325;  330.000;  271.000
199.631;   -2.775;  227.000;  310.000
199.777;  -56.550; -466.000; -398.000
199.923;  -62.225; -610.000; -424.000
200.069;    4.000; -141.000;  -58.000
200.215;   40.200;  128.000;  453.000
200.361;   43.375;  243.000;  477.000
200.507;  -78.375; -600.000; -373.000
200.653;  -20.850; -371.000; -194.000
200.798;  -45.600; -215.000; -125.000
200.944;   -4.600; -146.000;  -41.000
201.090;   24.525;   61.000;  222.000
201.236;    8.975; -116.000; -158.000
201.382;  118.150;  874.000;  903.000
201.528;   -2.025;  -58.000;  -48.000
201.674;  -32.325; -386.000; -293.000
201.819;  -74.350; -540.000; -439.000
201.965;  -73.250; -699.000; -447.000
202.111;  -25.675; -273.000; -226.000
202.257;  -46.725; -250.000; -238.000
202.402;    4.150;   13.000;  -36.000
202.548;  -30.775; -169.000; -116.000
202.694;   77.325;  410.000; -183.000
202.840;  -82.000; -603.000; -531.000
202.985;  -68.600; -681.000; -639.000
203.131; -103.100; -832.000; -666.000
203.277;  -25.725; -199.000; -262.000
203.423;  -68.250; -434.000; -520.000
203.568;  -43.900; -462.000; -237.000
203.714;  -73.575; -535.000; -542.000
203.860;  -84.250; -682.000; -641.000
204.005;   14.075;  112.000;  167.000
204.151;   68.625;  561.000;  556.000
204.296;  -59.975; -354.000; -221.000
204.442;  -74.225; -600.000; -547.000
204.588;  -90.600; -592.000; -579.000
204.733;   20.150;  178.000;  168.000
204.879; -141.300;-1018.000; -822.000
205.025;    0.350;  -99.000;  126.000
205.170;   -3.875;  -17.000;   94.000
205.316;   73.600;  438.000;  661.000
205.461;  -81.875; -698.000; -554.000
205.607;   87.600;  609.000;  665.000
205.752;  -82.600; -626.000; -551.000
205.898;  -57.500; -501.000; -391.000
206.043;  -74.800; -578.000; -506.000
206.189;  -40.975; -243.000; -285.000
206.334;   69.325;  554.000;  606.000
206.480;   80.025;  409.000;  239.000
206.625;  -86.950; -529.000; -552.000
206.771;  -43.450; -451.000; -373.000
206.916;  -49.250; -210.000; -537.000
207.062;  -84.850; -545.000; -591.000
207.207;  -72.075; -546.000; -443.000
207.353;   59.000;  185.000;  460.000
207.498;    6.325;  196.000;   85.000
207.643;  -58.250; -501.000; -370.000
207.789; -130.775;-1069.000; -910.000
207.934;  -93.675; -665.000; -713.000
208.080;  -23.025; -154.000;   66.000
208.225;   -9.050;  -22.000;  -57.000
208.370;  -93.175; -727.000; -619.000
208.516;  -86.550; -741.000; -487.000
208.661;  -45.925; -127.000;  -69.000
208.806;  -24.375; -165.000; -171.000
208.952; -133.650;-1044.000; -731.000
209.097;   77.125;  378.000;  349.000
209.242;  -54.400; -307.000; -382.000
209.387;   62.825;  392.000;  350.000
209.533;  -55.425; -321.000; -350.000
209.678;   71.325;  472.000;  543.000
209.823;  -64.125; -408.000; -310.000
209.969;  -97.075; -860.000; -757.000
210.114; -108.875; -907.000; -719.000
210.259; -123.950; -939.000; -889.000
210.404;  -40.725; -171.000;  103.000
210.549;   11.000;  108.000;    3.000
210.695;  -23.475;   -3.000;  -95.000
210.840;   25.525;   94.000;   67.000
210.985;  -80.075; -484.000; -303.000
211.130;   65.950;  268.000;  406.000
211.275;   14.175;  207.000;  199.000
211.420;  -50.425; -300.000; -289.000
211.566;  -79.350; -536.000; -489.000
211.711;   20.875;  218.000;  157.000
211.856;  -70.025; -545.000; -519.000
212.001;    0.250;  151.000;   44.000
212.146;   17.500;  153.000;   49.000
212.291;  -22.550; -210.000; -186.000
212.436;  -34.275; -280.000;   -6.000
212.581;  -79.175; -685.000; -653.000
212.726;  -89.550; -487.000; -538.000
212.871;  -53.525; -552.000; -217.000
213.016; -152.900;-1172.000;-1029.000
213.161;   60.950;  406.000;  291.000
213.306;  -84.250; -435.000; -577.000
213.451; -103.675; -778.000; -689.000
213.596;  -44.900; -455.000; -347.000
213.741;  -54.375; -448.000; -538.000
213.886;  -78.475; -498.000; -517.000
214.031;  -18.050; -294.000; -124.000
214.176;  -53.125; -408.000; -341.000
214.321;  -26.575; -296.000; -157.000
214.466;  -32.000; -163.000;  -43.000
214.611;   -3.350;  -61.000;  -10.000
214.756; -130.300; -948.000; -858.000
214.901;  -33.050; -388.000; -226.000
215.046; -127.250; -797.000; -825.000
215.191;    4.400;  128.000;   35.000
215.336;   -4.425; -157.000;  -19.000
215.480;  -70.425; -684.000; -505.000
215.625;   -8.875; -175.000;  -19.000
215.770;  -88.375; -757.000; -662.000
215.915;  -28.700;   -5.000;  -97.000
216.060;   -7.800; -113.000;  -21.000
216.205; -122.725; -731.000; -779.000
216.349;  -75.000; -470.000; -533.000
216.494; -130.575; -939.000; -867.000
216.639; -135.225; -823.000; -888.000
216.784;  -92.550; -577.000; -525.000
216.929;   41.225;  392.000;  281.000
217.073;  -19.400; -244.000;  -31.000
217.218;   12.450;   78.000;  -47.000
217.363;  -88.950; -656.000; -618.000
217.507;  -74.650; -623.000; -588.000
217.652; -124.800; -845.000; -874.000
217.797;  -82.925; -708.000; -659.000
217.942; -115.925; -856.000; -720.000
218.086;   61.700;  608.000;  539.000
218.231;  -26.200; -174.000;  -26.000
218.376;  -21.350; -337.000; -229.000
218.520;  -12.925;  -41.000;   96.000
218.665;  -41.775; -338.000; -204.000
218.810;  -51.675; -275.000; -233.000
218.954;   14.800;  201.000;   35.000
219.099; -115.075; -713.000; -963.000
219.243;  -75.775; -589.000; -554.000
219.388;  -43.950; -264.000; -136.000
219.532;  -10.900; -116.000; -116.000
219.677;  -88.125; -564.000; -521.000
219.822;   15.300;   33.000;   89.000
219.966;    0.700;   17.000;  -99.000
220.111;  -36.650; -328.000;  -40.000
220.255;  -97.425; -797.000; -750.000
220.400;  -30.400; -180.000; -146.000
220.544;  -78.675; -516.000; -450.000
220.689;  -58.500; -422.000; -451.000
220.833;  -27.850; -123.000;  -58.000
220.978;  -53.475; -393.000; -563.000
221.122;    3.375;  319.000;  307.000
221.267; -119.650; -906.000; -837.000
221.411;  -71.775; -478.000; -394.000
221.555;   -9.425; -104.000;  -23.000
221.700;  -48.525; -329.000; -222.000
221.844;   24.275;  255.000;  272.000
221.989;  -53.225; -328.000; -311.000
222.133;  -30.175; -289.000; -307.000
222.277;  -25.300;    5.000;   78.000
222.422;   25.650;  227.000;  113.000
222.566;  -50.200; -381.000; -214.000
222.711;  -56.475; -414.000; -479.000
222.855;  -93.150; -643.000; -586.000
222.999;  -90.350; -642.000; -717.000
223.144;  -40.150; -195.000; -194.000
223.288;   42.725;  423.000;  251.000
223.432;   18.575;  184.000;  230.000
223.576;    8.600;  152.000;  -21.000
223.721;   31.675;  364.000;  273.000
223.865;  -58.125; -472.000; -475.000
224.009;  227.300; 1673.000; 1631.000
224.153;  -85.300; -660.000; -671.000
224.298;  -69.725; -531.000; -489.000
224.442;  -16.200;  -74.000;  -33.000
224.586;  -22.300; -169.000; -106.000
224.730; -101.100; -858.000; -670.000
224.875; -116.025; -739.000; -688.000
225.019;    9.100;  102.000;  188.000
225.163;   41.750;  208.000;  341.000
225.307;   17.050;   97.000;  -91.000
225.451;   38.075;  360.000;  481.000
225.595;   37.625;  264.000;  176.000
225.739;  -25.375; -170.000;  -94.000
225.884;    6.575;   86.000;    5.000
226.028; -111.100; -760.000; -626.000
226.172;  -45.400; -260.000; -273.000
226.316; -132.125; -941.000; -902.000
226.460;  -73.375; -645.000; -493.000
226.604;  -75.275; -406.000; -400.000
226.748; -109.250; -836.000; -733.000
226.892;  -38.550; -227.000; -181.000
227.036;  -48.200; -537.000; -447.000
227.180;  -62.700; -551.000; -375.000
227.324;  -74.525; -561.000; -580.000
227.468; -111.300; -819.000; -717.000
227.612;    1.300;  242.000;  -28.000
227.756;  -99.500; -845.000; -698.000
227.900;   49.675;  342.000;  441.000
228.044;  -63.275; -509.000; -290.000
228.188;   48.900;  448.000;  568.000
228.332; -112.550; -546.000; -472.000
228.476;  -33.975; -223.000; -149.000
228.620;  -31.125; -210.000; -150.000
228.764;   58.875;  431.000;  349.000
228.908;  -23.225; -155.000;   30.000
229.052;  -69.250; -615.000; -528.000
229.195;  -29.925; -172.000;   13.000
229.339;  -30.375; -235.000; -305.000
229.483;  -29.600;    5.000; -162.000
229.627;   -9.975; -156.000;  139.000
229.771;  -49.275; -218.000; -294.000
229.915;    2.075;  230.000;   79.000
230.059; -109.475; -648.000; -663.000
230.202;  -44.325; -370.000; -317.000
230.346;  -24.300; -107.000;  107.000
230.490;  -67.575; -489.000; -521.000
230.634; -118.400; -736.000; -553.000
230.777;   68.350;  478.000;  509.000
230.921;  -66.975; -450.000; -359.000
231.065;  -49.025; -246.000; -286.000
231.209;   26.925;  261.000;  265.000
231.352;    0.500;   54.000;   40.000
231.496;   13.175;  568.000;  188.000
231.640;  -76.550; -693.000; -621.000
231.783;   55.275;  546.000;  525.000
231.927;  -45.825; -294.000; -365.000
232.071; -126.300; -962.000; -736.000
232.214; -109.975; -980.000; -764.000
232.358; -113.250; -683.000; -599.000
232.502;   -4.300;  -19.000;    7.000
232.645; -144.250;-1090.000; -927.000
232.789;  -31.350; -257.000; -218.000
232.933;  -63.200; -407.000; -224.000
233.076; -134.425;-1038.000; -897.000
233.220; -119.950; -752.000; -777.000
233.363;  -74.300; -669.000; -477.000
233.507;   35.225;  371.000;  129.000
233.650;  -90.050; -764.000; -834.000
233.794;   36.875;  438.000;  461.000
233.938;  -54.500; -530.000; -362.000
234.081;  -26.000;  -93.000;   31.000
234.225;  -63.575; -631.000; -539.000
234.368; -129.475; -773.000; -723.000
234.512;  -43.025; -385.000; -299.000
234.655;  -95.900; -582.000; -555.000
234.798;  -63.875; -493.000; -466.000
234.942; -127.225; -884.000;-1002.000
235.085;  -73.650; -651.000; -443.000
235.229;  -92.700; -405.000; -410.000
235.372;  -49.200; -247.000; -191.000
235.516;  -76.375; -397.000; -321.000
235.659;    7.350;   92.000;  121.000
235.802;  -12.725;  -38.000;  -22.000
235.946;   18.000;  335.000;  215.000
236.089;    9.450;  126.000;  250.000
236.233;   55.225;  275.000;  298.000
236.376;  -55.200; -235.000; -378.000
236.519;  -50.950; -297.000; -319.000
236.663;  -40.600; -215.000; -117.000
236.806; -134.000;-1029.000; -999.000
236.949;   54.075;  543.000;  431.000
237.092;   54.925;  412.000;  391.000
237.236;  -93.550; -589.000; -502.000
237.379;   67.850;  352.000;  428.000
237.522; -129.325; -879.000; -768.000
237.666;  -19.375; -271.000;   18.000
237.809; -133.925; -851.000; -823.000
237.952;   31.600;  469.000;  271.000
238.095;  -79.600; -447.000; -442.000
238.238;   82.300;  688.000;  700.000
238.382;   -0.375;  166.000;  103.000
238.525;  -83.125; -598.000; -511.000
238.668; -154.425;-1060.000; -985.000
238.811;  -90.100; -638.000; -643.000
238.954;  -64.725; -483.000; -334.000
239.097;   78.025;  617.000;  664.000
239.241;   17.400;  394.000;  326.000
239.384;  -42.100; -254.000; -214.000
239.527;  -62.450; -424.000; -224.000
239.670; -133.650; -994.000;-1091.000
239.813; -118.725; -696.000; -658.000
239.956;   72.400;  579.000;  473.000
240.099; -115.025; -778.000; -725.000
240.242;   69.175;  428.000;  432.000
240.385;   27.400;  466.000;  450.000
240.528;  -63.525; -706.000; -473.000
240.671;   17.500;  189.000;  134.000
240.814;  -34.325; -441.000; -158.000
240.957; -102.275; -767.000; -578.000
241.100;  -95.225; -779.000; -755.000
241.243; -161.125;-1234.000; -893.000
241.386;  -71.025; -508.000; -379.000
241.529;  -91.625; -735.000; -547.000
241.672;  -66.725; -566.000; -495.000
241.815; -128.425; -832.000; -808.000
241.958;  -37.575; -125.000; -182.000
242.101;  -85.550; -545.000; -390.000
242.244;  -45.150; -270.000; -325.000
242.387;  -47.450; -304.000; -246.000
242.530;   46.775;  470.000;  134.000
242.673;  -56.825; -381.000; -309.000
242.815; -115.100; -925.000; -899.000
242.958;  -82.225; -482.000; -381.000
243.101;   23.700;  132.000;  187.000
243.244;  -89.875; -564.000; -521.000
243.387;  -49.300; -313.000; -316.000
243.530; -106.200; -657.000; -674.000
243.672;   11.900;   43.000;  -92.000
243.815;  -61.675; -355.000; -283.000
243.958;  -14.725;   98.000;  -26.000
244.101;  -17.500;   59.000;  -16.000
244.243;  -21.375;  -47.000;  101.000
244.386; -114.450; -761.000; -630.000
244.529;  -13.000; -132.000; -139.000
244.672; -169.700;-1154.000; -951.000
244.814;  -94.900; -621.000; -794.000
244.957;  -64.050; -380.000; -304.000
245.100;  -87.750; -489.000; -489.000
245.242;  -71.775; -387.000; -374.000
245.385;   -0.775;  -59.000;  -39.000
245.528; -132.425; -871.000; -705.000
245.670;   95.975;  612.000;  634.000
245.813;  -79.175; -599.000; -547.000
245.956;  -40.150; -324.000; -275.000
246.098;  -79.800; -508.000; -650.000
246.241;    1.975;  194.000;   48.000
246.383;  -18.525; -119.000;  -73.000
246.526;  -78.325; -454.000; -525.000
246.669; -130.200; -889.000; -780.000
246.811;    7.725;  172.000;   -1.000
246.954;  -74.375; -512.000; -426.000
247.096;  -27.225;  -84.000;   -6.000
247.239;  -79.950; -482.000; -445.000
247.381;  -65.300; -647.000; -488.000
247.524;   86.425;  645.000;  679.000
247.666;   -6.550;   58.000;   11.000
247.809; -125.425; -887.000; -691.000
247.951;  -21.200;  -75.000;  138.000
248.094;   29.850;  432.000;  308.000
248.236; -159.250;-1262.000;-1238.000
248.378;    0.475; -356.000;  -81.000
248.521;  -26.425; -334.000; -337.000
248.663;  -42.025; -236.000; -267.000
248.806;  -29.950; -300.000; -266.000
248.948;  -89.750; -886.000; -763.000
249.090;  -56.775; -428.000; -398.000
249.233;  -54.525; -344.000; -381.000
249.375;  -64.600; -474.000; -451.000
249.518;  -38.275;  -83.000; -133.000
249.660;   -6.625; -103.000;    3.000
249.802; -179.725;-1303.000;-1189.000
249.945;  -74.100; -612.000; -540.000
250.087; -120.250; -834.000; -768.000
250.229;  -57.025; -362.000; -480.000
250.371;  -78.125; -494.000; -439.000
250.514;  -35.375; -310.000; -244.000
250.656;  -73.400;   69.000;  102.000
250.798; -129.450; -849.000; -800.000
250.940;  -68.925; -322.000; -322.000
251.083;  -40.825; -335.000; -111.000
251.225;   50.700;  338.000;  310.000
251.367;  -38.075; -274.000; -373.000
251.509;  -36.225; -265.000; -210.000
251.651; -104.625; -731.000; -671.000
251.794;   38.325;  538.000;  632.000
251.936; -103.275; -821.000; -747.000
252.078;  -87.475; -540.000; -461.000
252.220;  -73.000; -645.000; -477.000
252.362;   91.375;  344.000;  462.000
252.504;  -64.900; -677.000; -584.000
252.646; -120.950; -875.000; -722.000
252.788;   -9.650;   14.000; -128.000
252.931;  -42.875; -257.000; -253.000
253.073;  -56.275; -376.000; -317.000
253.215;  -16.025;  141.000;  122.000
253.357;  -15.650;   82.000; -153.000
253.499;  -56.975; -374.000; -234.000
253.641;  -86.375; -749.000; -594.000
253.783; -100.275; -609.000; -527.000
253.925;  -86.975; -586.000; -591.000
254.067; -107.150; -744.000; -667.000
254.209;  -27.725; -391.000; -259.000
254.351; -144.550; -865.000; -883.000
254.493;  -68.450; -441.000; -417.000
254.635; -135.400; -936.000; -818.000
254.777;  -88.275; -752.000; -687.000
254.918;  -79.000; -512.000; -430.000
255.060;  -50.450; -551.000; -395.000
255.202;  -60.150; -473.000; -261.000
255.344;  -77.375; -658.000; -455.000
255.486;  -79.350; -471.000; -406.000
255.628; -107.875; -780.000; -781.000
255.770; -102.550; -676.000; -536.000
255.912;  -66.675; -559.000; -468.000
256.053;  -95.775; -730.000; -508.000
256.195;  144.375; 1008.000;  903.000
256.337; -109.875; -861.000; -595.000
256.479;   54.375;  532.000;  416.000
256.621;  -47.500; -394.000; -212.000
256.762;  -88.700; -789.000; -742.000
256.904;   40.175;  485.000;  487.000
257.046;  -57.500; -381.000; -271.000
257.188;  -54.575; -351.000; -264.000
257.329;  -79.300; -525.000; -464.000
257.471; -124.575; -939.000; -807.000
257.613;  -73.550; -584.000; -498.000
257.755; -157.075;-1073.000; -982.000
257.896;   23.175;  286.000;  392.000
258.038;  -68.000; -403.000; -352.000
258.180;  -57.850; -354.000; -279.000
258.321;  -97.425; -581.000; -457.000
258.463;   -2.175;  -71.000;  133.000
258.605;  -87.450; -562.000; -570.000
258.746; -115.625; -886.000; -772.000
258.888; -150.225;-1026.000;-1020.000
259.029;   13.475;  121.000;   -8.000
259.171;  -98.400; -614.000; -550.000
259.313;   -3.025;  -49.000;  -47.000
259.454;  -83.050; -536.000; -414.000
259.596;  -54.400; -483.000; -390.000
259.737;  -82.025; -590.000; -474.000
259.879;   30.625;  217.000;  311.000
260.020;   94.400;  901.000;  636.000
260.162;  -35.650; -146.000; -253.000
260.303; -119.675; -768.000; -687.000
260.445;  -86.125; -609.000; -613.000
260.586;   24.175;  392.000;  157.000
260.728;  -63.025; -360.000; -248.000
260.869; -113.975; -350.000; -343.000
261.011;   73.700;  706.000;  537.000
261.152;  -76.450; -479.000; -319.000
261.293;  -80.975; -576.000; -595.000
261.435;  -37.250; -219.000; -184.000
261.576;  -51.275; -455.000; -325.000
261.718;   41.500;  420.000;  470.000
261.859; -122.600; -940.000; -949.000
262.000; -140.400; -951.000;-1016.000
262.142;  -27.825;  -52.000;  -60.000
262.283; -127.725; -808.000; -691.000
262.424;  -87.750; -666.000; -625.000
262.566; -164.975;-1161.000; -983.000
262.707; -106.400; -840.000; -830.000
262.848; -130.700; -769.000; -726.000
262.990;  -54.125; -362.000; -345.000
263.131;   74.550;  650.000;  681.000
263.272;   -0.475;  -61.000;  -41.000
263.413;  -95.600; -589.000; -561.000
263.555;  -66.875; -669.000; -143.000
263.696;  -92.625; -550.000; -641.000
263.837;  -62.000; -449.000; -551.000
263.978;   -6.550;   -5.000;  -77.000
264.119;  -29.875; -283.000; -264.000
264.261; -125.525; -847.000; -630.000
264.402;   -8.200;   33.000;   40.000
264.543;  -80.050; -509.000; -524.000
264.684;   -7.125;   61.000;  -50.000
264.825;  -72.725; -816.000; -538.000
264.966;   -3.600;  -84.000;  -67.000
265.107; -121.725; -646.000; -670.000
265.248; -121.175; -825.000; -812.000
265.390;  -23.875;  152.000;   -9.000
265.531;  -21.200; -238.000; -107.000
265.672; -104.350; -557.000; -630.000
265.813;   66.075;  563.000;  439.000
265.954; -149.800; -959.000; -940.000
266.095;  -17.750; -372.000; -322.000
266.236; -103.750; -686.000; -548.000
266.377;  -57.425; -243.000; -297.000
266.518;  -79.825; -619.000; -547.000
266.659;   11.625;  170.000;  268.000
266.800;   -3.900;   83.000;   85.000
266.941;  -65.950; -487.000; -478.000
267.082;   17.825;  354.000;   99.000
267.223;  -52.550; -344.000; -273.000
267.364; -120.975; -892.000; -686.000
267.504;  -12.150;    3.000;  135.000
267.645;  -12.075;  160.000;   67.000
267.786;  -34.250; -147.000;  -86.000
267.927;  -62.525; -473.000; -379.000
268.068;  -18.350; -186.000;  -61.000
268.209;  -60.850; -175.000; -413.000
268.350;  -62.450; -388.000; -532.000
268.490;  -96.475; -648.000; -521.000
268.631;   26.775;  127.000;  225.000
268.772; -109.225; -874.000; -647.000
268.913;  -53.850; -328.000; -476.000
269.054;  -27.350; -117.000;   12.000
269.194;  -39.700; -418.000; -402.000
269.335; -164.725;-1137.000;-1074.000
269.476;  -19.025;   33.000;  -35.000
269.617;  -51.925; -347.000; -392.000
269.757;  -82.575; -713.000; -646.000
269.898; -108.725; -856.000; -613.000
270.039;  -72.125; -415.000; -405.000
270.180; -137.500; -952.000; -816.000
270.320;  -20.250; -190.000; -250.000
270.461;  -52.175; -277.000; -249.000
270.602;  -12.075; -186.000; -156.000
270.742; -119.525; -868.000; -943.000
270.883;  -61.925; -442.000; -390.000
271.023;  -69.325; -358.000; -357.000
271.164;  -80.725; -607.000; -528.000
271.305; -105.750; -666.000; -654.000
271.445;  -83.175; -722.000; -683.000
271.586;  -71.575; -462.000; -283.000
271.726;  -38.075; -397.000; -322.000
271.867;  -64.275; -594.000; -534.000
272.008;  209.225; -473.000; -285.000
272.148;  132.775;  462.000;  468.000
272.289;   12.075; -113.000; -181.000
272.429;   22.725;   19.000;  185.000
272.570;  -86.475; -633.000; -737.000
272.710; -103.425; -825.000; -775.000
272.851;  -29.000;  113.000; -130.000
272.991; -168.900;-1173.000;-1077.000
273.131;  -74.900; -419.000; -459.000
273.272;  -97.875; -683.000; -723.000
273.412;   14.225; -143.000;  -31.000
273.553;  -60.700; -488.000; -507.000
273.693;  137.375;  913.000;  858.000
273.834;  -78.975; -894.000; -692.000
273.974;  -68.650; -664.000; -615.000
274.114;  -98.150; -772.000; -560.000
274.255;   84.950;  414.000;  373.000
274.395;   24.275; -180.000; -125.000
274.535;   49.150;  199.000;  350.000
274.676;    3.050;  225.000;   94.000
274.816;    3.275;  110.000;   34.000
274.956;  -72.300; -624.000; -690.000
275.097;  -61.800;-1014.000; -922.000
275.237; -111.350; -913.000; -803.000
275.377;  -90.350; -778.000; -689.000
275.517; -151.050; -878.000; -937.000
275.658;  -42.050; -590.000; -555.000
275.798;  -76.850; -606.000; -413.000
275.938;    5.175;  215.000;  323.000
276.078; -113.825; -626.000; -395.000
276.218;    8.225;   99.000;  104.000
276.359; -123.225;-1026.000;-1024.000
276.499;  -67.575; -605.000; -446.000
276.639;  -33.900; -305.000; -151.000
276.779;  -58.400; -475.000; -357.000
276.919; -112.050; -783.000; -624.000
277.059;  -20.750; -261.000; -212.000
277.199;  -49.075; -357.000; -259.000
277.340;   53.575;  287.000;  175.000
277.480; -101.275; -840.000; -693.000
277.620;   17.950;  192.000;   16.000
277.760; -192.850;-1533.000;-1294.000
277.900;   23.750;  113.000;   33.000
278.040;   18.150;  137.000;  159.000
278.180;   30.800;  270.000;  170.000
278.320;   -7.625;   21.000;   56.000
278.460;  -68.950; -443.000; -469.000
278.600;  -91.950; -708.000; -598.000
278.740;   39.950;  448.000;  224.000
278.880;  -32.400; -768.000; -791.000
279.020;   -3.075; -194.000; -144.000
279.160;  -91.075; -672.000; -595.000
279.300; -114.475; -926.000; -873.000
279.440;  -83.800; -709.000; -622.000
279.579;   -8.900;-1014.000; -929.000
279.719;  -60.625; -410.000; -394.000
279.859;   83.125;   -4.000;   41.000
279.999;   35.675; -208.000;  101.000
280.139;   -9.950; -435.000; -387.000
280.279;  -69.825; -708.000; -745.000
280.419;  -21.725; -229.000; -147.000
280.559;  -49.125; -259.000; -180.000
280.698;  -90.075; -790.000; -639.000
280.838;  -86.975; -778.000; -800.000
280.978; -102.625; -846.000; -790.000
281.118; -117.900; -811.000; -704.000
281.257;   13.900;   24.000;    6.000
281.397; -100.525;-1094.000; -960.000
281.537;  -70.250; -599.000; -712.000
281.677;  -43.400; -150.000; -101.000
281.816;  -98.125; -700.000; -630.000
281.956;  -37.600; -193.000; -257.000
282.096;  -77.025; -539.000; -396.000
282.235; -104.475; -672.000; -638.000
282.375;  -27.775; -243.000;  -98.000
282.515; -112.325; -715.000; -707.000
282.654;   23.975;   29.000;  106.000
282.794;   11.250;  388.000;  244.000
282.934;  -45.275; -530.000; -491.000
283.073; -143.975;-1030.000; -857.000
283.213;  -60.675; -460.000; -467.000
283.353;  -24.400; -408.000; -349.000
283.492;  -36.700; -264.000; -296.000
283.632;  -51.425; -254.000; -168.000
283.771;  -87.850; -859.000; -730.000
283.911;  -55.700; -369.000; -260.000
284.050; -100.350; -794.000; -748.000
284.190; -159.875;-1229.000;-1096.000
284.329; -132.225;-1055.000; -964.000
284.469;  -69.450; -516.000; -591.000
284.608;  -55.600; -559.000; -598.000
284.748;  -83.400; -614.000; -570.000
284.887;   -1.950;  -87.000;  -20.000
285.027; -138.800; -844.000; -892.000
285.166;  -41.275; -192.000; -249.000
285.306;   17.450; -116.000;  -33.000
285.445;  -45.875; -229.000; -343.000
285.584; -104.400; -630.000; -494.000
285.724;  -55.550; -282.000; -322.000
285.863; -113.725; -857.000; -507.000
286.002;  -51.400; -366.000; -276.000
286.142; -102.050; -715.000; -622.000
286.281;  -68.975; -525.000; -493.000
286.420;  -85.075; -554.000; -417.000
286.560;   98.775;  653.000;  623.000
286.699; -142.600; -958.000; -912.000
286.838;  -80.100; -590.000; -591.000
286.978; -105.100; -533.000; -537.000
287.117; -130.825;-1085.000; -950.000
287.256;  -41.875; -228.000; -211.000
287.395;  -40.275; -197.000; -378.000
287.535;  -46.150; -370.000; -298.000
287.674;  -87.375; -509.000; -484.000
287.813;   46.425;  661.000;  533.000
287.952; -131.250;-1010.000; -871.000
288.091; -154.250;-1049.000; -915.000
288.231;   18.525;   13.000;   15.000
288.370; -177.550;-1217.000;-1200.000
288.509;  -85.375; -728.000; -645.000
288.648;  -90.025; -770.000; -548.000
288.787;  -17.650; -243.000;  -87.000
288.926;  -66.950; -454.000; -475.000
289.065;  120.800;  859.000;  672.000
289.204;  -63.450; -377.000; -217.000
289.344;  -82.350; -791.000; -690.000
289.483;   25.975;  416.000;  304.000
289.622;  -28.025; -291.000; -149.000
289.761;  -34.225; -309.000; -166.000
289.900; -110.875; -785.000; -626.000
290.039;  -36.875;  -12.000;  -95.000
290.178;  -47.775; -274.000; -180.000
290.317;  -99.625; -618.000; -479.000
290.456;  -66.075; -463.000; -451.000
290.595; -145.425; -961.000; -833.000
290.734; -132.900; -904.000; -891.000
290.873;  -72.150; -456.000; -420.000
291.011; -109.550; -833.000; -843.000
291.150; -100.425; -770.000; -682.000
291.289;  -15.600; -343.000; -110.000
291.428;  -96.550; -599.000; -480.000
291.567;  -51.325; -370.000; -442.000
291.706;  -19.350;  109.000;  154.000
291.845;  -82.850; -597.000; -505.000
291.984; -165.125;-1234.000;-1061.000
292.122;   66.275;  602.000;  582.000
292.261;   37.200;  620.000;  463.000
292.400;    5.400; -144.000;  211.000
292.539; -126.575; -959.000; -813.000
292.678;  -29.925; -325.000; -300.000
292.816; -158.825;-1136.000; -965.000
292.955;  -83.200; -844.000; -684.000
293.094;  -13.050; -173.000; -337.000
293.233;  -52.750; -556.000; -400.000
293.371;  -37.600; -225.000;  -84.000
293.510; -100.950; -866.000; -780.000
293.649; -128.100; -959.000; -924.000
293.787;  -27.075;-1083.000;-1012.000
293.926;   -5.675; -113.000;  -32.000
294.065;  -37.875; -379.000; -290.000
294.203;   29.475;  298.000;  406.000
294.342;   21.200;   74.000;  156.000
294.481; 6344.450;51180.000; -836.000
294.619;  -28.050; -425.000; -582.000
294.758; -142.900;-1230.000;-1137.000
294.896;   97.000; -125.000;    5.000
295.035; -120.500;-1040.000;-1006.000
295.174; -114.725;-1082.000; -954.000
295.312;  -32.600; -323.000; -203.000
295.451;  -16.725; -307.000; -428.000
295.589;  -34.200; -389.000; -518.000
295.728;   15.825; -292.000; -165.000
295.866;    9.275;  -36.000;  -51.000
296.005;  -69.275; -584.000; -341.000
296.143;  -63.925; -558.000; -596.000
296.282;  -92.725; -957.000; -881.000
296.420;  -97.100; -657.000; -557.000
296.559;  -68.300; -892.000; -633.000
296.697;   60.050; -847.000; -665.000
296.835;  127.175;-1141.000;-1002.000
296.974;   38.975;  -23.000;   39.000
297.112;   16.875; -443.000; -504.000
297.251;  -55.400; -815.000; -755.000
297.389;  145.225; -576.000; -438.000
297.527;   51.775; -145.000;  -83.000
297.666;  -37.375; -486.000; -438.000
297.804;  -51.900; -404.000; -264.000
297.942;    4.700; -136.000; -161.000
298.081;   -0.150; -183.000;   63.000
298.219;   89.325;  -17.000;  -19.000
298.357;   65.250; -144.000;  -71.000
298.495;   60.675; -810.000; -812.000
298.634;  102.825;  245.000;  219.000
298.772;  106.125; -220.000; -338.000
298.910;  -30.050; -309.000; -182.000
299.048;   -0.625; -130.000; -153.000
299.187;  -35.400; -350.000; -250.000
299.325;   10.850;   52.000;  122.000
299.463;   95.675; -389.000; -299.000
299.601;  161.625; -327.000; -271.000
299.739;  -97.925; -908.000; -883.000
299.877;  -78.525; -791.000; -703.000
300.016;  -26.925;-1095.000; -935.000
300.154;  201.225;  -19.000; -161.000
300.292;   87.425; -428.000; -348.000
300.430;   70.850; -408.000; -291.000
300.568;  -99.200; -940.000; -874.000
300.706;  -46.125; -366.000; -469.000
300.844;  -57.175;-1108.000; -979.000
300.982;  135.375;  246.000;  282.000
301.120; -104.575; -965.000; -866.000
301.258;  -47.825; -812.000; -705.000
301.396;   42.700;  104.000;  -41.000
301.534;  150.975; -218.000; -293.000
301.672;   16.250; -664.000; -521.000
301.810;   95.775; -613.000; -545.000
301.948;  154.975;   53.000;  149.000
302.086;  798.900; -250.000;  -32.000
302.224; 1235.925; -610.000; -585.000
302.362;   86.400; -558.000; -622.000
302.500;    8.350; -923.000; -893.000
302.638;  146.225;  128.000;  245.000
302.776;   -8.325; -352.000; -408.000
302.913;   49.100;  447.000;  236.000
303.051;    5.900;  -86.000;  -23.000
303.189;   68.650;   90.000;  118.000
303.327;  -25.950; -341.000; -256.000
303.465;  -74.875; -832.000; -588.000
303.603;  -87.425; -805.000; -604.000
303.740;  128.900;  417.000;  241.000
303.878;   48.325; -800.000; -759.000
304.016;  -72.675; -915.000; -790.000
304.154; -121.150;-1123.000;-1152.000
304.291;  -22.200; -505.000; -554.000
304.429;    6.675;  102.000;   74.000
304.567; -132.750; -908.000; -893.000
304.705;  -55.625; -408.000; -515.000
304.842;  137.825; -616.000; -540.000
304.980;   52.400;  215.000;   35.000
305.118;   71.900; -367.000; -365.000
305.255;  -60.150; -945.000; -927.000
305.393;   65.975;  178.000;  239.000
305.531;  -96.900;-1173.000; -956.000
305.668;  -67.500; -663.000; -582.000
305.806;  127.325; -358.000; -439.000
305.943;  146.700; -629.000; -637.000
306.081;   87.975; -378.000; -267.000
306.219;  -87.525; -863.000; -748.000
306.356;  -13.650;  158.000;   27.000
306.494;  106.925;  981.000;  761.000
306.631;   -6.175;  -11.000;  -55.000
306.769;   15.700; -613.000; -485.000
306.906;  -11.250; -284.000; -258.000
307.044;  -61.150; -473.000; -488.000
307.181;  -72.800; -410.000; -332.000
307.319;   14.225;  112.000;   87.000
307.456; -157.150;-1191.000;-1153.000
307.594;  -91.050; -980.000; -727.000
307.731;  -10.475; -371.000; -164.000
307.868;    6.300;  -15.000;   20.000
308.006; -132.050; -961.000; -847.000
308.143;  -64.875; -618.000; -330.000
308.281;  206.725;  -37.000; -254.000
308.418;   12.875; -748.000; -640.000
308.555;  -70.200; -400.000; -250.000
308.693;  -72.750; -577.000; -573.000
308.830;  -98.950; -712.000; -657.000
308.967;  -20.500; -215.000;  -95.000
309.105;  -54.475; -507.000; -396.000
309.242;   65.500; -468.000; -367.000
309.379;  414.050; -577.000; -655.000
309.517;  -45.450; -936.000; -948.000
309.654; -107.300; -910.000; -734.000
309.791;  -65.250; -662.000; -580.000
309.928; -109.475; -977.000; -914.000
310.065;  191.975;  819.000;  697.000
310.203;   21.500; -825.000; -850.000
310.340;    6.725; -465.000; -321.000
310.477;  -75.050; -412.000; -516.000
310.614;  -68.300; -383.000; -473.000
310.751;  -84.750; -427.000; -518.000
310.889;  -18.450;    1.000;   11.000
311.026; -149.100;-1161.000; -939.000
311.163;  -43.300; -386.000; -380.000
311.300;  -78.625; -512.000; -479.000
311.437;  -79.925; -658.000; -619.000
311.574; -148.525;-1226.000; -985.000
311.711;  -60.475; -595.000; -433.000
311.848;  -33.925; -380.000; -388.000
311.985;   14.800;  270.000;   93.000
312.122; -133.025; -932.000; -762.000
312.259; -130.150; -941.000; -994.000
312.396;  -84.600; -508.000; -551.000
312.533;  -81.875; -812.000; -790.000
312.670; -137.600;-1070.000; -898.000
312.807;  -43.500; -352.000; -367.000
312.944;  -82.425; -513.000; -611.000
313.081;  -25.775; -150.000; -415.000
313.218; -109.100;-1111.000; -867.000
313.355;   33.650; -531.000; -449.000
313.492;   19.475; -455.000; -292.000
313.629;  126.450;  815.000;  735.000
313.766; -159.275;-1176.000;-1008.000
313.902;   -6.750; -186.000;   21.000
314.039;  -65.550; -372.000; -289.000
314.176;   32.300;  286.000;  192.000
314.313;  -70.125; -569.000; -473.000
314.450;  -70.775; -788.000; -684.000
314.587;  -53.775; -468.000; -480.000
314.723;   23.900;  -78.000;  130.000
314.860;   17.050;  318.000;  332.000
314.997;   34.525;  223.000;  142.000
315.134;  -58.300; -385.000; -368.000
315.270;  -22.175; -480.000; -496.000
315.407; -132.300;-1094.000; -967.000
315.544;  -33.700; -657.000; -538.000
315.681;  -49.950; -681.000; -565.000
315.817;   31.950; -133.000; -176.000
315.954;   23.100; -613.000; -392.000
316.091; -112.275;-1045.000;-1023.000
316.227;  -26.700;  -71.000; -179.000
316.364;  -10.125;   23.000;    6.000
316.500;  -54.100; -113.000; -300.000
316.637;  -48.700; -181.000; -302.000
316.774;  -88.025; -625.000; -358.000
316.910;  -85.825; -598.000; -629.000
317.047;  -71.900; -487.000; -351.000
317.183;  -58.475; -435.000; -566.000
317.320;  -20.275; -367.000; -321.000
317.456;  -73.175; -733.000; -805.000
317.593;  -83.325; -598.000; -641.000
317.729;   15.625;  168.000;  -67.000
317.866; -203.725;-1434.000;-1285.000
318.002;  -94.000; -708.000; -948.000
318.139;  -82.750; -883.000; -867.000
318.275;  -92.125;-1003.000; -738.000
318.412;  -65.525; -517.000; -336.000
318.548;    7.950; -751.000; -720.000
318.685;  -87.875; -985.000; -888.000
318.821; -102.400; -762.000; -735.000
318.957;  -21.800;   34.000;  -23.000
319.094;   42.475;  297.000;  154.000
319.230;  -49.450; -756.000; -742.000
319.367;  174.575; -471.000; -520.000
319.503;   81.175; -538.000; -436.000
319.639;  -89.550; -877.000; -793.000
319.775;  -55.650; -750.000; -685.000
319.912;  -54.175; -424.000; -519.000
320.048;  -74.100;-1184.000;-1184.000
320.184;   78.700;   59.000;   70.000
320.321;  -67.350; -497.000; -467.000
320.457;   60.675;  475.000;  662.000
320.593;  -58.700; -375.000; -382.000
320.729;  -97.350; -732.000; -734.000
320.866;  -82.100; -577.000; -635.000
321.002;  -69.175; -759.000; -809.000
321.138;   -0.375; -135.000; -211.000
321.274;   97.300; -148.000; -115.000
321.410;  -16.225; -585.000; -353.000
321.546;   13.900;-1011.000; -911.000
321.683;   48.700;  400.000;  185.000
321.819;    2.925;  -48.000; -117.000
321.955; -114.150; -743.000; -722.000
322.091;  -29.650; -585.000; -540.000
322.227;  -16.450; -382.000; -202.000
322.363;   -2.875; -320.000; -215.000
322.499;  -61.200; -343.000; -331.000
322.635;  193.650;  636.000;  443.000
322.771;   20.625; -139.000;   12.000
322.907;   88.350;  129.000;  327.000
323.043;  -13.900; -115.000; -206.000
323.179;  -32.650; -394.000; -363.000
323.315;   56.675; -401.000; -371.000
323.451;  151.875; -328.000; -236.000
323.587;   78.150;  -60.000;  -77.000
323.723;   43.900; -682.000; -601.000
323.859;  -16.525; -258.000;  -76.000
323.995;  -23.725; -467.000; -409.000
324.131; -128.825; -967.000; -892.000
324.267;  -51.400; -254.000; -276.000
324.402; -125.150; -960.000; -983.000
324.538;   -7.775; -279.000; -104.000
324.674;   32.900;  164.000;   77.000
324.810;  176.300;  226.000;  308.000
324.946;   32.900; -810.000; -658.000
325.082;  -70.000; -568.000; -475.000
325.217;   -9.875;  -62.000;   16.000
325.353; -100.175; -764.000; -659.000
325.489;  -94.200; -540.000; -506.000
325.625;  -66.900; -579.000; -525.000
325.760;   47.950;  517.000;  376.000
325.896;  -35.100; -515.000; -702.000
326.032;  -38.150; -403.000; -352.000
326.168;  -57.975; -462.000; -369.000
326.303;  -81.175; -352.000; -461.000
326.439;  -36.625; -336.000; -276.000
326.575;   -5.950; -190.000;  -29.000
326.710;    5.075; -156.000;  -30.000
326.846;    0.100;  146.000;  103.000
326.982;  -79.825; -530.000; -548.000
327.117;  -69.825; -481.000; -442.000
327.253;  -79.575; -745.000; -742.000
327.388; -131.925;-1137.000;-1153.000
327.524;  -20.900; -811.000; -578.000
327.659;  -25.950;  -58.000;  -22.000
327.795;  -14.650;   69.000;   45.000
327.931;  -89.425; -723.000; -499.000
328.066;  -15.450; -417.000; -276.000
328.202;   -7.075;   12.000; -129.000
328.337;  107.175;  957.000;  713.000
328.473;   19.200;  -12.000;  -74.000
328.608;  -25.925; -256.000; -267.000
328.743;  -76.125; -799.000; -664.000
328.879;   19.600;  214.000;  114.000
329.014;  -38.650; -102.000; -122.000
329.150;  -80.025; -358.000; -483.000
329.285;  -68.775; -465.000; -466.000
329.421;  -66.425; -548.000; -246.000
329.556;  -28.575;  -36.000;   85.000
329.691; -102.500; -633.000; -615.000
329.827;  -99.225; -626.000; -480.000
329.962;  -37.175;  131.000; -301.000
330.097; -100.750; -673.000; -585.000
330.233;  -43.925; -410.000; -223.000
330.368; -129.300; -839.000; -628.000
330.503;   -4.775;    3.000;   98.000
330.638;    8.225;  -93.000; -125.000
330.774;  -48.375; -609.000; -530.000
330.909;  -61.575; -434.000; -244.000
331.044;  -77.400; -714.000; -708.000
331.179; -169.275;-1217.000;-1109.000
331.315;    8.700;   77.000;   20.000
331.450;    9.250;  157.000;  285.000
331.585;  -82.750; -805.000; -706.000
331.720;  -91.800; -510.000; -460.000
331.855;   -9.500;  -35.000; -102.000
331.990;  209.475;   62.000;  138.000
332.126;  105.600; -110.000;   71.000
332.261;  -30.375; -379.000; -265.000
332.396;  -16.525; -135.000; -242.000
332.531; -109.600;-1074.000;-1031.000
332.666;   27.675; -519.000; -363.000
332.801;  -97.950; -726.000; -807.000
332.936;  -22.150; -192.000; -122.000
333.071; -151.000; -870.000; -817.000
333.206;   25.450;  307.000;  379.000
333.341;   12.775;  344.000;  418.000
333.476;  -83.275; -627.000; -623.000
333.611;  -31.200; -251.000; -173.000
333.746;  -41.975; -381.000; -464.000
333.881; -111.450; -973.000; -935.000
334.016; -107.475; -936.000; -917.000
334.151; -126.750; -746.000; -702.000
334.286;   36.175;  152.000;  186.000
334.421;  -16.450; -125.000; -178.000
334.556;  -75.375; -611.000; -567.000
334.690;  -88.400; -631.000; -577.000
334.825;   58.850;  381.000;   83.000
334.960;  -51.575; -285.000; -413.000
335.095;   22.900;  135.000;  -91.000
335.230;  -97.275; -722.000; -738.000
335.365; -126.500;-1084.000; -990.000
335.499; -119.250;-1108.000;-1037.000
335.634;   38.850;    9.000;  534.000
335.769;  -84.875; -755.000; -720.000
335.904;  -50.400; -603.000; -561.000
336.038;  -63.625; -735.000; -657.000
336.173;  -92.450;-1206.000;-1194.000
336.308;   23.775; -116.000; -189.000
336.443;   23.925; -544.000; -634.000
336.577;  -53.500; -936.000; -787.000
336.712;   91.000;   -4.000;  -12.000
336.847;  -21.075; -724.000; -607.000
336.981;   95.325; -272.000; -208.000
337.116;  312.525;  615.000;  501.000
337.250;  231.025; -434.000; -421.000
337.385;  207.275; -297.000; -208.000
337.520;   70.925; -632.000; -603.000
337.654;  -40.375; -215.000; -126.000
337.789; -114.800; -989.000; -933.000
337.923;  -31.950; -104.000; -205.000
338.058;  -81.900; -673.000; -738.000
338.192;  -32.025; -611.000; -488.000
338.327;   -3.375;  -18.000; -155.000
338.461;  -58.500; -299.000; -469.000
338.596;  -96.625; -780.000; -638.000
338.730;  -99.325; -767.000; -803.000
338.865;   69.400;  -46.000; -140.000
338.999;  -74.975; -846.000; -702.000
339.134;  -33.475; -634.000; -536.000
339.268;   10.425; -741.000; -603.000
339.403;  344.950; -740.000; -775.000
339.537;   80.400; -894.000; -820.000
339.671; -115.525; -829.000; -813.000
339.806;  -76.700; -556.000; -512.000
339.940;    8.875; -261.000; -235.000
340.074;  -90.975; -685.000; -510.000
340.209;  -38.550; -351.000; -230.000
340.343;  -87.700; -517.000; -573.000
340.477;  154.700;  998.000; 1036.000
340.612;  -58.750;-1033.000; -900.000
340.746;  106.225; -199.000; -243.000
340.880;  -56.625; -924.000; -785.000
341.014;  -15.825;  -45.000; -154.000
341.149; -127.925; -756.000; -718.000
341.283; -106.725; -839.000; -754.000
341.417;  -89.850;-1124.000; -938.000
341.551;  194.650; -768.000; -708.000
341.685;  -17.550; -633.000; -611.000
341.820;  -55.950; -562.000; -493.000
341.954;  -48.400; -218.000; -349.000
342.088; -144.750;-1102.000;-1019.000
342.222;   64.075;  565.000;  618.000
342.356;  -49.575; -395.000; -335.000
342.490;  -84.325; -880.000; -841.000
342.624;  -44.650; -339.000; -242.000
342.758;    3.000; -364.000; -312.000
342.892;  -45.675; -710.000; -585.000
343.026;  -41.900;  -58.000; -116.000
343.160;  -65.050; -426.000; -376.000
343.294;  -79.875; -474.000; -337.000
343.428;   -0.425; -488.000; -448.000
343.562;  -18.650; -172.000;  -23.000
343.696;  -14.325; -385.000; -314.000
343.830;  -12.825; -362.000; -356.000
343.964;   12.825; -231.000; -168.000
344.098; 1194.150;  199.000;   70.000
344.232; 1019.600; -266.000; -127.000
344.366;  103.125; -567.000; -453.000
344.500;  119.175; -665.000; -744.000
344.634;   62.875; -324.000; -164.000
344.768;    8.550; -531.000; -341.000
344.902;   26.850;  278.000;  256.000
345.035;  -65.400; -556.000; -496.000
345.169; -133.675; -933.000; -656.000
345.303;    1.475; -308.000; -482.000
345.437;  -67.225; -826.000; -717.000
345.571;  -64.225; -675.000; -594.000
345.704;  -79.575; -309.000; -532.000
345.838;   -8.850; -331.000; -284.000
345.972;  -21.900; -543.000; -495.000
346.106;  159.950; -179.000; -190.000
346.239;  439.950; -312.000; -243.000
346.373;   24.825; -343.000; -302.000
346.507; -133.950; -950.000; -962.000
346.640;  198.150;  -30.000;   13.000
346.774;  -26.800; -650.000; -797.000
346.908;   -5.425; -138.000;  -11.000
347.041;  -98.125; -646.000; -593.000
347.175;   -0.275;  259.000;   27.000
347.309;  -52.050; -698.000; -628.000
347.442;  -88.225; -883.000; -732.000
347.576;  339.975;  670.000;  668.000
347.709;  285.275; -123.000;  -52.000
347.843;  -84.375; -933.000; -825.000
347.976;   39.375;  235.000;  294.000
348.110; -182.875;-1268.000;-1186.000
348.243;  -93.675; -679.000; -772.000
348.377;   -0.375;  -26.000;   60.000
348.510;   60.050;  403.000;  540.000
348.644;  -35.400;  -37.000; -159.000
348.777;    8.525;  180.000;  191.000
348.911;  -45.425; -142.000; -112.000
349.044;  207.025;  471.000;  448.000
349.178;  267.000;-1069.000;-1006.000
349.311;  122.925;  141.000;  255.000
349.444;  -17.350; -927.000; -813.000
349.578;   -7.050; -347.000; -200.000
349.711;  -95.475; -959.000; -862.000
349.845;   27.475; -661.000; -591.000
349.978; -145.675;-1224.000;-1137.000
350.111;  -77.825; -546.000; -612.000
350.244;  -72.775; -596.000; -700.000
350.378;   21.850; -392.000; -393.000
350.511;  -79.650; -393.000; -426.000
350.644; -102.975; -808.000; -806.000
350.778;    3.350;  168.000;  104.000
350.911;    2.550;  134.000;  140.000
351.044;  -87.400; -685.000; -615.000
351.177;  -15.350; -321.000; -281.000
351.310;  -27.400;    3.000; -131.000
351.444;  -55.275; -888.000; -788.000
351.577;  153.725;  140.000;   90.000
351.710;  109.950;  593.000;  417.000
351.843;  -48.075; -165.000;  -77.000
351.976;   -5.625;  149.000;  -79.000
352.109;  -88.225; -621.000; -612.000
352.242;   -9.950; -464.000; -419.000
352.376;  -45.425; -580.000; -636.000
352.509;  258.900; -437.000; -356.000
352.642;   74.800; -654.000; -604.000
352.775;   87.575; -141.000;  -98.000
352.908; -104.275; -933.000; -904.000
353.041;  -87.350; -814.000; -824.000
353.174;  -47.850; -551.000; -424.000
353.307;  -83.725; -753.000; -764.000
353.440;   69.025;  541.000;  453.000
353.573; -100.850; -957.000;-1008.000
353.706;  -42.100; -384.000; -558.000
353.839;  -21.350; -264.000; -220.000
353.971;  -89.025; -657.000; -512.000
354.104;  -81.400; -896.000; -835.000
354.237;  -21.800; -627.000; -662.000
354.370;  -69.725; -846.000; -879.000
354.503; -164.725;-1231.000;-1308.000
354.636;  -28.350; -529.000; -348.000
354.769; -128.600; -937.000; -860.000
354.902;   -0.750; -230.000; -139.000
355.034;  -15.875; -164.000; -220.000
355.167;   -1.025; -262.000; -162.000
355.300;  -92.300;-1061.000; -880.000
355.433;  867.125;  -71.000;  -14.000
355.565; 1343.200; -402.000; -384.000
355.698;  339.500; -356.000; -296.000
355.831;   18.475; -882.000; -801.000
355.964;  114.750; -285.000; -170.000
356.096;  -81.675; -856.000; -843.000
356.229;   24.600; -523.000; -530.000
356.362;  281.375; -373.000; -266.000
356.494;  556.700; -229.000; -162.000
356.627;  595.225;  269.000;  377.000
356.760;  658.725;  120.000;   53.000
356.892;  842.775; -286.000; -601.000
357.025;  836.200;  403.000;  389.000
357.157;  798.800; -167.000; -179.000
357.290;  559.100; -856.000; -713.000
357.423;  180.875; -667.000; -556.000
357.555;  157.000; -217.000; -228.000
357.688;  165.875; -483.000; -364.000
357.820;  595.525; -870.000; -877.000
357.953; 4470.125; -563.000; -589.000
358.085; 1084.375; -632.000; -612.000
358.218; 1659.900;-1131.000; -932.000
358.350;  306.350;  -58.000;  312.000
358.483; -102.575;-1300.000;-1187.000
358.615;   52.650;-1182.000;-1078.000
358.747;  -24.850;-1187.000;-1058.000
358.880;   73.500; -810.000; -744.000
359.012;    4.625; -376.000; -202.000
359.145;  -29.425; -480.000; -511.000
359.277;  108.325; -962.000; -913.000
359.409; 3754.675;  536.000;  231.000
359.542; 1029.475; -738.000; -688.000
359.674;   81.450;   46.000;   13.000
359.806;  -49.275; -565.000; -438.000
359.939;  -42.925; -617.000; -516.000
360.071;  -18.375; -583.000; -579.000
360.203;  -11.375; -411.000; -364.000
360.335;   50.875;  164.000;  -16.000
360.468;  243.050; -249.000; -307.000
360.600; 2896.925; -547.000; -454.000
360.732; 2543.350; -546.000; -423.000
360.864;  343.125;-1216.000;-1044.000
360.996;  394.950; -516.000; -554.000
361.129;   85.025; -389.000; -598.000
361.261;   29.225;  110.000; -113.000
361.393;  -18.450; -252.000; -214.000
361.525;   47.000;   94.000;  244.000
361.657;  -28.400; -821.000; -703.000
361.789;   22.475; -139.000; -155.000
361.921;  323.075; -642.000; -593.000
362.053;  316.675;  524.000;  541.000
362.185;   67.725;  288.000;   72.000
362.318;  -69.850; -709.000; -705.000
362.450;  168.550;  294.000;  444.000
362.582;  237.225; -913.000; -870.000
362.714;  -21.750; -353.000; -332.000
362.846;  -92.850; -606.000; -490.000
362.978; -141.725; -941.000; -811.000
363.109;   76.550; -161.000; -260.000
363.241;  590.900; -739.000; -749.000
363.373;  421.425; -649.000; -564.000
363.505;  581.800; -186.000;  -91.000
363.637;  165.275; -787.000; -601.000
363.769; -116.675;-1067.000;-1080.000
363.901;  -57.125; -596.000; -654.000
364.033; -103.225;-1103.000;-1062.000
364.165;   -0.400; -283.000; -283.000
364.296;   68.550; -316.000; -177.000
364.428;   45.825;-1344.000;-1220.000
364.560;  -69.925; -679.000; -661.000
364.692;  -53.375; -738.000; -835.000
364.824;  401.275; -588.000; -456.000
364.955;  454.425; -402.000; -564.000
365.087;  723.100;-1097.000; -852.000
365.219;   18.875; -686.000; -816.000
365.351;  -82.325; -526.000; -572.000
365.482;   55.400;  300.000;  240.000
365.614;  -48.350; -402.000; -314.000
365.746;  -87.750; -729.000; -752.000
365.877; -103.100; -706.000; -672.000
366.009;  206.700;  -35.000;  -62.000
366.141;  -86.600;-1249.000;-1134.000
366.272; -103.250; -803.000; -719.000
366.404; -117.450;-1005.000; -874.000
366.535;   -7.575; -139.000;  -12.000
366.667;  -99.900; -644.000; -649.000
366.799;   30.575;  353.000;  203.000
366.930; -117.800; -862.000; -996.000
367.062;  133.325; -639.000; -613.000
367.193;  123.475; -872.000; -842.000
367.325;  -69.050; -580.000; -684.000
367.456;  113.925; -246.000;   31.000
367.588;  146.275; -371.000; -318.000
367.719;   13.400;  -44.000;  -45.000
367.851;    6.200; -222.000; -241.000
367.982;  -22.025; -875.000; -732.000
368.113;  152.200; -475.000; -358.000
368.245; -104.600; -960.000; -841.000
368.376;   -5.150; -254.000; -302.000
368.508;  -24.625; -188.000; -263.000
368.639; -133.775;-1166.000;-1034.000
368.770;   -1.850; -670.000; -589.000
368.902;  -29.450; -836.000; -926.000
369.033; -107.650; -906.000; -855.000
369.164;  -54.800; -720.000; -653.000
369.296; -107.750; -452.000; -601.000
369.427;   16.125; -209.000; -144.000
369.558;  -48.050; -593.000; -377.000
369.689;  -85.175; -721.000; -569.000
369.821; -125.175; -951.000; -845.000
369.952;  -14.925;   42.000; -108.000
370.083;  -55.800; -229.000; -108.000
370.214;  -73.150; -735.000; -650.000
370.345;    0.750;   65.000;   81.000
370.477;  -67.650; -810.000; -790.000
370.608;  321.150; -328.000; -264.000
370.739;    3.875;-1233.000;-1292.000
370.870;  -23.350;-1102.000; -923.000
371.001;  141.600; -378.000; -467.000
371.132;  -68.800; -754.000; -735.000
371.263;  -20.625;  -42.000; -148.000
371.394; -148.125; -841.000; -748.000
371.525;   31.675;  345.000;  225.000
371.657;  -88.600; -808.000; -670.000
371.788;   84.725;  103.000;  199.000
371.919;  255.825; -384.000; -304.000
372.050; 4623.650;  -91.000; -156.000
372.181; 1427.200; -188.000; -294.000
372.311;  528.625;   42.000; -127.000
372.442;   75.200; -457.000; -451.000
372.573;  -10.425; -444.000; -340.000
372.704; -118.300;-1008.000; -980.000
372.835;  119.625; -228.000; -289.000
372.966;  -45.725; -646.000; -554.000
373.097;  -27.225; -575.000; -711.000
373.228;   -4.725; -717.000; -542.000
373.359;  219.300; -824.000; -536.000
373.490; 1268.050; -881.000; -727.000
373.620; 1580.525;-1001.000; -803.000
373.751; 2394.300; -332.000; -396.000
373.882; 1116.900; -663.000; -733.000
374.013;  110.475; -449.000; -262.000
374.143;   -2.075; -581.000; -659.000
374.274;  -98.875; -987.000; -908.000
374.405;  242.975; -388.000; -276.000
374.536;  597.225; -526.000; -387.000
374.666; 1572.250; -759.000; -807.000
374.797;  358.850; -817.000; -868.000
374.928; 1199.750; -710.000; -560.000
375.058; 1223.675; -535.000; -500.000
375.189;  109.600;  -59.000;  -93.000
375.320;  -91.500; -928.000;-1034.000
375.450;  -23.875; -625.000; -616.000
375.581;  -50.025; -526.000; -436.000
375.712;   -9.625; -574.000; -250.000
375.842;  426.800; -438.000; -415.000
375.973;  332.425; -554.000; -513.000
376.103;    4.050; -665.000; -648.000
376.234;  -70.025; -531.000; -552.000
376.364;   -0.025; -944.000; -867.000
376.495;  402.650;  925.000;  529.000
376.625;   30.300; -472.000; -485.000
376.756;  128.250; -709.000; -678.000
376.886;  -42.300;-1178.000;-1026.000
377.017;   30.525;-1048.000;-1061.000
377.147;  280.025; -786.000; -782.000
377.278;   58.950;  174.000;  228.000
377.408; -128.700; -801.000; -815.000
377.538;  -97.125; -707.000; -693.000
377.669;  -64.325; -537.000; -613.000
377.799;  -72.925; -645.000; -635.000
377.929;  -36.275; -610.000; -428.000
378.060; -123.150; -781.000; -847.000
378.190;  -73.550; -726.000; -531.000
378.320;  -50.550; -401.000; -406.000
378.451;  -11.975; -131.000;  -22.000
378.581;    7.875;  -67.000; -110.000
378.711;  181.325; 1035.000;  866.000
378.841;    5.750; -533.000; -675.000
378.972;  -41.275; -871.000; -751.000
379.102;   23.175; -652.000; -579.000
379.232;  -12.950; -126.000;  -73.000
379.362; -102.400;-1001.000; -885.000
379.492;   49.175; -373.000; -424.000
379.623;  139.625;    0.000;  111.000
379.753;  -81.550;-1107.000; -974.000
379.883;  255.475;   59.000;  156.000
380.013;   51.775;-1081.000;-1017.000
380.143;  -82.800;-1097.000;-1056.000
380.273;  -91.275; -985.000; -861.000
380.403;    5.400; -344.000; -257.000
380.533;   -6.675; -651.000; -664.000
380.663;  106.075;  173.000;  128.000
380.793;  -57.700;-1027.000;-1074.000
380.923;  -20.025; -103.000;  -34.000
381.053;  -87.425; -613.000; -623.000
381.183;  -25.175; -106.000; -248.000
381.313;   68.625; -656.000; -470.000
381.443;   87.725; -692.000; -473.000
381.573;  306.475; -402.000; -409.000
381.703;  464.425;-1249.000;-1095.000
381.833;  -99.100;-1454.000;-1336.000
381.963;  146.200; -134.000;  -87.000
382.093; 1781.100; -925.000; -909.000
382.223;  596.575; -713.000; -602.000
382.353;   20.800; -801.000; -608.000
382.482;  541.975;-1091.000; -964.000
382.612; 1002.500; -872.000; -644.000
382.742;  594.800; -695.000; -622.000
382.872;  397.050; -565.000; -551.000
383.002;   83.100;  347.000; -132.000
383.131;   -8.450; -226.000; -160.000
383.261;  -26.725; -706.000; -768.000
383.391;  308.125; -552.000; -377.000
383.521; 2772.150;  451.000;  263.000
383.650;  613.250; -947.000; -904.000
383.780;  -18.050; -783.000; -656.000
383.910;  117.850;  880.000;  802.000
384.039;   59.925; -794.000; -656.000
384.169;  332.850;-1205.000;-1017.000
384.299;   12.650; -650.000; -662.000
384.428;  -85.350; -764.000; -680.000
384.558;  -44.200; -308.000; -275.000
384.687;  -32.575; -414.000; -334.000
384.817;   37.375;   75.000;   -2.000
384.947;   38.075; -234.000; -141.000
385.076;  338.625;  982.000;  912.000
385.206;  125.650;  369.000;  480.000
385.335;  -14.825; -549.000; -417.000
385.465;  -64.225; -655.000; -663.000
385.594;  183.200;  -53.000;  -44.000
385.724;  645.725; -868.000; -838.000
385.853;  165.100; -296.000; -270.000
385.982; 1817.150; -743.000; -787.000
386.112; 2904.575;-1052.000; -871.000
386.241;  205.375; -307.000; -312.000
386.371;   36.600; -174.000;  -87.000
386.500;   21.425; -825.000; -789.000
386.629;   44.925; -874.000; -817.000
386.759;   59.050;  -43.000;   68.000
386.888;   10.525; -170.000; -250.000
387.017;  -63.100; -648.000; -620.000
387.147;  -68.950; -771.000; -798.000
387.276;   -0.225; -410.000; -397.000
387.405;   41.050; -398.000; -342.000
387.535;  -34.525; -452.000; -361.000
387.664;  -62.875; -692.000; -620.000
387.793;   84.125; -198.000; -113.000
387.922;  698.400;  255.000;  200.000
388.052;   47.575; -576.000; -423.000
388.181;   52.250; -342.000; -472.000
388.310;   50.650; -889.000; -710.000
388.439;  -21.600; -749.000; -742.000
388.568;  246.250;  365.000;  244.000
388.697; 1440.625; -756.000; -653.000
388.826;  329.500; -768.000; -666.000
388.956;  115.750; -285.000; -307.000
389.085;  -17.775; -347.000; -287.000
389.214; -105.350; -842.000; -872.000
389.343;  -56.500; -645.000; -413.000
389.472;  365.650;  126.000;  149.000
389.601;  516.200;   91.000;    0.000
389.730;   42.600; -568.000; -687.000
389.859;   84.925;  226.000;   46.000
389.988;  247.500; -423.000; -408.000
390.117;  203.600; -168.000; -146.000
390.246;   12.450; -331.000; -320.000
390.375;  175.125; -673.000; -626.000
390.504;  -40.900; -703.000; -621.000
390.633;  -92.675; -672.000; -726.000
390.761;  -39.525; -732.000; -645.000
390.890;   38.200;   -4.000; -130.000
391.019;   -8.875; -421.000; -441.000
391.148; -126.950; -826.000; -855.000
391.277;  -62.175; -576.000; -493.000
391.406;  -60.500; -821.000; -805.000
391.534;   27.575;  574.000; -301.000
391.663;  -53.600; -583.000; -645.000
391.792;  -80.100; -673.000; -701.000
391.921;  166.650;   -3.000;   15.000
392.050;  295.150; -287.000; -228.000
392.178;    7.550;-1206.000;-1061.000
392.307;  233.275; -758.000; -712.000
392.436;  130.700; -427.000; -641.000
392.564;   14.000;  166.000;   -6.000
392.693;  -82.225; -860.000; -682.000
392.822;  303.800; -529.000; -534.000
392.950;  166.000; -880.000; -714.000
393.079;  451.675; -188.000; -328.000
393.208;   59.875; -488.000; -511.000
393.336;    1.750; -170.000; -145.000
393.465;  -55.575; -317.000; -199.000
393.593;   -3.300;   62.000;   79.000
393.722; -148.650;-1121.000; -916.000
393.850;  -40.750; -188.000;  -61.000
393.979; -150.175; -926.000; -805.000
394.107;  -59.525; -517.000; -537.000
394.236;   -5.625; -570.000; -507.000
394.364;  247.175;  383.000;  206.000
394.493;  459.475; -911.000; -767.000
394.621;   -0.250; -955.000; -916.000
394.750;  599.775; -873.000; -923.000
394.878; 2640.950; -247.000; -149.000
395.007; 3611.950; -721.000; -807.000
395.135;  286.925; -790.000; -721.000
395.263;  -91.150;-1038.000;-1040.000
395.392;    6.500;  -25.000; -107.000
395.520; -142.600; -818.000; -679.000
395.648;  -57.550; -865.000; -915.000
395.777;   11.950; -366.000; -405.000
395.905;  -31.050; -449.000; -564.000
396.033;   21.725;  217.000;  172.000
396.162;  745.250; -399.000; -453.000
396.290;  668.200;  -17.000;   -2.000
396.418;  170.525; -555.000; -514.000
396.546;  -48.500; -571.000; -466.000
396.674;  -83.575; -850.000; -878.000
396.803;   18.675;  -72.000;  -23.000
396.931;  140.125; -179.000; -199.000
397.059;  136.875;-1026.000; -989.000
397.187;  -94.500;-1026.000; -975.000
397.315; -130.350; -884.000; -649.000
397.443;  -92.875; -592.000; -443.000
397.572;  -99.400; -578.000; -424.000
397.700;   20.975; -607.000; -614.000
397.828;   33.250;  120.000;  -90.000
397.956;  -58.850; -508.000; -478.000
398.084;  -81.150; -767.000; -626.000
398.212;   60.350;  137.000;  124.000
398.340;   19.175;  -56.000;  159.000
398.468;   70.650; -390.000; -169.000
398.596; -137.100; -993.000; -953.000
398.724; -118.900; -762.000; -767.000
398.852; -162.725;-1024.000; -976.000
398.980;  -50.100; -560.000; -560.000
399.108;  -17.550; -982.000; -735.000
399.236;   62.200;   13.000;    8.000
399.363;   17.050;  222.000;  196.000
399.491;  -70.625; -404.000; -398.000
399.619; -125.550; -829.000; -800.000
399.747;  -97.025; -859.000; -771.000
399.875;   88.750;  220.000;  234.000
400.003;  -36.625; -359.000; -284.000
400.130;  -90.775; -421.000; -341.000
400.258;  -32.050;  -83.000;   38.000
400.386;  -78.050; -352.000; -168.000
400.514;  -32.025; -526.000; -587.000
400.641;  -75.075; -928.000; -802.000
400.769; -144.650; -979.000; -888.000
400.897; -107.125; -838.000; -793.000
401.025;   -6.000; -166.000; -152.000
401.152;  -10.375;  220.000;   38.000
401.280;  -80.550; -430.000; -429.000
401.408; -123.300; -712.000; -576.000
401.535;  -94.575; -735.000; -758.000
401.663; -197.975;-1134.000;-1054.000
401.790;  -78.450; -514.000; -525.000
401.918;   33.700;  436.000;  405.000
402.046;  -27.025;  134.000;  122.000
402.173;  -38.100;  -18.000;    7.000
402.301;  -67.525; -519.000; -397.000
402.428;   20.700;  528.000;  383.000
402.556; -143.675;-1188.000; -913.000
402.683;  -35.275;  -20.000;   -1.000
402.811;  -29.525;  -37.000; -206.000
402.938;  -16.000;   20.000;   27.000
403.066;  275.700; -574.000; -558.000
403.193;  440.625;  299.000;  239.000
403.321;  370.700; -396.000; -574.000
403.448;  422.525;   83.000;   27.000
403.575;  199.900;  -90.000;  -46.000
403.703; -104.600; -732.000; -557.000
403.830;  -55.925; -531.000; -496.000
403.957; -147.725;-1117.000;-1023.000
404.085;   24.525;  -61.000; -172.000
404.212;  111.100;  -50.000;   63.000
404.339;  233.300; -566.000; -306.000
404.467; 5078.975; -612.000; -524.000
404.594; 3807.300; -287.000; -227.000
404.721; 1046.325; -869.000; -764.000
404.848;   85.600; -113.000; -202.000
404.976;  -92.700; -856.000; -783.000
405.103;  -11.875;  -14.000;  -82.000
405.230;   -9.675;  190.000;  226.000
405.357;   11.275;  117.000;   44.000
405.484;  210.350;  -49.000;    5.000
405.612;   38.675; -548.000; -563.000
405.739;  -65.875; -488.000; -243.000
405.866;   92.175;  669.000;  385.000
405.993;  -40.050; -398.000; -102.000
406.120; -139.050; -801.000; -887.000
406.247;  -52.275; -323.000; -342.000
406.374;  575.025;  540.000;  629.000
406.501;  204.450; -632.000; -702.000
406.628;  -70.650; -621.000; -589.000
406.755;  -94.525; -803.000; -620.000
406.882;  -28.675; -228.000; -277.000
407.009; -111.075; -719.000; -628.000
407.136;   83.775; -480.000; -401.000
407.263;  237.950; -939.000; -829.000
407.390;  -53.350; -692.000; -614.000
407.517; -165.225;-1139.000;-1187.000
407.644;  -53.425; -332.000; -256.000
407.771;  -60.950; -249.000; -287.000
407.898;    8.500;  168.000;  328.000
408.025;  -53.375; -421.000; -313.000
408.151;   -7.075;   82.000;  153.000
408.278;  -72.625; -267.000; -216.000
408.405; -100.550; -931.000; -899.000
408.532;  -80.400; -549.000; -542.000
408.659; -108.675; -677.000; -648.000
408.785; -201.775;-1298.000;-1170.000
408.912;  -61.475; -412.000; -296.000
409.039; -110.250; -610.000; -686.000
409.166;  -99.075; -591.000; -555.000
409.292; -115.550; -571.000; -534.000
409.419; -122.825; -665.000; -649.000
409.546; -101.650; -431.000; -192.000
409.672; -114.775; -713.000; -545.000
409.799;  -27.225;  -36.000;   34.000
409.926;  -29.150; -180.000; -179.000
410.052; -181.125;-1127.000;-1091.000
410.179;  -55.375; -368.000; -392.000
410.305;  -98.350; -375.000; -493.000
410.432;  -39.675; -220.000; -333.000
410.558;  -92.700; -305.000; -380.000
410.685; -103.975; -688.000; -431.000
410.812; -115.100; -409.000; -588.000
410.938; -146.825; -964.000; -808.000
411.065;  -96.425; -671.000; -645.000
411.191;  -25.325; -189.000; -174.000
411.317; -114.625; -823.000; -742.000
411.444;  -61.450; -317.000; -246.000
411.570;  -73.675; -339.000; -294.000
411.697; -124.775; -758.000; -752.000
411.823; -167.175; -989.000; -999.000
411.949;  -19.250;  -56.000;   17.000
412.076; -118.875; -539.000; -519.000
412.202; -100.375; -758.000; -757.000
412.329; -137.725; -798.000; -752.000
412.455; -113.075; -821.000; -657.000
412.581;  -15.550;  -15.000;  172.000
412.707;  -50.600; -540.000; -457.000
412.834;   14.250;  156.000;  219.000
412.960;  -76.150; -785.000; -784.000
413.086;  -96.650; -743.000; -701.000
413.212;  184.900;  604.000;  578.000
413.339;  -46.275; -685.000; -701.000
413.465;   44.625; -364.000; -310.000
413.591;  -76.075; -757.000; -474.000
413.717;  -63.325; -358.000; -366.000
413.843; -142.800; -839.000; -861.000
413.969;  -53.425;  -47.000; -292.000
414.096; -111.250; -679.000; -679.000
414.222;  -11.275;  -33.000;   85.000
414.348;  -12.700; -652.000; -385.000
414.474;  150.200;   38.000;  -52.000
414.600;  -15.625; -126.000; -144.000
414.726;  -20.675;  -96.000;  -55.000
414.852;  -67.150; -365.000; -342.000
414.978;   32.200;  104.000;  -18.000
415.104;   32.775;   38.000;   80.000
415.230;   30.850; -329.000; -330.000
415.356;   56.375; -409.000; -514.000
415.482;  197.925;   13.000;  -35.000
415.608;  259.125; -247.000; -323.000
415.734;  914.800;   67.000;   38.000
415.860;18331.700; -875.000; -767.000
415.986;13892.900; -685.000; -607.000
416.111; 1200.275; -798.000; -652.000
416.237;  227.625; -424.000; -571.000
416.363;  971.175; -765.000; -733.000
416.489; 3773.350; -324.000; -251.000
416.615;  406.525; -707.000; -742.000
416.741;  -31.500; -677.000; -784.000
416.866;  -93.825; -673.000; -736.000
416.992; -126.925; -801.000; -818.000
417.118;  -41.975;  -41.000;  -80.000
417.244;  -67.950; -798.000; -531.000
417.369;  -79.500; -801.000; -612.000
417.495;    3.275; -325.000; -254.000
417.621;  -76.450;-1015.000; -803.000
417.746;    1.225; -579.000; -572.000
417.872;   45.250; -254.000; -144.000
417.998;   25.950; -515.000; -530.000
418.123;  874.875;-1073.000; -845.000
418.249; 4867.900; -512.000; -601.000
418.374;  694.525; -916.000; -824.000
418.500;   93.225; -383.000; -482.000
418.626;  105.325;   70.000;  -59.000
418.751;  130.375; -549.000; -448.000
418.877;  183.675; -637.000; -643.000
419.002; 1522.825; -688.000; -560.000
419.128;11280.875; -930.000; -721.000
419.253; 2887.075; -967.000; -837.000
419.379;  368.650; -391.000; -338.000
419.504;  358.375;  325.000;  415.000
419.629;  457.225; -393.000; -212.000
419.755; 2953.950; -317.000; -254.000
419.880;18280.875;  -98.000;   67.000
420.006;10259.675; -280.000; -221.000
420.131;27061.875; -662.000; -775.000
420.256; 4101.350; -315.000; -316.000
420.382;  539.000; -665.000; -687.000
420.507;   74.375; -649.000; -778.000
420.632;  193.825; -337.000; -339.000
420.758;  385.000; -251.000; -425.000
420.883;  -78.850; -876.000; -672.000
421.008; -100.400; -775.000; -619.000
421.133;  -76.225; -509.000; -467.000
421.259;  -53.450; -325.000; -259.000
421.384; -119.375; -834.000; -693.000
421.509;   -9.350;-1052.000; -862.000
421.634; 1686.450; -936.000; -820.000
421.759;  775.500; -359.000; -327.000
421.885;  -25.450; -717.000; -656.000
422.010;  -60.450; -673.000; -542.000
422.135; -150.025; -695.000; -727.000
422.260;   33.950;  340.000;  280.000
422.385;  -43.550;   12.000;  -98.000
422.510;    2.650;  151.000;  -26.000
422.635;   17.100;  -87.000;  -43.000
422.760;  140.700; -766.000; -791.000
422.885;   58.575;  -57.000;  -80.000
423.010;  -44.175; -112.000; -169.000
423.135;  -91.575; -481.000; -561.000
423.260;   11.450; -150.000; -245.000
423.385;   73.225;  476.000;  222.000
423.510;   44.000;   71.000;  -22.000
423.635;  105.175;  133.000;   45.000
423.760;   57.625;  383.000;  328.000
423.885;   48.525;  336.000;  391.000
424.010;   24.700;  -68.000;  -13.000
424.135;   -9.525;    5.000;  -33.000
424.259;  -90.675; -654.000; -457.000
424.384;  -60.400; -279.000; -272.000
424.509;  -23.725; -260.000; -186.000
424.634;  -92.950; -761.000; -623.000
424.759;  -22.300; -688.000; -544.000
424.883;  -19.625; -506.000; -527.000
425.008;  152.450; -502.000; -410.000
425.133; 1800.400; -679.000; -653.000
425.258;  908.975; -517.000; -381.000
425.382; 1248.000; -867.000; -774.000
425.507; 3407.550; -487.000; -543.000
425.632;  540.475; -802.000; -663.000
425.756;  409.625; -256.000; -146.000
425.881; 5320.975; -831.000; -857.000
426.006;15040.275; -604.000; -355.000
426.130; 2541.650; -696.000; -508.000
426.255;  331.675; -611.000; -491.000
426.379;  133.825; -189.000; -577.000
426.504;  333.950;  660.000;  544.000
426.629; 3712.375; -519.000; -466.000
426.753; 2703.125;   64.000;  -46.000
426.878;  318.300; -252.000; -288.000
427.002;  134.950; -651.000; -668.000
427.127; 1449.450;  -35.000; -158.000
427.251;10206.650;  372.000;  401.000
427.375; 3125.625; -191.000; -173.000
427.500; 2834.450; -616.000; -610.000
427.624; 1030.500; -234.000; -400.000
427.749;  120.050; -216.000; -225.000
427.873;  -19.000; -499.000; -412.000
427.997;  -33.550; -222.000; -230.000
428.122;   75.700;  795.000;  703.000
428.246;   93.350;  433.000;  434.000
428.371; -118.950; -869.000; -773.000
428.495; -108.025; -624.000; -646.000
428.619;  -33.475; -186.000; -117.000
428.743;   20.450;   65.000;  132.000
428.868;   55.875; -732.000; -643.000
428.992; 1790.800; -219.000; -326.000
429.116;  800.050; -329.000; -357.000
429.240;  351.300;  419.000;  426.000
429.365;  -11.850; -454.000; -574.000
429.489;  -27.700; -638.000; -647.000
429.613;   13.000; -236.000; -177.000
429.737;   24.975; -563.000; -432.000
429.861;  234.225; -247.000; -133.000
429.985; 4949.300; -425.000; -305.000
430.109; 5714.475; -770.000; -908.000
430.234;  695.850;   76.000;  -50.000
430.358;   52.650; -250.000; -160.000
430.482;  -69.575; -672.000; -564.000
430.606;  -64.850; -655.000; -375.000
430.730;   50.900; -437.000; -388.000
430.854;  215.050; -909.000; -835.000
430.978;  -58.600; -795.000; -764.000
431.102;  -89.300; -499.000; -422.000
431.226; -125.125; -874.000; -815.000
431.350;   19.825;  345.000;  422.000
431.474;  -71.000; -661.000; -373.000
431.597; -157.050;-1060.000; -848.000
431.721;  -72.625; -276.000; -267.000
431.845; -140.900; -704.000; -472.000
431.969;  -81.475; -304.000; -349.000
432.093; -105.100; -395.000; -317.000
432.217;   -5.900;   32.000;   82.000
432.341;  -84.800; -523.000; -518.000
432.464;   14.225;   96.000;   40.000
432.588;  298.275; -401.000; -329.000
432.712;  154.250;  -52.000;  -52.000
432.836;   36.100;  213.000;  263.000
432.959;  -36.875; -372.000; -311.000
433.083;   62.900;   11.000;    2.000
433.207;  333.250;  285.000;  930.000
433.330; 4359.200; -391.000; -200.000
433.454; 5676.700; -654.000; -638.000
433.578; 3319.225;  583.000;  278.000
433.701;  671.150; -623.000; -675.000
433.825;  208.350; -292.000; -299.000
433.949;  301.475;   28.000;  -72.000
434.072;  144.375; -410.000; -323.000
434.196;   11.900; -309.000; -117.000
434.319; 3733.225;25482.000;25124.000
434.443;  739.500; -656.000; -603.000
434.566; 2447.200;  281.000;   62.000
434.690;  433.525; -637.000; -383.000
434.813;   47.725; -251.000; -173.000
434.937;  -67.400; -569.000; -696.000
435.060;  -21.325; -423.000; -332.000
435.184;  508.775; -492.000; -217.000
435.307;  286.325;  159.000;  102.000
435.431;   -1.400;  -40.000;   24.000
435.554;  -69.625; -399.000; -240.000
435.677;  -99.250; -350.000; -258.000
435.801;  -49.950;  -25.000;   49.000
435.924;    5.700;    1.000;  -67.000
436.048;  -84.325;-1019.000; -732.000
436.171;  -54.100; -240.000;  -66.000
436.294;  -33.625; -248.000; -229.000
436.417;   60.600; -963.000; -849.000
436.541;  -86.550; -814.000; -840.000
436.664;  -49.150; -242.000; -316.000
436.787;  -31.525;   13.000;  113.000
436.910; -105.850; -792.000; -422.000
437.034;   10.400;  142.000;  143.000
437.157;   85.425;  -11.000;    0.000
437.280;  -32.600; -392.000; -292.000
437.403;  -48.700; -982.000; -869.000
437.526;  950.675; -903.000; -865.000
437.649; 3388.550; -505.000; -332.000
437.772;  588.150; -692.000; -540.000
437.896;  152.750;  700.000;  544.000
438.019;  -88.975; -758.000; -503.000
438.142;  -74.725; -596.000; -506.000
438.265;   19.450; -639.000; -670.000
438.388;  818.975; -520.000; -410.000
438.511;  202.000; -597.000; -394.000
438.634;  -17.525; -247.000; -125.000
438.757; -126.625; -693.000; -619.000
438.880;  -19.900;  -34.000;  -57.000
439.003;  -81.025; -417.000; -437.000
439.126;  -61.775; -287.000; -167.000
439.248;  -58.550;  -98.000; -139.000
439.371;  -44.175;    9.000;  -53.000
439.494;   10.375;  510.000;  439.000
439.617;  -52.200;   65.000;  -88.000
439.740; -181.300; -968.000; -816.000
439.863; -155.900; -755.000; -595.000
439.986; -134.850; -476.000; -431.000
440.108;  -53.250; -161.000; -112.000
440.231; -155.250; -950.000; -836.000
440.354;  -35.300;  -64.000; -150.000
440.477;   82.750; -566.000; -542.000
440.599;   52.575; -200.000; -225.000
440.722; -126.575; -709.000; -586.000
440.845;   68.125;  751.000;  928.000
440.968; -113.650; -415.000; -311.000
441.090;  -60.450; -199.000;  -33.000
441.213; -162.725;-1021.000; -825.000
441.336;  -57.775; -159.000;   -5.000
441.458;  -88.700; -549.000; -396.000
441.581;  -60.200; -628.000; -629.000
441.703;  -72.500; -152.000;   13.000
441.826; -112.800; -557.000; -400.000
441.948;  -62.150;   56.000;   51.000
442.071;   15.600;  555.000;  424.000
442.193; -112.200; -531.000; -485.000
442.316;   23.600;  152.000;   97.000
442.438;   27.125; -233.000;  -10.000
442.561;   95.025;  272.000;  262.000
442.683;  793.850; -809.000; -522.000
442.806; 1713.100;   -8.000;   74.000
442.928;  114.650; -859.000; -604.000
443.051;  -59.200; -577.000; -373.000
443.173;  -92.600; -341.000; -339.000
443.295;  -83.275; -263.000; -371.000
443.418;  -69.075; -321.000;  -29.000
443.540;   -1.175; -106.000;   -4.000
443.662; -124.825; -563.000; -465.000
443.785;   -5.025;  335.000;  199.000
443.907; -106.850; -362.000; -208.000
444.029; -128.725; -767.000; -494.000
444.152; -165.350; -644.000; -554.000
444.274;  -32.025;  -18.000;  -24.000
444.396; -108.075; -461.000; -221.000
444.518; -140.400; -691.000; -454.000
444.640; -104.300; -268.000; -111.000
444.763;  -31.150;  388.000;  249.000
444.885; -130.650; -432.000; -392.000
445.007;  -47.450;   35.000;   86.000
445.129; -115.275; -610.000; -515.000
445.251;  -96.425; -372.000; -439.000
445.373; -140.100; -537.000; -386.000
445.495;   22.825;  242.000;  350.000
445.617;   44.075;  853.000;  753.000
445.739;  -62.900; -215.000;  -97.000
445.861;  -32.300; -245.000; -112.000
445.984;  -28.475; -267.000; -101.000
446.105;  263.025; -418.000; -251.000
446.227;  867.525; -176.000;  -19.000
446.349;   60.900; -358.000; -249.000
446.471; -103.200; -615.000; -448.000
446.593;  -65.575; -316.000;   19.000
446.715;   23.600;  -67.000;   41.000
446.837;   54.725;  697.000;  832.000
446.959;  -99.675; -457.000; -478.000
447.081; -131.200; -628.000; -518.000
447.203;   50.950;  862.000;  834.000
447.325;  -95.125; -270.000;   42.000
447.446;   -4.925;  286.000;  530.000
447.568; -165.300; -921.000; -803.000
447.690;  -81.750; -236.000; -245.000
447.812; -141.225; -798.000; -519.000
447.933;  -45.425;  155.000;  127.000
448.055;  -62.000; -306.000; -261.000
448.177;  188.400;   31.000;   79.000
448.299;  155.900; -935.000; -727.000
448.420;   43.650;  -25.000;  159.000
448.542;  -47.725;   -3.000;   33.000
448.664;  -29.300;  109.000;  322.000
448.785;  -49.425;  265.000;   83.000
448.907;  -86.025; -614.000; -353.000
449.028;    4.325; -771.000; -471.000
449.150;   76.075;  492.000;  589.000
449.272; -176.050;-1044.000; -913.000
449.393;   13.450;  612.000;  694.000
449.515; -145.175; -634.000; -581.000
449.636;  -58.050; -264.000; -155.000
449.758;   79.800;  763.000;  622.000
449.879;  -73.925; -498.000; -396.000
450.001;  -80.400; -149.000;  -49.000
450.122;  -58.925;  -95.000;  162.000
450.244;  -25.100;   37.000;  364.000
450.365;  -88.225; -495.000; -301.000
450.486;  -52.050;   80.000;  268.000
450.608;    4.975;  393.000;  326.000
450.729;   57.350;  578.000;  645.000
450.850;   -1.625; -574.000; -466.000
450.972;  568.825; -552.000; -389.000
451.093; 4171.450;  190.000;  588.000
451.214; 1894.275; -516.000; -337.000
451.336;  325.800;  773.000;  579.000
451.457;   47.775;  264.000;  393.000
451.578;  -50.750; -118.000;  -74.000
451.699; -133.575; -546.000; -540.000
451.821;  -70.650; -284.000;  -50.000
451.942;  -23.675;  278.000;  285.000
452.063;    5.875;  228.000;  419.000
452.184;  462.300;  -54.000;  -49.000
452.305;  992.750;  103.000;  170.000
452.427;   93.450; -549.000; -301.000
452.548;   -7.200;   23.000;   79.000
452.669;  -48.750; -257.000;  -89.000
452.790;  -43.175;    3.000;  -18.000
452.911;  -14.075;  195.000;  259.000
453.032;  -55.525; -289.000;  -60.000
453.153;  -40.275;  -29.000;   81.000
453.274;   76.175;  737.000;  868.000
453.395;  -52.775;  -51.000;  175.000
453.516;  129.625; 1317.000; 1388.000
453.637;  -57.700; -205.000; -150.000
453.758;  -63.500;   15.000;   69.000
453.879; -115.500; -462.000; -250.000
454.000;   83.825; 1086.000;  948.000
454.121; -117.775; -554.000; -326.000
454.242; -113.775; -599.000; -383.000
454.362;  -57.225;  -99.000;  114.000
454.483;  -25.825; -309.000; -229.000
454.604;   61.975;  512.000;  580.000
454.725; -123.350; -627.000; -555.000
454.846; -126.350; -474.000; -406.000
454.967;  -27.925;  230.000;  539.000
455.087;  -49.575;  179.000;  153.000
455.208;   18.100;  554.000;  856.000
455.329;  -69.250;  -22.000;   82.000
455.450;   15.925;  473.000;  633.000
455.570; -104.375; -234.000; -211.000
455.691;  -58.225;  201.000;  407.000
455.812; -120.250; -270.000;  -92.000
455.932;  -66.350;  107.000;  -97.000
456.053;  -89.900;   36.000;   24.000
456.173; -109.700; -433.000; -355.000
456.294; -133.575; -476.000; -303.000
456.415;  -68.875;  -73.000;   70.000
456.535;  -34.775;  297.000;  273.000
456.656;  -47.975;  132.000;  240.000
456.776;  -82.975;    3.000;  298.000
456.897;   -8.875;  308.000;  513.000
457.017;  -89.850; -153.000;   -3.000
457.138;  -98.150; -402.000; -249.000
457.258;  -29.600;  263.000;  224.000
457.379;  -14.675;  509.000;  521.000
457.499;  -35.275;  443.000;  432.000
457.620; -128.500; -407.000; -231.000
457.740; -100.425; -132.000;  -11.000
457.860;  -53.750;   87.000;   44.000
457.981;  -57.375;  132.000;  124.000
458.101;  -66.900;  -89.000;   40.000
458.221;  -33.125;  336.000;  402.000
458.342;  -69.575;   -4.000;  -37.000
458.462;    8.325;  617.000;  352.000
458.582;  -52.925; -302.000; -294.000
458.703;   -3.075;  303.000;  154.000
458.823;  -47.200;   22.000;  163.000
458.943;   -0.825;  341.000;  467.000
459.063;  -11.475; 1124.000;  192.000
459.183;  -29.925;  328.000;  313.000
459.304;   10.450;  315.000;  517.000
459.424;  -61.650; -246.000;  -89.000
459.544;  283.350;  388.000;  764.000
459.664;  737.825;  499.000;  506.000
459.784;  296.025; 1004.000; 1175.000
459.904;   36.275;  867.000;  744.000
460.024;   66.375;  867.000;  684.000
460.144;   15.625;  449.000;  554.000
460.264;   -5.000;  515.000;  327.000
460.385;  -94.650; -145.000; -119.000
460.505;   38.025;  905.000;  858.000
460.625;  -99.975;  -17.000;  -68.000
460.745;  -32.025;  396.000;  541.000
460.864;  -50.775;  153.000;  469.000
460.984;   22.600;  499.000;  573.000
461.104;  136.225; 1656.000; 1775.000
461.224;   21.300;  657.000;  650.000
461.344;  -33.550;  431.000;  360.000
461.464;  -33.625;  258.000;  513.000
461.584;  -10.750;  283.000;  466.000
461.704;  -43.550;   58.000;  108.000
461.824;  -66.475;  238.000;  259.000
461.943;  -35.925;  191.000;  130.000
462.063;  -82.675;    2.000;  324.000
462.183;   34.575;  639.000;  717.000
462.303;   88.275; 1678.000; 1230.000
462.422;   20.325;  781.000;  840.000
462.542;  -56.375;  271.000;  391.000
462.662;   51.700;  353.000;  380.000
462.782;  208.950;  833.000;  572.000
462.901;  421.025;  545.000;  717.000
463.021;  249.475; 1702.000; 1638.000
463.141;  -18.050;  337.000;  770.000
463.260;  -26.625;  614.000;  474.000
463.380;   13.175;  902.000;  884.000
463.499;  -52.900;  342.000;  332.000
463.619;  -51.325;  581.000;  559.000
463.738;  106.500; 1644.000;  903.000
463.858;   11.075;  657.000;  811.000
463.978;  -43.100;  542.000;  396.000
464.097;   53.350;  921.000; 1114.000
464.217;   88.500; 1196.000; 1143.000
464.336;   96.800; 1068.000; 1130.000
464.455;  -38.800;  328.000;  659.000
464.575;   40.275;  597.000;  602.000
464.694;  199.075; 1204.000; 1179.000
464.814;  108.100; 1190.000; 1138.000
464.933;   80.750; 1095.000; 1027.000
465.052;  102.650; 1412.000; 1054.000
465.172;   79.100;  922.000;  799.000
465.291;  163.475; 1376.000; 1320.000
465.410;   14.875;  462.000;  735.000
465.530;   84.350; 1355.000; 1310.000
465.649;   70.025; 1209.000; 1273.000
465.768;  145.000; 1673.000; 1508.000
465.888;   51.400;  941.000; 1174.000
466.007;   96.700; 1335.000; 1440.000
466.126;   -2.550;  721.000;  641.000
466.245;   52.000; 1176.000; 1187.000
466.364;   18.025;  950.000; 1060.000
466.484;   67.275; 1024.000; 1213.000
466.603;   31.125; 1101.000; 1222.000
466.722;  102.550; 1490.000; 1769.000
466.841;   75.825; 1151.000; 1401.000
466.960;   34.050; 1069.000;  972.000
467.079;  122.050; 1971.000; 1786.000
467.198;   49.025; 1238.000; 1181.000
467.317;   81.525; 1768.000; 1162.000
467.436;   68.550; 1709.000; 1261.000
467.555;  128.025; 1796.000; 1746.000
467.674;   66.675; 1227.000; 1329.000
467.793;   43.850; 1376.000; 1374.000
467.912;   80.025; 1658.000; 1539.000
468.031;  134.175; 2038.000; 1930.000
468.150;  144.100; 1842.000; 1837.000
468.269;  210.800; 2313.000; 2090.000
468.388;  182.325; 2168.000; 2339.000
468.507;  252.650; 2884.000; 2903.000
468.626;  275.825; 2555.000; 2541.000
468.744;  120.200; 2018.000; 2174.000
468.863;  202.100; 2312.000; 2523.000
468.982;   63.525; 1503.000; 1555.000
469.101;  228.875; 2788.000; 2692.000
469.220;  151.975; 2333.000; 2176.000
469.338;  244.975; 2935.000; 3051.000
469.457;  184.100; 2719.000; 2545.000
469.576;  319.325; 3953.000; 3784.000
469.695;  231.800; 2877.000; 3066.000
469.813;  411.450; 4148.000; 4192.000
469.932;  398.225; 4255.000; 4485.000
470.051;  413.550; 4075.000; 4161.000
470.169;  805.500; 4470.000; 4338.000
470.288; 1354.250; 4700.000; 4809.000
470.406;  843.950; 5059.000; 5194.000
470.525;  610.300; 6101.000; 5787.000
470.644;  647.050; 6847.000; 6794.000
470.762;  839.800; 8397.000; 7873.000
470.881;  890.575; 8651.000; 8464.000
470.999; 1031.000; 9685.000; 9151.000
471.118; 1083.600;11174.000;10711.000

