
Integration time [ms]: 100.000
Averaging Nr. [scans]: 40
Smoothing Nr. [pixels]: 0
Data measured with spectrometer [name]: 2101012U2
Wave   ;Sample   ;Dark     ;Reference
[nm]   ;[counts] ;[counts] ;[counts] 

197.733;   41.000;  516.000;  404.000
197.879;  -77.950; -610.000; -634.000
198.025;  -52.050; -475.000; -420.000
198.171;  -77.950; -602.000; -612.000
198.317;  -18.000; -401.000; -316.000
198.463;  -60.950; -655.000; -404.000
198.609;   14.725;  181.000; -137.000
198.755;  -73.250; -644.000; -410.000
198.901;  -58.375; -505.000; -424.000
199.047;  -65.800; -615.000; -488.000
199.193;  -35.925; -230.000; -468.000
199.339;  -44.800; -222.000; -369.000
199.485;   52.875;  330.000;  271.000
199.631;   23.075;  227.000;  310.000
199.777;  -35.575; -466.000; -398.000
199.923;  -64.775; -610.000; -424.000
200.069;   -3.475; -141.000;  -58.000
200.215;   66.475;  128.000;  453.000
200.361;   58.000;  243.000;  477.000
200.507;  -51.725; -600.000; -373.000
200.653;  -22.800; -371.000; -194.000
200.798;  -38.350; -215.000; -125.000
200.944;   -6.925; -146.000;  -41.000
201.090;   29.350;   61.000;  222.000
201.236;   -4.525; -116.000; -158.000
201.382;  129.650;  874.000;  903.000
201.528;    6.175;  -58.000;  -48.000
201.674;  -49.400; -386.000; -293.000
201.819;  -66.600; -540.000; -439.000
201.965;  -79.600; -699.000; -447.000
202.111;  -22.700; -273.000; -226.000
202.257;  -37.225; -250.000; -238.000
202.402;    8.250;   13.000;  -36.000
202.548;  -26.375; -169.000; -116.000
202.694;   73.600;  410.000; -183.000
202.840;  -70.700; -603.000; -531.000
202.985;  -70.250; -681.000; -639.000
203.131; -100.550; -832.000; -666.000
203.277;  -17.775; -199.000; -262.000
203.423;  -41.200; -434.000; -520.000
203.568;  -12.250; -462.000; -237.000
203.714;  -62.850; -535.000; -542.000
203.860;  -91.800; -682.000; -641.000
204.005;   12.400;  112.000;  167.000
204.151;   77.225;  561.000;  556.000
204.296;  -47.150; -354.000; -221.000
204.442;  -69.800; -600.000; -547.000
204.588;  -73.375; -592.000; -579.000
204.733;   19.500;  178.000;  168.000
204.879; -129.975;-1018.000; -822.000
205.025;    4.725;  -99.000;  126.000
205.170;   -1.175;  -17.000;   94.000
205.316;   87.575;  438.000;  661.000
205.461;  -72.775; -698.000; -554.000
205.607;   83.775;  609.000;  665.000
205.752;  -77.375; -626.000; -551.000
205.898;  -36.900; -501.000; -391.000
206.043;  -48.550; -578.000; -506.000
206.189;  -50.350; -243.000; -285.000
206.334;   70.400;  554.000;  606.000
206.480;   79.850;  409.000;  239.000
206.625;  -84.500; -529.000; -552.000
206.771;  -35.475; -451.000; -373.000
206.916;  -41.925; -210.000; -537.000
207.062;  -59.525; -545.000; -591.000
207.207;  -68.400; -546.000; -443.000
207.353;   47.750;  185.000;  460.000
207.498;    9.250;  196.000;   85.000
207.643;  -46.725; -501.000; -370.000
207.789; -122.600;-1069.000; -910.000
207.934;  -87.675; -665.000; -713.000
208.080;  -23.575; -154.000;   66.000
208.225;  -13.825;  -22.000;  -57.000
208.370;  -84.475; -727.000; -619.000
208.516;  -64.425; -741.000; -487.000
208.661;  -35.750; -127.000;  -69.000
208.806;  -26.025; -165.000; -171.000
208.952; -116.250;-1044.000; -731.000
209.097;   76.550;  378.000;  349.000
209.242;  -37.875; -307.000; -382.000
209.387;   68.850;  392.000;  350.000
209.533;  -52.750; -321.000; -350.000
209.678;   88.475;  472.000;  543.000
209.823;  -51.500; -408.000; -310.000
209.969;  -98.900; -860.000; -757.000
210.114; -102.525; -907.000; -719.000
210.259; -119.800; -939.000; -889.000
210.404;   -1.725; -171.000;  103.000
210.549;    8.450;  108.000;    3.000
210.695;  -12.275;   -3.000;  -95.000
210.840;   43.950;   94.000;   67.000
210.985;  -63.750; -484.000; -303.000
211.130;   77.550;  268.000;  406.000
211.275;   10.400;  207.000;  199.000
211.420;  -42.650; -300.000; -289.000
211.566;  -59.450; -536.000; -489.000
211.711;   26.675;  218.000;  157.000
211.856;  -52.775; -545.000; -519.000
212.001;   19.475;  151.000;   44.000
212.146;   20.525;  153.000;   49.000
212.291;  -24.375; -210.000; -186.000
212.436;  -20.250; -280.000;   -6.000
212.581;  -80.075; -685.000; -653.000
212.726;  -66.150; -487.000; -538.000
212.871;  -55.775; -552.000; -217.000
213.016; -135.800;-1172.000;-1029.000
213.161;   54.375;  406.000;  291.000
213.306;  -68.600; -435.000; -577.000
213.451;  -95.675; -778.000; -689.000
213.596;  -30.175; -455.000; -347.000
213.741;  -46.950; -448.000; -538.000
213.886;  -62.375; -498.000; -517.000
214.031;  -21.000; -294.000; -124.000
214.176;  -53.300; -408.000; -341.000
214.321;  -13.000; -296.000; -157.000
214.466;  -19.550; -163.000;  -43.000
214.611;   -1.425;  -61.000;  -10.000
214.756; -108.900; -948.000; -858.000
214.901;  -23.450; -388.000; -226.000
215.046; -111.875; -797.000; -825.000
215.191;   13.950;  128.000;   35.000
215.336;   -0.750; -157.000;  -19.000
215.480;  -68.525; -684.000; -505.000
215.625;   -1.625; -175.000;  -19.000
215.770;  -75.875; -757.000; -662.000
215.915;   -7.975;   -5.000;  -97.000
216.060;  -15.250; -113.000;  -21.000
216.205; -110.775; -731.000; -779.000
216.349;  -67.200; -470.000; -533.000
216.494; -130.775; -939.000; -867.000
216.639; -101.950; -823.000; -888.000
216.784;  -98.450; -577.000; -525.000
216.929;   41.675;  392.000;  281.000
217.073;   -3.450; -244.000;  -31.000
217.218;   11.100;   78.000;  -47.000
217.363;  -77.500; -656.000; -618.000
217.507;  -72.800; -623.000; -588.000
217.652; -107.950; -845.000; -874.000
217.797;  -96.600; -708.000; -659.000
217.942;  -95.600; -856.000; -720.000
218.086;   73.425;  608.000;  539.000
218.231;  -12.250; -174.000;  -26.000
218.376;  -24.575; -337.000; -229.000
218.520;   -4.250;  -41.000;   96.000
218.665;  -34.025; -338.000; -204.000
218.810;  -40.025; -275.000; -233.000
218.954;    8.900;  201.000;   35.000
219.099; -109.100; -713.000; -963.000
219.243;  -62.350; -589.000; -554.000
219.388;  -37.850; -264.000; -136.000
219.532;  -14.600; -116.000; -116.000
219.677;  -67.125; -564.000; -521.000
219.822;    5.200;   33.000;   89.000
219.966;   -6.300;   17.000;  -99.000
220.111;  -37.475; -328.000;  -40.000
220.255;  -93.800; -797.000; -750.000
220.400;  -19.775; -180.000; -146.000
220.544;  -55.275; -516.000; -450.000
220.689;  -61.675; -422.000; -451.000
220.833;  -13.400; -123.000;  -58.000
220.978;  -50.825; -393.000; -563.000
221.122;   20.250;  319.000;  307.000
221.267; -103.000; -906.000; -837.000
221.411;  -68.700; -478.000; -394.000
221.555;   -8.400; -104.000;  -23.000
221.700;  -39.125; -329.000; -222.000
221.844;   39.100;  255.000;  272.000
221.989;  -48.650; -328.000; -311.000
222.133;  -46.325; -289.000; -307.000
222.277;  -11.725;    5.000;   78.000
222.422;   28.150;  227.000;  113.000
222.566;  -32.900; -381.000; -214.000
222.711;  -47.325; -414.000; -479.000
222.855;  -74.125; -643.000; -586.000
222.999;  -75.225; -642.000; -717.000
223.144;  -27.900; -195.000; -194.000
223.288;   59.075;  423.000;  251.000
223.432;   26.100;  184.000;  230.000
223.576;   25.750;  152.000;  -21.000
223.721;   20.350;  364.000;  273.000
223.865;  -56.600; -472.000; -475.000
224.009;  244.525; 1673.000; 1631.000
224.153;  -76.675; -660.000; -671.000
224.298;  -70.025; -531.000; -489.000
224.442;   -9.175;  -74.000;  -33.000
224.586;  -13.725; -169.000; -106.000
224.730;  -92.925; -858.000; -670.000
224.875; -105.275; -739.000; -688.000
225.019;   12.825;  102.000;  188.000
225.163;   61.000;  208.000;  341.000
225.307;   19.425;   97.000;  -91.000
225.451;   41.775;  360.000;  481.000
225.595;   27.325;  264.000;  176.000
225.739;  -12.925; -170.000;  -94.000
225.884;    7.525;   86.000;    5.000
226.028;  -92.675; -760.000; -626.000
226.172;  -35.550; -260.000; -273.000
226.316; -112.075; -941.000; -902.000
226.460;  -74.275; -645.000; -493.000
226.604;  -58.325; -406.000; -400.000
226.748; -103.925; -836.000; -733.000
226.892;  -28.275; -227.000; -181.000
227.036;  -48.675; -537.000; -447.000
227.180;  -55.575; -551.000; -375.000
227.324;  -69.750; -561.000; -580.000
227.468; -110.475; -819.000; -717.000
227.612;    5.775;  242.000;  -28.000
227.756;  -93.300; -845.000; -698.000
227.900;   45.025;  342.000;  441.000
228.044;  -65.900; -509.000; -290.000
228.188;   43.775;  448.000;  568.000
228.332;  -86.175; -546.000; -472.000
228.476;  -35.175; -223.000; -149.000
228.620;  -25.800; -210.000; -150.000
228.764;   67.800;  431.000;  349.000
228.908;  -13.200; -155.000;   30.000
229.052;  -54.025; -615.000; -528.000
229.195;  -14.200; -172.000;   13.000
229.339;  -29.100; -235.000; -305.000
229.483;  -14.150;    5.000; -162.000
229.627;    3.225; -156.000;  139.000
229.771;  -36.475; -218.000; -294.000
229.915;   -1.325;  230.000;   79.000
230.059;  -84.850; -648.000; -663.000
230.202;  -44.575; -370.000; -317.000
230.346;  -24.250; -107.000;  107.000
230.490;  -73.000; -489.000; -521.000
230.634; -105.250; -736.000; -553.000
230.777;   71.025;  478.000;  509.000
230.921;  -47.350; -450.000; -359.000
231.065;  -37.375; -246.000; -286.000
231.209;   38.375;  261.000;  265.000
231.352;   28.200;   54.000;   40.000
231.496;   18.950;  568.000;  188.000
231.640;  -76.550; -693.000; -621.000
231.783;   71.625;  546.000;  525.000
231.927;  -29.050; -294.000; -365.000
232.071; -119.875; -962.000; -736.000
232.214; -105.550; -980.000; -764.000
232.358; -102.350; -683.000; -599.000
232.502;    4.375;  -19.000;    7.000
232.645; -142.975;-1090.000; -927.000
232.789;   -4.600; -257.000; -218.000
232.933;  -42.225; -407.000; -224.000
233.076; -119.800;-1038.000; -897.000
233.220; -104.275; -752.000; -777.000
233.363;  -75.075; -669.000; -477.000
233.507;   61.975;  371.000;  129.000
233.650;  -97.625; -764.000; -834.000
233.794;   41.325;  438.000;  461.000
233.938;  -65.300; -530.000; -362.000
234.081;  -17.300;  -93.000;   31.000
234.225;  -63.250; -631.000; -539.000
234.368; -107.600; -773.000; -723.000
234.512;  -31.225; -385.000; -299.000
234.655;  -90.025; -582.000; -555.000
234.798;  -66.400; -493.000; -466.000
234.942; -124.925; -884.000;-1002.000
235.085;  -73.925; -651.000; -443.000
235.229;  -78.275; -405.000; -410.000
235.372;  -57.950; -247.000; -191.000
235.516;  -53.100; -397.000; -321.000
235.659;   31.175;   92.000;  121.000
235.802;   -7.175;  -38.000;  -22.000
235.946;   19.175;  335.000;  215.000
236.089;   32.350;  126.000;  250.000
236.233;   46.100;  275.000;  298.000
236.376;  -50.575; -235.000; -378.000
236.519;  -43.525; -297.000; -319.000
236.663;  -25.775; -215.000; -117.000
236.806; -137.825;-1029.000; -999.000
236.949;   48.400;  543.000;  431.000
237.092;   62.800;  412.000;  391.000
237.236;  -78.375; -589.000; -502.000
237.379;   56.900;  352.000;  428.000
237.522; -104.650; -879.000; -768.000
237.666;  -24.200; -271.000;   18.000
237.809; -138.775; -851.000; -823.000
237.952;   27.325;  469.000;  271.000
238.095;  -65.950; -447.000; -442.000
238.238;   90.725;  688.000;  700.000
238.382;    8.575;  166.000;  103.000
238.525;  -62.750; -598.000; -511.000
238.668; -129.625;-1060.000; -985.000
238.811;  -63.825; -638.000; -643.000
238.954;  -47.975; -483.000; -334.000
239.097;   93.300;  617.000;  664.000
239.241;   23.475;  394.000;  326.000
239.384;  -34.100; -254.000; -214.000
239.527;  -61.450; -424.000; -224.000
239.670; -147.200; -994.000;-1091.000
239.813; -108.525; -696.000; -658.000
239.956;   83.625;  579.000;  473.000
240.099;  -96.025; -778.000; -725.000
240.242;   65.800;  428.000;  432.000
240.385;   46.250;  466.000;  450.000
240.528;  -66.225; -706.000; -473.000
240.671;   17.350;  189.000;  134.000
240.814;  -41.950; -441.000; -158.000
240.957;  -97.525; -767.000; -578.000
241.100;  -89.550; -779.000; -755.000
241.243; -153.850;-1234.000; -893.000
241.386;  -66.325; -508.000; -379.000
241.529;  -78.150; -735.000; -547.000
241.672;  -57.475; -566.000; -495.000
241.815; -118.950; -832.000; -808.000
241.958;  -25.325; -125.000; -182.000
242.101;  -79.475; -545.000; -390.000
242.244;  -22.750; -270.000; -325.000
242.387;  -44.850; -304.000; -246.000
242.530;   61.250;  470.000;  134.000
242.673;  -34.050; -381.000; -309.000
242.815; -108.850; -925.000; -899.000
242.958;  -56.975; -482.000; -381.000
243.101;   14.350;  132.000;  187.000
243.244;  -80.825; -564.000; -521.000
243.387;  -45.800; -313.000; -316.000
243.530;  -92.225; -657.000; -674.000
243.672;    9.725;   43.000;  -92.000
243.815;  -44.900; -355.000; -283.000
243.958;   -5.975;   98.000;  -26.000
244.101;   -1.550;   59.000;  -16.000
244.243;  -15.775;  -47.000;  101.000
244.386; -107.450; -761.000; -630.000
244.529;  -16.325; -132.000; -139.000
244.672; -152.900;-1154.000; -951.000
244.814;  -99.900; -621.000; -794.000
244.957;  -56.125; -380.000; -304.000
245.100;  -67.750; -489.000; -489.000
245.242;  -50.500; -387.000; -374.000
245.385;  -13.525;  -59.000;  -39.000
245.528; -116.675; -871.000; -705.000
245.670;  101.200;  612.000;  634.000
245.813;  -89.550; -599.000; -547.000
245.956;  -39.925; -324.000; -275.000
246.098;  -68.875; -508.000; -650.000
246.241;    2.025;  194.000;   48.000
246.383;  -23.775; -119.000;  -73.000
246.526;  -71.950; -454.000; -525.000
246.669; -114.625; -889.000; -780.000
246.811;   22.875;  172.000;   -1.000
246.954;  -48.200; -512.000; -426.000
247.096;  -16.075;  -84.000;   -6.000
247.239;  -67.125; -482.000; -445.000
247.381;  -62.050; -647.000; -488.000
247.524;   76.975;  645.000;  679.000
247.666;  -10.900;   58.000;   11.000
247.809; -109.925; -887.000; -691.000
247.951;  -16.225;  -75.000;  138.000
248.094;   38.600;  432.000;  308.000
248.236; -157.825;-1262.000;-1238.000
248.378;   12.850; -356.000;  -81.000
248.521;  -31.125; -334.000; -337.000
248.663;  -39.175; -236.000; -267.000
248.806;  -21.275; -300.000; -266.000
248.948;  -79.325; -886.000; -763.000
249.090;  -45.375; -428.000; -398.000
249.233;  -39.525; -344.000; -381.000
249.375;  -57.200; -474.000; -451.000
249.518;  -27.100;  -83.000; -133.000
249.660;    0.400; -103.000;    3.000
249.802; -151.650;-1303.000;-1189.000
249.945;  -71.325; -612.000; -540.000
250.087;  -97.050; -834.000; -768.000
250.229;  -47.675; -362.000; -480.000
250.371;  -73.200; -494.000; -439.000
250.514;  -40.675; -310.000; -244.000
250.656;  -14.600;   69.000;  102.000
250.798; -105.700; -849.000; -800.000
250.940;  -56.575; -322.000; -322.000
251.083;  -24.925; -335.000; -111.000
251.225;   57.300;  338.000;  310.000
251.367;  -43.075; -274.000; -373.000
251.509;  -27.025; -265.000; -210.000
251.651;  -88.700; -731.000; -671.000
251.794;   63.150;  538.000;  632.000
251.936; -101.300; -821.000; -747.000
252.078;  -79.400; -540.000; -461.000
252.220;  -66.025; -645.000; -477.000
252.362;  105.500;  344.000;  462.000
252.504;  -64.550; -677.000; -584.000
252.646; -114.175; -875.000; -722.000
252.788;    6.650;   14.000; -128.000
252.931;  -35.250; -257.000; -253.000
253.073;  -46.400; -376.000; -317.000
253.215;   -6.550;  141.000;  122.000
253.357;  -10.550;   82.000; -153.000
253.499;  -33.575; -374.000; -234.000
253.641;  -97.600; -749.000; -594.000
253.783;  -78.425; -609.000; -527.000
253.925;  -83.675; -586.000; -591.000
254.067; -109.250; -744.000; -667.000
254.209;  -21.800; -391.000; -259.000
254.351; -134.800; -865.000; -883.000
254.493;  -56.825; -441.000; -417.000
254.635; -126.100; -936.000; -818.000
254.777;  -91.775; -752.000; -687.000
254.918;  -57.625; -512.000; -430.000
255.060;  -52.550; -551.000; -395.000
255.202;  -52.900; -473.000; -261.000
255.344;  -72.100; -658.000; -455.000
255.486;  -73.600; -471.000; -406.000
255.628; -107.125; -780.000; -781.000
255.770; -107.700; -676.000; -536.000
255.912;  -71.425; -559.000; -468.000
256.053;  -92.750; -730.000; -508.000
256.195;  142.650; 1008.000;  903.000
256.337;  -91.750; -861.000; -595.000
256.479;   59.425;  532.000;  416.000
256.621;  -43.375; -394.000; -212.000
256.762; -111.275; -789.000; -742.000
256.904;   54.375;  485.000;  487.000
257.046;  -34.725; -381.000; -271.000
257.188;  -36.350; -351.000; -264.000
257.329;  -76.700; -525.000; -464.000
257.471; -121.125; -939.000; -807.000
257.613;  -58.200; -584.000; -498.000
257.755; -137.850;-1073.000; -982.000
257.896;   32.000;  286.000;  392.000
258.038;  -58.550; -403.000; -352.000
258.180;  -44.875; -354.000; -279.000
258.321;  -90.375; -581.000; -457.000
258.463;   -3.950;  -71.000;  133.000
258.605;  -77.100; -562.000; -570.000
258.746;  -92.050; -886.000; -772.000
258.888; -148.800;-1026.000;-1020.000
259.029;   20.550;  121.000;   -8.000
259.171;  -91.125; -614.000; -550.000
259.313;   15.425;  -49.000;  -47.000
259.454;  -62.875; -536.000; -414.000
259.596;  -47.450; -483.000; -390.000
259.737;  -62.525; -590.000; -474.000
259.879;   43.250;  217.000;  311.000
260.020;   94.050;  901.000;  636.000
260.162;  -24.975; -146.000; -253.000
260.303; -109.475; -768.000; -687.000
260.445;  -89.100; -609.000; -613.000
260.586;   24.950;  392.000;  157.000
260.728;  -23.425; -360.000; -248.000
260.869; -113.500; -350.000; -343.000
261.011;   80.150;  706.000;  537.000
261.152;  -52.700; -479.000; -319.000
261.293;  -71.600; -576.000; -595.000
261.435;  -25.825; -219.000; -184.000
261.576;  -58.475; -455.000; -325.000
261.718;   51.675;  420.000;  470.000
261.859; -126.700; -940.000; -949.000
262.000; -126.450; -951.000;-1016.000
262.142;  -25.525;  -52.000;  -60.000
262.283; -110.825; -808.000; -691.000
262.424; -107.950; -666.000; -625.000
262.566; -152.025;-1161.000; -983.000
262.707; -115.300; -840.000; -830.000
262.848; -120.200; -769.000; -726.000
262.990;  -42.900; -362.000; -345.000
263.131;   66.500;  650.000;  681.000
263.272;   -5.925;  -61.000;  -41.000
263.413;  -97.575; -589.000; -561.000
263.555;  -54.725; -669.000; -143.000
263.696;  -73.025; -550.000; -641.000
263.837;  -53.375; -449.000; -551.000
263.978;   -7.650;   -5.000;  -77.000
264.119;  -44.575; -283.000; -264.000
264.261; -110.425; -847.000; -630.000
264.402;    4.075;   33.000;   40.000
264.543;  -80.525; -509.000; -524.000
264.684;   -4.150;   61.000;  -50.000
264.825;  -74.425; -816.000; -538.000
264.966;  -16.300;  -84.000;  -67.000
265.107; -113.075; -646.000; -670.000
265.248; -119.275; -825.000; -812.000
265.390;    3.275;  152.000;   -9.000
265.531;  -29.525; -238.000; -107.000
265.672;  -89.950; -557.000; -630.000
265.813;   62.000;  563.000;  439.000
265.954; -145.000; -959.000; -940.000
266.095;   -3.050; -372.000; -322.000
266.236;  -94.250; -686.000; -548.000
266.377;  -42.250; -243.000; -297.000
266.518;  -66.675; -619.000; -547.000
266.659;   17.900;  170.000;  268.000
266.800;    3.550;   83.000;   85.000
266.941;  -71.175; -487.000; -478.000
267.082;   14.725;  354.000;   99.000
267.223;  -60.425; -344.000; -273.000
267.364; -120.900; -892.000; -686.000
267.504;   -9.000;    3.000;  135.000
267.645;    1.950;  160.000;   67.000
267.786;  -31.550; -147.000;  -86.000
267.927;  -71.600; -473.000; -379.000
268.068;   -8.250; -186.000;  -61.000
268.209;  -53.575; -175.000; -413.000
268.350;  -53.275; -388.000; -532.000
268.490;  -89.275; -648.000; -521.000
268.631;   34.925;  127.000;  225.000
268.772;  -94.875; -874.000; -647.000
268.913;  -54.550; -328.000; -476.000
269.054;  -14.675; -117.000;   12.000
269.194;  -53.525; -418.000; -402.000
269.335; -154.950;-1137.000;-1074.000
269.476;  -12.025;   33.000;  -35.000
269.617;  -51.475; -347.000; -392.000
269.757;  -83.625; -713.000; -646.000
269.898;  -94.950; -856.000; -613.000
270.039;  -56.075; -415.000; -405.000
270.180; -125.125; -952.000; -816.000
270.320;  -16.250; -190.000; -250.000
270.461;  -53.525; -277.000; -249.000
270.602;   -1.000; -186.000; -156.000
270.742; -115.725; -868.000; -943.000
270.883;  -51.175; -442.000; -390.000
271.023;  -57.100; -358.000; -357.000
271.164;  -79.275; -607.000; -528.000
271.305;  -84.975; -666.000; -654.000
271.445;  -89.250; -722.000; -683.000
271.586;  -64.475; -462.000; -283.000
271.726;  -37.875; -397.000; -322.000
271.867;  -41.650; -594.000; -534.000
272.008;  191.800; -473.000; -285.000
272.148;  124.800;  462.000;  468.000
272.289;   32.475; -113.000; -181.000
272.429;   36.050;   19.000;  185.000
272.570;  -83.375; -633.000; -737.000
272.710;  -93.950; -825.000; -775.000
272.851;  -24.250;  113.000; -130.000
272.991; -153.425;-1173.000;-1077.000
273.131;  -62.225; -419.000; -459.000
273.272;  -75.300; -683.000; -723.000
273.412;   19.425; -143.000;  -31.000
273.553;  -56.400; -488.000; -507.000
273.693;  142.450;  913.000;  858.000
273.834;  -81.975; -894.000; -692.000
273.974;  -69.125; -664.000; -615.000
274.114;  -85.000; -772.000; -560.000
274.255;   84.775;  414.000;  373.000
274.395;   24.600; -180.000; -125.000
274.535;   43.325;  199.000;  350.000
274.676;   22.100;  225.000;   94.000
274.816;    2.375;  110.000;   34.000
274.956;  -72.450; -624.000; -690.000
275.097;  -52.750;-1014.000; -922.000
275.237;  -95.225; -913.000; -803.000
275.377; -101.050; -778.000; -689.000
275.517; -133.250; -878.000; -937.000
275.658;  -55.650; -590.000; -555.000
275.798;  -56.825; -606.000; -413.000
275.938;   13.025;  215.000;  323.000
276.078;  -94.800; -626.000; -395.000
276.218;   -0.200;   99.000;  104.000
276.359; -130.400;-1026.000;-1024.000
276.499;  -55.575; -605.000; -446.000
276.639;  -29.225; -305.000; -151.000
276.779;  -37.075; -475.000; -357.000
276.919;  -92.150; -783.000; -624.000
277.059;  -21.950; -261.000; -212.000
277.199;  -37.750; -357.000; -259.000
277.340;   37.475;  287.000;  175.000
277.480;  -99.075; -840.000; -693.000
277.620;   22.050;  192.000;   16.000
277.760; -188.325;-1533.000;-1294.000
277.900;   18.550;  113.000;   33.000
278.040;   22.825;  137.000;  159.000
278.180;   44.475;  270.000;  170.000
278.320;   -2.700;   21.000;   56.000
278.460;  -69.375; -443.000; -469.000
278.600;  -86.950; -708.000; -598.000
278.740;   58.100;  448.000;  224.000
278.880;  -18.975; -768.000; -791.000
279.020;    1.500; -194.000; -144.000
279.160;  -92.800; -672.000; -595.000
279.300; -117.750; -926.000; -873.000
279.440;  -85.325; -709.000; -622.000
279.579;   14.550;-1014.000; -929.000
279.719;  -38.475; -410.000; -394.000
279.859;   79.300;   -4.000;   41.000
279.999;   33.075; -208.000;  101.000
280.139;   13.800; -435.000; -387.000
280.279;  -58.725; -708.000; -745.000
280.419;   -7.550; -229.000; -147.000
280.559;  -27.625; -259.000; -180.000
280.698;  -68.575; -790.000; -639.000
280.838;  -81.300; -778.000; -800.000
280.978; -102.550; -846.000; -790.000
281.118; -106.025; -811.000; -704.000
281.257;    1.575;   24.000;    6.000
281.397;  -75.650;-1094.000; -960.000
281.537;  -79.625; -599.000; -712.000
281.677;  -25.425; -150.000; -101.000
281.816;  -85.775; -700.000; -630.000
281.956;  -29.050; -193.000; -257.000
282.096;  -49.325; -539.000; -396.000
282.235; -105.000; -672.000; -638.000
282.375;   -8.050; -243.000;  -98.000
282.515;  -99.925; -715.000; -707.000
282.654;   45.525;   29.000;  106.000
282.794;   20.275;  388.000;  244.000
282.934;  -47.150; -530.000; -491.000
283.073; -117.025;-1030.000; -857.000
283.213;  -53.350; -460.000; -467.000
283.353;  -13.475; -408.000; -349.000
283.492;  -27.500; -264.000; -296.000
283.632;  -27.625; -254.000; -168.000
283.771;  -87.375; -859.000; -730.000
283.911;  -49.650; -369.000; -260.000
284.050; -104.900; -794.000; -748.000
284.190; -157.750;-1229.000;-1096.000
284.329; -127.300;-1055.000; -964.000
284.469;  -45.150; -516.000; -591.000
284.608;  -46.675; -559.000; -598.000
284.748;  -73.800; -614.000; -570.000
284.887;    8.400;  -87.000;  -20.000
285.027; -117.225; -844.000; -892.000
285.166;  -12.675; -192.000; -249.000
285.306;   21.275; -116.000;  -33.000
285.445;  -40.075; -229.000; -343.000
285.584;  -83.600; -630.000; -494.000
285.724;  -38.950; -282.000; -322.000
285.863;  -85.925; -857.000; -507.000
286.002;  -47.950; -366.000; -276.000
286.142; -100.650; -715.000; -622.000
286.281;  -64.300; -525.000; -493.000
286.420;  -68.425; -554.000; -417.000
286.560;   97.400;  653.000;  623.000
286.699; -132.025; -958.000; -912.000
286.838;  -67.575; -590.000; -591.000
286.978;  -81.550; -533.000; -537.000
287.117; -134.900;-1085.000; -950.000
287.256;  -20.425; -228.000; -211.000
287.395;  -43.225; -197.000; -378.000
287.535;  -39.750; -370.000; -298.000
287.674;  -68.100; -509.000; -484.000
287.813;   68.550;  661.000;  533.000
287.952; -122.475;-1010.000; -871.000
288.091; -137.600;-1049.000; -915.000
288.231;   20.600;   13.000;   15.000
288.370; -164.575;-1217.000;-1200.000
288.509;  -90.275; -728.000; -645.000
288.648;  -92.925; -770.000; -548.000
288.787;  -23.000; -243.000;  -87.000
288.926;  -47.150; -454.000; -475.000
289.065;  126.275;  859.000;  672.000
289.204;  -59.400; -377.000; -217.000
289.344;  -90.500; -791.000; -690.000
289.483;   26.625;  416.000;  304.000
289.622;  -28.025; -291.000; -149.000
289.761;  -12.425; -309.000; -166.000
289.900;  -83.975; -785.000; -626.000
290.039;   -6.300;  -12.000;  -95.000
290.178;  -27.850; -274.000; -180.000
290.317;  -84.000; -618.000; -479.000
290.456;  -63.200; -463.000; -451.000
290.595; -120.800; -961.000; -833.000
290.734; -118.850; -904.000; -891.000
290.873;  -56.175; -456.000; -420.000
291.011;  -96.100; -833.000; -843.000
291.150;  -92.200; -770.000; -682.000
291.289;  -17.175; -343.000; -110.000
291.428;  -84.900; -599.000; -480.000
291.567;  -63.250; -370.000; -442.000
291.706;   -8.225;  109.000;  154.000
291.845;  -84.300; -597.000; -505.000
291.984; -150.025;-1234.000;-1061.000
292.122;   78.225;  602.000;  582.000
292.261;   47.800;  620.000;  463.000
292.400;   16.975; -144.000;  211.000
292.539; -119.300; -959.000; -813.000
292.678;  -19.800; -325.000; -300.000
292.816; -153.525;-1136.000; -965.000
292.955;  -79.375; -844.000; -684.000
293.094;   -8.425; -173.000; -337.000
293.233;  -40.700; -556.000; -400.000
293.371;  -27.925; -225.000;  -84.000
293.510; -105.375; -866.000; -780.000
293.649; -120.950; -959.000; -924.000
293.787;  -28.875;-1083.000;-1012.000
293.926;    7.475; -113.000;  -32.000
294.065;  -42.675; -379.000; -290.000
294.203;   40.550;  298.000;  406.000
294.342;   34.175;   74.000;  156.000
294.481; 6226.300;51180.000; -836.000
294.619;  -24.975; -425.000; -582.000
294.758; -127.100;-1230.000;-1137.000
294.896;   94.525; -125.000;    5.000
295.035; -120.325;-1040.000;-1006.000
295.174; -109.975;-1082.000; -954.000
295.312;  -19.700; -323.000; -203.000
295.451;    6.625; -307.000; -428.000
295.589;  -43.725; -389.000; -518.000
295.728;   33.375; -292.000; -165.000
295.866;   14.400;  -36.000;  -51.000
296.005;  -46.050; -584.000; -341.000
296.143;  -46.675; -558.000; -596.000
296.282; -105.850; -957.000; -881.000
296.420;  -83.800; -657.000; -557.000
296.559;  -82.875; -892.000; -633.000
296.697;   81.850; -847.000; -665.000
296.835;  125.775;-1141.000;-1002.000
296.974;   75.600;  -23.000;   39.000
297.112;   36.300; -443.000; -504.000
297.251;  -59.125; -815.000; -755.000
297.389;  147.025; -576.000; -438.000
297.527;   55.975; -145.000;  -83.000
297.666;  -30.900; -486.000; -438.000
297.804;  -38.625; -404.000; -264.000
297.942;    3.600; -136.000; -161.000
298.081;    5.250; -183.000;   63.000
298.219;   98.850;  -17.000;  -19.000
298.357;   92.975; -144.000;  -71.000
298.495;   78.825; -810.000; -812.000
298.634;  115.000;  245.000;  219.000
298.772;   93.750; -220.000; -338.000
298.910;  -27.125; -309.000; -182.000
299.048;    5.700; -130.000; -153.000
299.187;  -28.250; -350.000; -250.000
299.325;   24.575;   52.000;  122.000
299.463;  103.850; -389.000; -299.000
299.601;  165.825; -327.000; -271.000
299.739;  -95.050; -908.000; -883.000
299.877;  -79.100; -791.000; -703.000
300.016;  -17.125;-1095.000; -935.000
300.154;  222.025;  -19.000; -161.000
300.292;   75.000; -428.000; -348.000
300.430;   70.600; -408.000; -291.000
300.568;  -80.975; -940.000; -874.000
300.706;  -38.300; -366.000; -469.000
300.844;  -48.050;-1108.000; -979.000
300.982;  137.150;  246.000;  282.000
301.120;  -96.650; -965.000; -866.000
301.258;  -59.850; -812.000; -705.000
301.396;   50.275;  104.000;  -41.000
301.534;  138.150; -218.000; -293.000
301.672;   25.300; -664.000; -521.000
301.810;   78.950; -613.000; -545.000
301.948;  163.150;   53.000;  149.000
302.086;  817.625; -250.000;  -32.000
302.224; 1178.000; -610.000; -585.000
302.362;   74.275; -558.000; -622.000
302.500;   19.100; -923.000; -893.000
302.638;  155.600;  128.000;  245.000
302.776;    6.225; -352.000; -408.000
302.913;   48.775;  447.000;  236.000
303.051;   10.600;  -86.000;  -23.000
303.189;   79.600;   90.000;  118.000
303.327;  -23.850; -341.000; -256.000
303.465;  -59.750; -832.000; -588.000
303.603;  -72.350; -805.000; -604.000
303.740;  134.925;  417.000;  241.000
303.878;   66.200; -800.000; -759.000
304.016;  -81.600; -915.000; -790.000
304.154; -108.450;-1123.000;-1152.000
304.291;  -11.675; -505.000; -554.000
304.429;   26.825;  102.000;   74.000
304.567; -121.175; -908.000; -893.000
304.705;  -36.450; -408.000; -515.000
304.842;  163.600; -616.000; -540.000
304.980;   88.200;  215.000;   35.000
305.118;   84.450; -367.000; -365.000
305.255;  -34.900; -945.000; -927.000
305.393;   80.600;  178.000;  239.000
305.531;  -80.275;-1173.000; -956.000
305.668;  -62.025; -663.000; -582.000
305.806;  138.050; -358.000; -439.000
305.943;  167.800; -629.000; -637.000
306.081;   83.900; -378.000; -267.000
306.219;  -86.950; -863.000; -748.000
306.356;   11.675;  158.000;   27.000
306.494;  110.075;  981.000;  761.000
306.631;   10.500;  -11.000;  -55.000
306.769;   28.800; -613.000; -485.000
306.906;   -6.050; -284.000; -258.000
307.044;  -48.725; -473.000; -488.000
307.181;  -55.675; -410.000; -332.000
307.319;    7.700;  112.000;   87.000
307.456; -160.025;-1191.000;-1153.000
307.594;  -81.750; -980.000; -727.000
307.731;    7.775; -371.000; -164.000
307.868;   -6.550;  -15.000;   20.000
308.006; -118.875; -961.000; -847.000
308.143;  -52.575; -618.000; -330.000
308.281;  240.250;  -37.000; -254.000
308.418;   19.025; -748.000; -640.000
308.555;  -56.125; -400.000; -250.000
308.693;  -56.100; -577.000; -573.000
308.830;  -94.000; -712.000; -657.000
308.967;  -11.750; -215.000;  -95.000
309.105;  -35.125; -507.000; -396.000
309.242;   74.225; -468.000; -367.000
309.379;  445.075; -577.000; -655.000
309.517;  -17.850; -936.000; -948.000
309.654;  -93.450; -910.000; -734.000
309.791;  -60.150; -662.000; -580.000
309.928; -101.275; -977.000; -914.000
310.065;  210.600;  819.000;  697.000
310.203;   42.125; -825.000; -850.000
310.340;   23.175; -465.000; -321.000
310.477;  -69.650; -412.000; -516.000
310.614;  -64.400; -383.000; -473.000
310.751;  -70.125; -427.000; -518.000
310.889;  -21.800;    1.000;   11.000
311.026; -151.425;-1161.000; -939.000
311.163;  -46.775; -386.000; -380.000
311.300;  -63.400; -512.000; -479.000
311.437;  -59.025; -658.000; -619.000
311.574; -141.250;-1226.000; -985.000
311.711;  -46.425; -595.000; -433.000
311.848;  -20.275; -380.000; -388.000
311.985;   17.700;  270.000;   93.000
312.122; -121.675; -932.000; -762.000
312.259; -115.350; -941.000; -994.000
312.396;  -62.125; -508.000; -551.000
312.533;  -83.700; -812.000; -790.000
312.670; -114.325;-1070.000; -898.000
312.807;  -18.200; -352.000; -367.000
312.944;  -67.625; -513.000; -611.000
313.081;  -26.775; -150.000; -415.000
313.218;  -96.975;-1111.000; -867.000
313.355;   32.275; -531.000; -449.000
313.492;   25.550; -455.000; -292.000
313.629;  138.800;  815.000;  735.000
313.766; -143.200;-1176.000;-1008.000
313.902;   -7.325; -186.000;   21.000
314.039;  -50.075; -372.000; -289.000
314.176;   27.125;  286.000;  192.000
314.313;  -70.400; -569.000; -473.000
314.450;  -67.125; -788.000; -684.000
314.587;  -40.775; -468.000; -480.000
314.723;    1.450;  -78.000;  130.000
314.860;   51.900;  318.000;  332.000
314.997;   43.075;  223.000;  142.000
315.134;  -26.900; -385.000; -368.000
315.270;  -21.900; -480.000; -496.000
315.407; -105.475;-1094.000; -967.000
315.544;  -27.100; -657.000; -538.000
315.681;  -35.375; -681.000; -565.000
315.817;   47.400; -133.000; -176.000
315.954;   38.275; -613.000; -392.000
316.091; -110.275;-1045.000;-1023.000
316.227;  -14.875;  -71.000; -179.000
316.364;    7.575;   23.000;    6.000
316.500;  -35.075; -113.000; -300.000
316.637;  -31.000; -181.000; -302.000
316.774;  -87.475; -625.000; -358.000
316.910;  -84.450; -598.000; -629.000
317.047;  -53.225; -487.000; -351.000
317.183;  -42.200; -435.000; -566.000
317.320;  -16.725; -367.000; -321.000
317.456;  -78.225; -733.000; -805.000
317.593;  -75.600; -598.000; -641.000
317.729;   -4.875;  168.000;  -67.000
317.866; -188.775;-1434.000;-1285.000
318.002;  -84.625; -708.000; -948.000
318.139;  -60.900; -883.000; -867.000
318.275;  -86.325;-1003.000; -738.000
318.412;  -66.750; -517.000; -336.000
318.548;   -9.875; -751.000; -720.000
318.685;  -65.025; -985.000; -888.000
318.821;  -81.100; -762.000; -735.000
318.957;   -8.025;   34.000;  -23.000
319.094;   43.275;  297.000;  154.000
319.230;  -35.225; -756.000; -742.000
319.367;  193.225; -471.000; -520.000
319.503;   77.000; -538.000; -436.000
319.639;  -82.650; -877.000; -793.000
319.775;  -36.400; -750.000; -685.000
319.912;  -46.350; -424.000; -519.000
320.048;  -55.825;-1184.000;-1184.000
320.184;   73.600;   59.000;   70.000
320.321;  -43.775; -497.000; -467.000
320.457;   65.425;  475.000;  662.000
320.593;  -50.300; -375.000; -382.000
320.729; -102.175; -732.000; -734.000
320.866;  -73.400; -577.000; -635.000
321.002;  -62.550; -759.000; -809.000
321.138;    6.825; -135.000; -211.000
321.274;   96.075; -148.000; -115.000
321.410;   -0.025; -585.000; -353.000
321.546;   11.400;-1011.000; -911.000
321.683;   83.400;  400.000;  185.000
321.819;   15.075;  -48.000; -117.000
321.955;  -84.300; -743.000; -722.000
322.091;  -23.775; -585.000; -540.000
322.227;    4.225; -382.000; -202.000
322.363;    0.575; -320.000; -215.000
322.499;  -26.325; -343.000; -331.000
322.635;  207.900;  636.000;  443.000
322.771;   47.375; -139.000;   12.000
322.907;  103.025;  129.000;  327.000
323.043;   -6.875; -115.000; -206.000
323.179;  -22.925; -394.000; -363.000
323.315;   65.875; -401.000; -371.000
323.451;  158.025; -328.000; -236.000
323.587;   90.800;  -60.000;  -77.000
323.723;   48.875; -682.000; -601.000
323.859;  -11.325; -258.000;  -76.000
323.995;  -22.425; -467.000; -409.000
324.131; -113.550; -967.000; -892.000
324.267;  -32.250; -254.000; -276.000
324.402; -124.175; -960.000; -983.000
324.538;    7.350; -279.000; -104.000
324.674;   13.175;  164.000;   77.000
324.810;  177.075;  226.000;  308.000
324.946;   48.000; -810.000; -658.000
325.082;  -62.300; -568.000; -475.000
325.217;   -7.200;  -62.000;   16.000
325.353;  -97.750; -764.000; -659.000
325.489;  -71.900; -540.000; -506.000
325.625;  -72.300; -579.000; -525.000
325.760;   60.700;  517.000;  376.000
325.896;  -42.875; -515.000; -702.000
326.032;  -39.775; -403.000; -352.000
326.168;  -55.075; -462.000; -369.000
326.303;  -33.350; -352.000; -461.000
326.439;  -29.725; -336.000; -276.000
326.575;    0.075; -190.000;  -29.000
326.710;   12.975; -156.000;  -30.000
326.846;  -10.150;  146.000;  103.000
326.982;  -81.250; -530.000; -548.000
327.117;  -76.275; -481.000; -442.000
327.253;  -84.750; -745.000; -742.000
327.388; -144.100;-1137.000;-1153.000
327.524;  -18.275; -811.000; -578.000
327.659;  -19.375;  -58.000;  -22.000
327.795;  -12.325;   69.000;   45.000
327.931;  -84.950; -723.000; -499.000
328.066;  -10.250; -417.000; -276.000
328.202;    2.825;   12.000; -129.000
328.337;   96.775;  957.000;  713.000
328.473;   32.000;  -12.000;  -74.000
328.608;   -8.125; -256.000; -267.000
328.743;  -71.700; -799.000; -664.000
328.879;   18.450;  214.000;  114.000
329.014;  -34.875; -102.000; -122.000
329.150;  -67.950; -358.000; -483.000
329.285;  -63.275; -465.000; -466.000
329.421;  -44.075; -548.000; -246.000
329.556;  -12.900;  -36.000;   85.000
329.691;  -81.400; -633.000; -615.000
329.827;  -79.125; -626.000; -480.000
329.962;  -37.150;  131.000; -301.000
330.097;  -80.850; -673.000; -585.000
330.233;  -33.725; -410.000; -223.000
330.368; -120.250; -839.000; -628.000
330.503;  -14.325;    3.000;   98.000
330.638;   30.375;  -93.000; -125.000
330.774;  -35.850; -609.000; -530.000
330.909;  -29.725; -434.000; -244.000
331.044;  -87.400; -714.000; -708.000
331.179; -162.300;-1217.000;-1109.000
331.315;   13.300;   77.000;   20.000
331.450;   18.700;  157.000;  285.000
331.585;  -81.275; -805.000; -706.000
331.720;  -86.375; -510.000; -460.000
331.855;    8.325;  -35.000; -102.000
331.990;  191.800;   62.000;  138.000
332.126;  114.525; -110.000;   71.000
332.261;  -19.875; -379.000; -265.000
332.396;    5.125; -135.000; -242.000
332.531; -106.400;-1074.000;-1031.000
332.666;   22.250; -519.000; -363.000
332.801;  -93.750; -726.000; -807.000
332.936;  -10.625; -192.000; -122.000
333.071; -150.800; -870.000; -817.000
333.206;   26.175;  307.000;  379.000
333.341;   29.900;  344.000;  418.000
333.476;  -74.000; -627.000; -623.000
333.611;  -32.600; -251.000; -173.000
333.746;  -38.175; -381.000; -464.000
333.881;  -96.700; -973.000; -935.000
334.016; -119.500; -936.000; -917.000
334.151; -108.800; -746.000; -702.000
334.286;   35.050;  152.000;  186.000
334.421;   11.400; -125.000; -178.000
334.556;  -53.900; -611.000; -567.000
334.690;  -77.475; -631.000; -577.000
334.825;   75.550;  381.000;   83.000
334.960;  -58.425; -285.000; -413.000
335.095;    6.325;  135.000;  -91.000
335.230;  -89.450; -722.000; -738.000
335.365; -111.500;-1084.000; -990.000
335.499; -112.275;-1108.000;-1037.000
335.634;   35.100;    9.000;  534.000
335.769;  -85.425; -755.000; -720.000
335.904;  -44.400; -603.000; -561.000
336.038;  -43.550; -735.000; -657.000
336.173;  -87.750;-1206.000;-1194.000
336.308;   28.375; -116.000; -189.000
336.443;   -0.975; -544.000; -634.000
336.577;  -47.925; -936.000; -787.000
336.712;   95.250;   -4.000;  -12.000
336.847;    0.200; -724.000; -607.000
336.981;  113.625; -272.000; -208.000
337.116;  344.525;  615.000;  501.000
337.250;  216.325; -434.000; -421.000
337.385;  218.300; -297.000; -208.000
337.520;   67.725; -632.000; -603.000
337.654;  -12.575; -215.000; -126.000
337.789; -109.975; -989.000; -933.000
337.923;  -33.525; -104.000; -205.000
338.058;  -70.975; -673.000; -738.000
338.192;  -22.350; -611.000; -488.000
338.327;   -5.050;  -18.000; -155.000
338.461;  -48.550; -299.000; -469.000
338.596;  -89.225; -780.000; -638.000
338.730;  -93.025; -767.000; -803.000
338.865;   71.450;  -46.000; -140.000
338.999;  -49.950; -846.000; -702.000
339.134;  -27.650; -634.000; -536.000
339.268;   15.175; -741.000; -603.000
339.403;  367.500; -740.000; -775.000
339.537;  101.975; -894.000; -820.000
339.671;  -94.800; -829.000; -813.000
339.806;  -60.875; -556.000; -512.000
339.940;    7.725; -261.000; -235.000
340.074;  -81.225; -685.000; -510.000
340.209;  -32.400; -351.000; -230.000
340.343;  -78.725; -517.000; -573.000
340.477;  148.175;  998.000; 1036.000
340.612;  -50.800;-1033.000; -900.000
340.746;  134.550; -199.000; -243.000
340.880;  -33.150; -924.000; -785.000
341.014;   -7.825;  -45.000; -154.000
341.149; -113.775; -756.000; -718.000
341.283;  -96.250; -839.000; -754.000
341.417;  -61.875;-1124.000; -938.000
341.551;  220.800; -768.000; -708.000
341.685;  -21.225; -633.000; -611.000
341.820;  -40.475; -562.000; -493.000
341.954;  -45.875; -218.000; -349.000
342.088; -146.200;-1102.000;-1019.000
342.222;   64.025;  565.000;  618.000
342.356;  -50.975; -395.000; -335.000
342.490;  -84.325; -880.000; -841.000
342.624;  -29.650; -339.000; -242.000
342.758;   19.975; -364.000; -312.000
342.892;  -34.075; -710.000; -585.000
343.026;  -42.025;  -58.000; -116.000
343.160;  -52.200; -426.000; -376.000
343.294;  -67.650; -474.000; -337.000
343.428;    4.575; -488.000; -448.000
343.562;    2.900; -172.000;  -23.000
343.696;  -20.450; -385.000; -314.000
343.830;    1.175; -362.000; -356.000
343.964;   34.200; -231.000; -168.000
344.098; 1213.675;  199.000;   70.000
344.232;  990.375; -266.000; -127.000
344.366;  127.850; -567.000; -453.000
344.500;  113.250; -665.000; -744.000
344.634;   64.725; -324.000; -164.000
344.768;   35.675; -531.000; -341.000
344.902;   35.625;  278.000;  256.000
345.035;  -67.750; -556.000; -496.000
345.169; -124.700; -933.000; -656.000
345.303;   -8.125; -308.000; -482.000
345.437;  -43.475; -826.000; -717.000
345.571;  -59.550; -675.000; -594.000
345.704;  -51.650; -309.000; -532.000
345.838;  -11.675; -331.000; -284.000
345.972;  -21.175; -543.000; -495.000
346.106;  158.250; -179.000; -190.000
346.239;  456.375; -312.000; -243.000
346.373;   25.425; -343.000; -302.000
346.507; -121.250; -950.000; -962.000
346.640;  203.625;  -30.000;   13.000
346.774;  -20.850; -650.000; -797.000
346.908;  -18.125; -138.000;  -11.000
347.041;  -91.225; -646.000; -593.000
347.175;   11.025;  259.000;   27.000
347.309;  -54.350; -698.000; -628.000
347.442;  -70.100; -883.000; -732.000
347.576;  351.100;  670.000;  668.000
347.709;  286.550; -123.000;  -52.000
347.843;  -67.975; -933.000; -825.000
347.976;   47.500;  235.000;  294.000
348.110; -170.825;-1268.000;-1186.000
348.243;  -97.025; -679.000; -772.000
348.377;    4.075;  -26.000;   60.000
348.510;   63.875;  403.000;  540.000
348.644;  -30.075;  -37.000; -159.000
348.777;   11.625;  180.000;  191.000
348.911;  -32.275; -142.000; -112.000
349.044;  204.875;  471.000;  448.000
349.178;  248.250;-1069.000;-1006.000
349.311;  139.825;  141.000;  255.000
349.444;   -4.550; -927.000; -813.000
349.578;   -5.575; -347.000; -200.000
349.711;  -62.975; -959.000; -862.000
349.845;   35.900; -661.000; -591.000
349.978; -128.150;-1224.000;-1137.000
350.111;  -69.650; -546.000; -612.000
350.244;  -58.175; -596.000; -700.000
350.378;   21.800; -392.000; -393.000
350.511;  -57.875; -393.000; -426.000
350.644;  -99.275; -808.000; -806.000
350.778;   13.775;  168.000;  104.000
350.911;   -2.225;  134.000;  140.000
351.044;  -81.625; -685.000; -615.000
351.177;  -20.975; -321.000; -281.000
351.310;   -9.875;    3.000; -131.000
351.444;  -60.275; -888.000; -788.000
351.577;  161.000;  140.000;   90.000
351.710;  108.975;  593.000;  417.000
351.843;  -25.750; -165.000;  -77.000
351.976;   17.675;  149.000;  -79.000
352.109;  -63.775; -621.000; -612.000
352.242;    4.975; -464.000; -419.000
352.376;  -29.075; -580.000; -636.000
352.509;  243.600; -437.000; -356.000
352.642;   81.600; -654.000; -604.000
352.775;   90.675; -141.000;  -98.000
352.908; -101.675; -933.000; -904.000
353.041;  -87.900; -814.000; -824.000
353.174;  -55.675; -551.000; -424.000
353.307;  -69.075; -753.000; -764.000
353.440;   72.875;  541.000;  453.000
353.573;  -98.675; -957.000;-1008.000
353.706;  -48.175; -384.000; -558.000
353.839;   -9.625; -264.000; -220.000
353.971;  -63.300; -657.000; -512.000
354.104;  -57.175; -896.000; -835.000
354.237;  -14.300; -627.000; -662.000
354.370;  -70.725; -846.000; -879.000
354.503; -164.075;-1231.000;-1308.000
354.636;  -21.325; -529.000; -348.000
354.769; -105.025; -937.000; -860.000
354.902;    0.550; -230.000; -139.000
355.034;   -6.900; -164.000; -220.000
355.167;  -12.250; -262.000; -162.000
355.300;  -73.100;-1061.000; -880.000
355.433;  901.200;  -71.000;  -14.000
355.565; 1403.425; -402.000; -384.000
355.698;  353.225; -356.000; -296.000
355.831;   13.725; -882.000; -801.000
355.964;  126.525; -285.000; -170.000
356.096;  -60.750; -856.000; -843.000
356.229;   45.125; -523.000; -530.000
356.362;  296.275; -373.000; -266.000
356.494;  562.425; -229.000; -162.000
356.627;  586.050;  269.000;  377.000
356.760;  654.075;  120.000;   53.000
356.892;  864.425; -286.000; -601.000
357.025;  848.875;  403.000;  389.000
357.157;  809.375; -167.000; -179.000
357.290;  582.050; -856.000; -713.000
357.423;  205.300; -667.000; -556.000
357.555;  156.000; -217.000; -228.000
357.688;  179.300; -483.000; -364.000
357.820;  582.050; -870.000; -877.000
357.953; 4373.075; -563.000; -589.000
358.085; 1051.450; -632.000; -612.000
358.218; 1668.500;-1131.000; -932.000
358.350;  302.925;  -58.000;  312.000
358.483;  -92.075;-1300.000;-1187.000
358.615;   48.100;-1182.000;-1078.000
358.747;   -7.375;-1187.000;-1058.000
358.880;   83.725; -810.000; -744.000
359.012;   29.725; -376.000; -202.000
359.145;  -22.325; -480.000; -511.000
359.277;  131.400; -962.000; -913.000
359.409; 3644.800;  536.000;  231.000
359.542; 1035.025; -738.000; -688.000
359.674;   92.675;   46.000;   13.000
359.806;  -49.500; -565.000; -438.000
359.939;  -29.400; -617.000; -516.000
360.071;   -9.450; -583.000; -579.000
360.203;  -30.150; -411.000; -364.000
360.335;   73.325;  164.000;  -16.000
360.468;  238.950; -249.000; -307.000
360.600; 2833.100; -547.000; -454.000
360.732; 2604.425; -546.000; -423.000
360.864;  386.825;-1216.000;-1044.000
360.996;  408.275; -516.000; -554.000
361.129;   95.050; -389.000; -598.000
361.261;   31.125;  110.000; -113.000
361.393;  -21.425; -252.000; -214.000
361.525;   31.175;   94.000;  244.000
361.657;   -3.900; -821.000; -703.000
361.789;   40.525; -139.000; -155.000
361.921;  362.425; -642.000; -593.000
362.053;  338.775;  524.000;  541.000
362.185;   86.575;  288.000;   72.000
362.318;  -60.850; -709.000; -705.000
362.450;  179.250;  294.000;  444.000
362.582;  245.700; -913.000; -870.000
362.714;   -9.000; -353.000; -332.000
362.846;  -72.950; -606.000; -490.000
362.978; -118.725; -941.000; -811.000
363.109;   94.625; -161.000; -260.000
363.241;  613.225; -739.000; -749.000
363.373;  429.925; -649.000; -564.000
363.505;  591.850; -186.000;  -91.000
363.637;  164.975; -787.000; -601.000
363.769;  -90.575;-1067.000;-1080.000
363.901;  -57.600; -596.000; -654.000
364.033; -101.425;-1103.000;-1062.000
364.165;   12.375; -283.000; -283.000
364.296;   86.650; -316.000; -177.000
364.428;   56.550;-1344.000;-1220.000
364.560;  -62.425; -679.000; -661.000
364.692;  -40.675; -738.000; -835.000
364.824;  398.300; -588.000; -456.000
364.955;  471.250; -402.000; -564.000
365.087;  779.200;-1097.000; -852.000
365.219;   36.300; -686.000; -816.000
365.351;  -65.175; -526.000; -572.000
365.482;   65.450;  300.000;  240.000
365.614;  -35.350; -402.000; -314.000
365.746;  -81.175; -729.000; -752.000
365.877;  -86.175; -706.000; -672.000
366.009;  228.050;  -35.000;  -62.000
366.141;  -81.625;-1249.000;-1134.000
366.272;  -96.525; -803.000; -719.000
366.404;  -96.675;-1005.000; -874.000
366.535;   -5.975; -139.000;  -12.000
366.667;  -87.950; -644.000; -649.000
366.799;   45.925;  353.000;  203.000
366.930; -101.300; -862.000; -996.000
367.062;  121.575; -639.000; -613.000
367.193;  127.950; -872.000; -842.000
367.325;  -61.400; -580.000; -684.000
367.456;  119.800; -246.000;   31.000
367.588;  157.150; -371.000; -318.000
367.719;   39.450;  -44.000;  -45.000
367.851;    5.300; -222.000; -241.000
367.982;  -25.125; -875.000; -732.000
368.113;  157.575; -475.000; -358.000
368.245; -103.725; -960.000; -841.000
368.376;  -14.825; -254.000; -302.000
368.508;  -18.750; -188.000; -263.000
368.639; -116.075;-1166.000;-1034.000
368.770;   12.875; -670.000; -589.000
368.902;  -23.375; -836.000; -926.000
369.033;  -87.800; -906.000; -855.000
369.164;  -40.975; -720.000; -653.000
369.296; -101.525; -452.000; -601.000
369.427;   13.975; -209.000; -144.000
369.558;  -21.125; -593.000; -377.000
369.689;  -64.325; -721.000; -569.000
369.821; -123.875; -951.000; -845.000
369.952;   -5.300;   42.000; -108.000
370.083;  -51.425; -229.000; -108.000
370.214;  -84.725; -735.000; -650.000
370.345;    0.975;   65.000;   81.000
370.477;  -66.825; -810.000; -790.000
370.608;  331.900; -328.000; -264.000
370.739;    2.775;-1233.000;-1292.000
370.870;    9.275;-1102.000; -923.000
371.001;  159.800; -378.000; -467.000
371.132;  -53.075; -754.000; -735.000
371.263;  -10.825;  -42.000; -148.000
371.394; -123.875; -841.000; -748.000
371.525;   32.175;  345.000;  225.000
371.657;  -76.950; -808.000; -670.000
371.788;   92.850;  103.000;  199.000
371.919;  248.525; -384.000; -304.000
372.050; 4523.525;  -91.000; -156.000
372.181; 1414.950; -188.000; -294.000
372.311;  507.050;   42.000; -127.000
372.442;  106.650; -457.000; -451.000
372.573;   -4.475; -444.000; -340.000
372.704; -115.850;-1008.000; -980.000
372.835;  135.550; -228.000; -289.000
372.966;  -16.400; -646.000; -554.000
373.097;  -31.475; -575.000; -711.000
373.228;    1.575; -717.000; -542.000
373.359;  232.825; -824.000; -536.000
373.490; 1268.425; -881.000; -727.000
373.620; 1592.125;-1001.000; -803.000
373.751; 2364.550; -332.000; -396.000
373.882; 1109.675; -663.000; -733.000
374.013;  130.100; -449.000; -262.000
374.143;  -16.075; -581.000; -659.000
374.274;  -76.075; -987.000; -908.000
374.405;  225.275; -388.000; -276.000
374.536;  612.525; -526.000; -387.000
374.666; 1548.850; -759.000; -807.000
374.797;  348.650; -817.000; -868.000
374.928; 1189.450; -710.000; -560.000
375.058; 1252.050; -535.000; -500.000
375.189;  129.550;  -59.000;  -93.000
375.320;  -79.675; -928.000;-1034.000
375.450;  -12.900; -625.000; -616.000
375.581;  -19.400; -526.000; -436.000
375.712;  -31.725; -574.000; -250.000
375.842;  424.475; -438.000; -415.000
375.973;  334.400; -554.000; -513.000
376.103;    1.125; -665.000; -648.000
376.234;  -56.650; -531.000; -552.000
376.364;   10.400; -944.000; -867.000
376.495;  409.725;  925.000;  529.000
376.625;   47.975; -472.000; -485.000
376.756;  121.825; -709.000; -678.000
376.886;  -14.125;-1178.000;-1026.000
377.017;   36.350;-1048.000;-1061.000
377.147;  307.900; -786.000; -782.000
377.278;   63.400;  174.000;  228.000
377.408; -111.000; -801.000; -815.000
377.538; -100.600; -707.000; -693.000
377.669;  -60.275; -537.000; -613.000
377.799;  -65.550; -645.000; -635.000
377.929;  -42.650; -610.000; -428.000
378.060; -115.925; -781.000; -847.000
378.190;  -54.375; -726.000; -531.000
378.320;  -45.225; -401.000; -406.000
378.451;    5.700; -131.000;  -22.000
378.581;    1.575;  -67.000; -110.000
378.711;  193.225; 1035.000;  866.000
378.841;   21.525; -533.000; -675.000
378.972;  -28.950; -871.000; -751.000
379.102;   43.750; -652.000; -579.000
379.232;   -0.150; -126.000;  -73.000
379.362;  -86.725;-1001.000; -885.000
379.492;   58.175; -373.000; -424.000
379.623;  139.150;    0.000;  111.000
379.753;  -71.500;-1107.000; -974.000
379.883;  256.350;   59.000;  156.000
380.013;   56.925;-1081.000;-1017.000
380.143;  -78.900;-1097.000;-1056.000
380.273;  -71.800; -985.000; -861.000
380.403;   21.725; -344.000; -257.000
380.533;   27.675; -651.000; -664.000
380.663;  111.525;  173.000;  128.000
380.793;  -54.900;-1027.000;-1074.000
380.923;   -9.925; -103.000;  -34.000
381.053;  -71.725; -613.000; -623.000
381.183;  -11.400; -106.000; -248.000
381.313;   93.025; -656.000; -470.000
381.443;   84.525; -692.000; -473.000
381.573;  312.700; -402.000; -409.000
381.703;  472.100;-1249.000;-1095.000
381.833;  -97.275;-1454.000;-1336.000
381.963;  152.300; -134.000;  -87.000
382.093; 1757.825; -925.000; -909.000
382.223;  611.400; -713.000; -602.000
382.353;   32.075; -801.000; -608.000
382.482;  548.925;-1091.000; -964.000
382.612; 1022.075; -872.000; -644.000
382.742;  602.000; -695.000; -622.000
382.872;  410.775; -565.000; -551.000
383.002;   83.875;  347.000; -132.000
383.131;    2.700; -226.000; -160.000
383.261;  -11.925; -706.000; -768.000
383.391;  331.125; -552.000; -377.000
383.521; 2825.650;  451.000;  263.000
383.650;  694.625; -947.000; -904.000
383.780;  -13.075; -783.000; -656.000
383.910;  125.350;  880.000;  802.000
384.039;   74.875; -794.000; -656.000
384.169;  353.450;-1205.000;-1017.000
384.299;   22.625; -650.000; -662.000
384.428;  -70.000; -764.000; -680.000
384.558;  -31.850; -308.000; -275.000
384.687;   -3.100; -414.000; -334.000
384.817;   25.375;   75.000;   -2.000
384.947;   52.075; -234.000; -141.000
385.076;  359.550;  982.000;  912.000
385.206;  124.275;  369.000;  480.000
385.335;  -13.825; -549.000; -417.000
385.465;  -57.275; -655.000; -663.000
385.594;  199.400;  -53.000;  -44.000
385.724;  621.100; -868.000; -838.000
385.853;  197.725; -296.000; -270.000
385.982; 1790.300; -743.000; -787.000
386.112; 2899.825;-1052.000; -871.000
386.241;  234.350; -307.000; -312.000
386.371;   62.725; -174.000;  -87.000
386.500;   47.200; -825.000; -789.000
386.629;   51.625; -874.000; -817.000
386.759;   71.750;  -43.000;   68.000
386.888;   33.025; -170.000; -250.000
387.017;  -42.275; -648.000; -620.000
387.147;  -52.650; -771.000; -798.000
387.276;   23.975; -410.000; -397.000
387.405;   48.675; -398.000; -342.000
387.535;  -13.425; -452.000; -361.000
387.664;  -54.200; -692.000; -620.000
387.793;  104.125; -198.000; -113.000
387.922;  699.675;  255.000;  200.000
388.052;   77.200; -576.000; -423.000
388.181;   66.075; -342.000; -472.000
388.310;   68.825; -889.000; -710.000
388.439;    4.100; -749.000; -742.000
388.568;  249.275;  365.000;  244.000
388.697; 1439.925; -756.000; -653.000
388.826;  329.300; -768.000; -666.000
388.956;  107.900; -285.000; -307.000
389.085;  -15.275; -347.000; -287.000
389.214;  -80.250; -842.000; -872.000
389.343;  -58.975; -645.000; -413.000
389.472;  374.550;  126.000;  149.000
389.601;  528.225;   91.000;    0.000
389.730;   52.400; -568.000; -687.000
389.859;   90.700;  226.000;   46.000
389.988;  265.675; -423.000; -408.000
390.117;  210.350; -168.000; -146.000
390.246;   27.675; -331.000; -320.000
390.375;  194.575; -673.000; -626.000
390.504;  -44.150; -703.000; -621.000
390.633;  -84.950; -672.000; -726.000
390.761;  -35.175; -732.000; -645.000
390.890;   60.000;   -4.000; -130.000
391.019;   -1.225; -421.000; -441.000
391.148; -119.700; -826.000; -855.000
391.277;  -51.425; -576.000; -493.000
391.406;  -43.100; -821.000; -805.000
391.534;   26.425;  574.000; -301.000
391.663;  -51.600; -583.000; -645.000
391.792;  -75.050; -673.000; -701.000
391.921;  152.550;   -3.000;   15.000
392.050;  277.025; -287.000; -228.000
392.178;   33.075;-1206.000;-1061.000
392.307;  219.150; -758.000; -712.000
392.436;  133.825; -427.000; -641.000
392.564;   38.050;  166.000;   -6.000
392.693;  -71.300; -860.000; -682.000
392.822;  298.425; -529.000; -534.000
392.950;  183.800; -880.000; -714.000
393.079;  430.650; -188.000; -328.000
393.208;   81.850; -488.000; -511.000
393.336;   -0.475; -170.000; -145.000
393.465;  -40.675; -317.000; -199.000
393.593;   -1.025;   62.000;   79.000
393.722; -129.050;-1121.000; -916.000
393.850;  -27.500; -188.000;  -61.000
393.979; -148.925; -926.000; -805.000
394.107;  -49.650; -517.000; -537.000
394.236;    1.675; -570.000; -507.000
394.364;  271.600;  383.000;  206.000
394.493;  502.425; -911.000; -767.000
394.621;   21.925; -955.000; -916.000
394.750;  628.125; -873.000; -923.000
394.878; 2683.700; -247.000; -149.000
395.007; 3762.025; -721.000; -807.000
395.135;  294.675; -790.000; -721.000
395.263;  -79.150;-1038.000;-1040.000
395.392;    6.550;  -25.000; -107.000
395.520; -128.000; -818.000; -679.000
395.648;  -64.725; -865.000; -915.000
395.777;   22.450; -366.000; -405.000
395.905;  -25.175; -449.000; -564.000
396.033;   23.725;  217.000;  172.000
396.162;  777.150; -399.000; -453.000
396.290;  716.625;  -17.000;   -2.000
396.418;  189.550; -555.000; -514.000
396.546;  -38.225; -571.000; -466.000
396.674;  -70.700; -850.000; -878.000
396.803;   17.450;  -72.000;  -23.000
396.931;  162.425; -179.000; -199.000
397.059;  145.975;-1026.000; -989.000
397.187;  -87.000;-1026.000; -975.000
397.315; -109.225; -884.000; -649.000
397.443;  -81.425; -592.000; -443.000
397.572;  -92.825; -578.000; -424.000
397.700;   17.600; -607.000; -614.000
397.828;   24.300;  120.000;  -90.000
397.956;  -48.775; -508.000; -478.000
398.084;  -65.950; -767.000; -626.000
398.212;   50.150;  137.000;  124.000
398.340;   25.925;  -56.000;  159.000
398.468;   67.050; -390.000; -169.000
398.596; -112.900; -993.000; -953.000
398.724;  -92.450; -762.000; -767.000
398.852; -166.350;-1024.000; -976.000
398.980;  -51.875; -560.000; -560.000
399.108;  -17.000; -982.000; -735.000
399.236;   65.350;   13.000;    8.000
399.363;   27.625;  222.000;  196.000
399.491;  -55.150; -404.000; -398.000
399.619; -109.750; -829.000; -800.000
399.747;  -89.725; -859.000; -771.000
399.875;  101.125;  220.000;  234.000
400.003;  -51.575; -359.000; -284.000
400.130;  -91.050; -421.000; -341.000
400.258;  -26.275;  -83.000;   38.000
400.386;  -61.675; -352.000; -168.000
400.514;  -17.350; -526.000; -587.000
400.641;  -48.125; -928.000; -802.000
400.769; -132.275; -979.000; -888.000
400.897;  -94.050; -838.000; -793.000
401.025;   -5.475; -166.000; -152.000
401.152;   -1.200;  220.000;   38.000
401.280;  -71.525; -430.000; -429.000
401.408; -115.950; -712.000; -576.000
401.535;  -82.750; -735.000; -758.000
401.663; -189.050;-1134.000;-1054.000
401.790;  -81.300; -514.000; -525.000
401.918;   39.850;  436.000;  405.000
402.046;  -17.175;  134.000;  122.000
402.173;  -31.250;  -18.000;    7.000
402.301;  -64.175; -519.000; -397.000
402.428;   36.550;  528.000;  383.000
402.556; -140.025;-1188.000; -913.000
402.683;  -14.875;  -20.000;   -1.000
402.811;  -18.950;  -37.000; -206.000
402.938;    1.025;   20.000;   27.000
403.066;  271.175; -574.000; -558.000
403.193;  453.650;  299.000;  239.000
403.321;  355.525; -396.000; -574.000
403.448;  443.600;   83.000;   27.000
403.575;  200.975;  -90.000;  -46.000
403.703;  -72.800; -732.000; -557.000
403.830;  -59.275; -531.000; -496.000
403.957; -125.675;-1117.000;-1023.000
404.085;   30.400;  -61.000; -172.000
404.212;  113.475;  -50.000;   63.000
404.339;  255.625; -566.000; -306.000
404.467; 5203.525; -612.000; -524.000
404.594; 3992.375; -287.000; -227.000
404.721; 1099.450; -869.000; -764.000
404.848;  101.050; -113.000; -202.000
404.976;  -88.050; -856.000; -783.000
405.103;  -18.550;  -14.000;  -82.000
405.230;    0.675;  190.000;  226.000
405.357;   33.600;  117.000;   44.000
405.484;  241.650;  -49.000;    5.000
405.612;   72.075; -548.000; -563.000
405.739;  -52.800; -488.000; -243.000
405.866;   85.175;  669.000;  385.000
405.993;  -36.300; -398.000; -102.000
406.120; -130.575; -801.000; -887.000
406.247;  -49.975; -323.000; -342.000
406.374;  589.450;  540.000;  629.000
406.501;  208.425; -632.000; -702.000
406.628;  -74.750; -621.000; -589.000
406.755;  -79.950; -803.000; -620.000
406.882;  -31.875; -228.000; -277.000
407.009;  -97.100; -719.000; -628.000
407.136;   90.775; -480.000; -401.000
407.263;  259.875; -939.000; -829.000
407.390;  -56.825; -692.000; -614.000
407.517; -142.175;-1139.000;-1187.000
407.644;  -50.600; -332.000; -256.000
407.771;  -56.725; -249.000; -287.000
407.898;   22.125;  168.000;  328.000
408.025;  -65.775; -421.000; -313.000
408.151;  -13.175;   82.000;  153.000
408.278;  -70.550; -267.000; -216.000
408.405; -102.525; -931.000; -899.000
408.532;  -64.300; -549.000; -542.000
408.659; -111.450; -677.000; -648.000
408.785; -189.225;-1298.000;-1170.000
408.912;  -60.750; -412.000; -296.000
409.039;  -94.900; -610.000; -686.000
409.166;  -98.575; -591.000; -555.000
409.292;  -85.700; -571.000; -534.000
409.419;  -98.250; -665.000; -649.000
409.546;  -86.050; -431.000; -192.000
409.672; -106.325; -713.000; -545.000
409.799;  -22.950;  -36.000;   34.000
409.926;  -28.400; -180.000; -179.000
410.052; -153.000;-1127.000;-1091.000
410.179;  -35.850; -368.000; -392.000
410.305;  -80.850; -375.000; -493.000
410.432;  -36.350; -220.000; -333.000
410.558;  -88.650; -305.000; -380.000
410.685;  -99.975; -688.000; -431.000
410.812;  -90.175; -409.000; -588.000
410.938; -129.475; -964.000; -808.000
411.065;  -84.225; -671.000; -645.000
411.191;   15.275; -189.000; -174.000
411.317;  -99.025; -823.000; -742.000
411.444;  -51.425; -317.000; -246.000
411.570;  -69.000; -339.000; -294.000
411.697; -132.325; -758.000; -752.000
411.823; -153.250; -989.000; -999.000
411.949;  -17.975;  -56.000;   17.000
412.076;  -92.800; -539.000; -519.000
412.202; -104.325; -758.000; -757.000
412.329; -118.425; -798.000; -752.000
412.455;  -94.200; -821.000; -657.000
412.581;  -16.400;  -15.000;  172.000
412.707;  -37.975; -540.000; -457.000
412.834;   34.425;  156.000;  219.000
412.960;  -66.725; -785.000; -784.000
413.086;  -86.750; -743.000; -701.000
413.212;  191.475;  604.000;  578.000
413.339;  -29.950; -685.000; -701.000
413.465;   32.850; -364.000; -310.000
413.591;  -74.775; -757.000; -474.000
413.717;  -55.300; -358.000; -366.000
413.843; -137.500; -839.000; -861.000
413.969;  -50.475;  -47.000; -292.000
414.096;  -94.450; -679.000; -679.000
414.222;   -7.225;  -33.000;   85.000
414.348;    6.875; -652.000; -385.000
414.474;  145.025;   38.000;  -52.000
414.600;   -2.525; -126.000; -144.000
414.726;   -5.300;  -96.000;  -55.000
414.852;  -63.925; -365.000; -342.000
414.978;   34.300;  104.000;  -18.000
415.104;   48.850;   38.000;   80.000
415.230;   21.675; -329.000; -330.000
415.356;   44.575; -409.000; -514.000
415.482;  215.475;   13.000;  -35.000
415.608;  270.425; -247.000; -323.000
415.734;  916.350;   67.000;   38.000
415.860;18662.175; -875.000; -767.000
415.986;14642.975; -685.000; -607.000
416.111; 1312.825; -798.000; -652.000
416.237;  261.125; -424.000; -571.000
416.363;  974.300; -765.000; -733.000
416.489; 3893.875; -324.000; -251.000
416.615;  452.050; -707.000; -742.000
416.741;  -16.225; -677.000; -784.000
416.866;  -74.650; -673.000; -736.000
416.992; -124.350; -801.000; -818.000
417.118;  -15.200;  -41.000;  -80.000
417.244;  -45.700; -798.000; -531.000
417.369;  -69.150; -801.000; -612.000
417.495;   18.300; -325.000; -254.000
417.621;  -54.000;-1015.000; -803.000
417.746;   30.750; -579.000; -572.000
417.872;   52.050; -254.000; -144.000
417.998;   57.375; -515.000; -530.000
418.123;  903.375;-1073.000; -845.000
418.249; 5098.400; -512.000; -601.000
418.374;  765.100; -916.000; -824.000
418.500;  108.050; -383.000; -482.000
418.626;  119.500;   70.000;  -59.000
418.751;  113.075; -549.000; -448.000
418.877;  196.575; -637.000; -643.000
419.002; 1556.225; -688.000; -560.000
419.128;11589.725; -930.000; -721.000
419.253; 3075.475; -967.000; -837.000
419.379;  398.175; -391.000; -338.000
419.504;  362.100;  325.000;  415.000
419.629;  478.075; -393.000; -212.000
419.755; 3019.925; -317.000; -254.000
419.880;18780.725;  -98.000;   67.000
420.006;10500.125; -280.000; -221.000
420.131;28113.650; -662.000; -775.000
420.256; 4432.975; -315.000; -316.000
420.382;  578.200; -665.000; -687.000
420.507;   88.175; -649.000; -778.000
420.632;  204.350; -337.000; -339.000
420.758;  382.150; -251.000; -425.000
420.883;  -48.275; -876.000; -672.000
421.008;  -96.375; -775.000; -619.000
421.133;  -64.575; -509.000; -467.000
421.259;  -35.550; -325.000; -259.000
421.384;  -99.200; -834.000; -693.000
421.509;   -0.600;-1052.000; -862.000
421.634; 1643.575; -936.000; -820.000
421.759;  779.300; -359.000; -327.000
421.885;  -13.300; -717.000; -656.000
422.010;  -64.425; -673.000; -542.000
422.135; -149.050; -695.000; -727.000
422.260;   40.800;  340.000;  280.000
422.385;  -38.350;   12.000;  -98.000
422.510;   13.875;  151.000;  -26.000
422.635;   48.175;  -87.000;  -43.000
422.760;  153.125; -766.000; -791.000
422.885;   80.675;  -57.000;  -80.000
423.010;  -28.725; -112.000; -169.000
423.135;  -85.525; -481.000; -561.000
423.260;   11.300; -150.000; -245.000
423.385;   78.025;  476.000;  222.000
423.510;   52.275;   71.000;  -22.000
423.635;  109.800;  133.000;   45.000
423.760;   51.500;  383.000;  328.000
423.885;   67.775;  336.000;  391.000
424.010;   16.850;  -68.000;  -13.000
424.135;   -7.725;    5.000;  -33.000
424.259;  -75.000; -654.000; -457.000
424.384;  -53.975; -279.000; -272.000
424.509;  -14.825; -260.000; -186.000
424.634;  -93.850; -761.000; -623.000
424.759;  -18.125; -688.000; -544.000
424.883;  -19.600; -506.000; -527.000
425.008;  157.525; -502.000; -410.000
425.133; 1844.575; -679.000; -653.000
425.258;  952.400; -517.000; -381.000
425.382; 1211.875; -867.000; -774.000
425.507; 3302.850; -487.000; -543.000
425.632;  539.000; -802.000; -663.000
425.756;  441.475; -256.000; -146.000
425.881; 5401.050; -831.000; -857.000
426.006;15588.450; -604.000; -355.000
426.130; 2751.050; -696.000; -508.000
426.255;  343.025; -611.000; -491.000
426.379;  149.150; -189.000; -577.000
426.504;  358.350;  660.000;  544.000
426.629; 3810.100; -519.000; -466.000
426.753; 2855.225;   64.000;  -46.000
426.878;  341.075; -252.000; -288.000
427.002;  152.350; -651.000; -668.000
427.127; 1464.275;  -35.000; -158.000
427.251;10536.925;  372.000;  401.000
427.375; 3304.600; -191.000; -173.000
427.500; 2776.575; -616.000; -610.000
427.624; 1031.775; -234.000; -400.000
427.749;  127.900; -216.000; -225.000
427.873;  -14.550; -499.000; -412.000
427.997;  -25.975; -222.000; -230.000
428.122;   90.000;  795.000;  703.000
428.246;   95.900;  433.000;  434.000
428.371; -111.250; -869.000; -773.000
428.495;  -95.325; -624.000; -646.000
428.619;  -21.600; -186.000; -117.000
428.743;   38.175;   65.000;  132.000
428.868;   50.875; -732.000; -643.000
428.992; 1737.450; -219.000; -326.000
429.116;  800.100; -329.000; -357.000
429.240;  384.825;  419.000;  426.000
429.365;   28.525; -454.000; -574.000
429.489;  -13.450; -638.000; -647.000
429.613;   52.625; -236.000; -177.000
429.737;   40.225; -563.000; -432.000
429.861;  280.150; -247.000; -133.000
429.985; 5034.225; -425.000; -305.000
430.109; 5969.800; -770.000; -908.000
430.234;  729.975;   76.000;  -50.000
430.358;   71.050; -250.000; -160.000
430.482;  -54.225; -672.000; -564.000
430.606;  -46.625; -655.000; -375.000
430.730;   50.475; -437.000; -388.000
430.854;  242.050; -909.000; -835.000
430.978;  -50.925; -795.000; -764.000
431.102;  -66.975; -499.000; -422.000
431.226; -101.450; -874.000; -815.000
431.350;   47.950;  345.000;  422.000
431.474;  -55.900; -661.000; -373.000
431.597; -127.450;-1060.000; -848.000
431.721;  -81.325; -276.000; -267.000
431.845; -125.725; -704.000; -472.000
431.969;  -88.275; -304.000; -349.000
432.093;  -83.775; -395.000; -317.000
432.217;  -18.325;   32.000;   82.000
432.341;  -81.350; -523.000; -518.000
432.464;   28.475;   96.000;   40.000
432.588;  309.450; -401.000; -329.000
432.712;  150.725;  -52.000;  -52.000
432.836;   56.275;  213.000;  263.000
432.959;   -4.350; -372.000; -311.000
433.083;   67.925;   11.000;    2.000
433.207;  348.800;  285.000;  930.000
433.330; 4469.500; -391.000; -200.000
433.454; 5911.850; -654.000; -638.000
433.578; 3391.875;  583.000;  278.000
433.701;  704.825; -623.000; -675.000
433.825;  217.350; -292.000; -299.000
433.949;  276.425;   28.000;  -72.000
434.072;  130.925; -410.000; -323.000
434.196;   -1.200; -309.000; -117.000
434.319; 3598.650;25482.000;25124.000
434.443;  724.950; -656.000; -603.000
434.566; 2550.475;  281.000;   62.000
434.690;  481.150; -637.000; -383.000
434.813;   63.950; -251.000; -173.000
434.937;  -60.025; -569.000; -696.000
435.060;  -20.175; -423.000; -332.000
435.184;  508.575; -492.000; -217.000
435.307;  310.775;  159.000;  102.000
435.431;    9.200;  -40.000;   24.000
435.554;  -69.400; -399.000; -240.000
435.677;  -76.175; -350.000; -258.000
435.801;  -29.000;  -25.000;   49.000
435.924;   -1.700;    1.000;  -67.000
436.048;  -83.150;-1019.000; -732.000
436.171;  -68.000; -240.000;  -66.000
436.294;  -13.875; -248.000; -229.000
436.417;   86.950; -963.000; -849.000
436.541;  -57.950; -814.000; -840.000
436.664;  -42.425; -242.000; -316.000
436.787;  -15.000;   13.000;  113.000
436.910; -100.575; -792.000; -422.000
437.034;   35.475;  142.000;  143.000
437.157;   99.950;  -11.000;    0.000
437.280;  -39.475; -392.000; -292.000
437.403;  -53.325; -982.000; -869.000
437.526;  867.750; -903.000; -865.000
437.649; 3297.275; -505.000; -332.000
437.772;  612.975; -692.000; -540.000
437.896;  160.900;  700.000;  544.000
438.019;  -83.100; -758.000; -503.000
438.142;  -78.850; -596.000; -506.000
438.265;   27.375; -639.000; -670.000
438.388;  816.125; -520.000; -410.000
438.511;  211.200; -597.000; -394.000
438.634;  -20.025; -247.000; -125.000
438.757; -118.775; -693.000; -619.000
438.880;  -12.325;  -34.000;  -57.000
439.003;  -56.475; -417.000; -437.000
439.126;  -51.125; -287.000; -167.000
439.248;  -69.100;  -98.000; -139.000
439.371;  -45.425;    9.000;  -53.000
439.494;   24.300;  510.000;  439.000
439.617;  -46.350;   65.000;  -88.000
439.740; -174.050; -968.000; -816.000
439.863; -129.375; -755.000; -595.000
439.986; -116.950; -476.000; -431.000
440.108;  -48.525; -161.000; -112.000
440.231; -149.000; -950.000; -836.000
440.354;  -37.975;  -64.000; -150.000
440.477;   92.350; -566.000; -542.000
440.599;   42.075; -200.000; -225.000
440.722;  -95.925; -709.000; -586.000
440.845;   74.900;  751.000;  928.000
440.968; -105.675; -415.000; -311.000
441.090;  -61.800; -199.000;  -33.000
441.213; -161.900;-1021.000; -825.000
441.336;  -55.625; -159.000;   -5.000
441.458;  -70.800; -549.000; -396.000
441.581;  -56.900; -628.000; -629.000
441.703;  -64.500; -152.000;   13.000
441.826; -101.775; -557.000; -400.000
441.948;  -38.875;   56.000;   51.000
442.071;   35.325;  555.000;  424.000
442.193; -114.875; -531.000; -485.000
442.316;   18.925;  152.000;   97.000
442.438;   51.925; -233.000;  -10.000
442.561;   89.550;  272.000;  262.000
442.683;  752.500; -809.000; -522.000
442.806; 1681.150;   -8.000;   74.000
442.928;  141.075; -859.000; -604.000
443.051;  -41.050; -577.000; -373.000
443.173;  -78.275; -341.000; -339.000
443.295;  -92.800; -263.000; -371.000
443.418;  -57.800; -321.000;  -29.000
443.540;   11.225; -106.000;   -4.000
443.662; -104.100; -563.000; -465.000
443.785;   -3.800;  335.000;  199.000
443.907;  -82.700; -362.000; -208.000
444.029; -125.525; -767.000; -494.000
444.152; -134.900; -644.000; -554.000
444.274;  -34.425;  -18.000;  -24.000
444.396; -104.075; -461.000; -221.000
444.518; -115.750; -691.000; -454.000
444.640; -112.075; -268.000; -111.000
444.763;  -16.650;  388.000;  249.000
444.885; -122.150; -432.000; -392.000
445.007;  -29.225;   35.000;   86.000
445.129; -112.050; -610.000; -515.000
445.251;  -97.350; -372.000; -439.000
445.373; -135.775; -537.000; -386.000
445.495;   22.550;  242.000;  350.000
445.617;   56.875;  853.000;  753.000
445.739;  -59.525; -215.000;  -97.000
445.861;  -27.325; -245.000; -112.000
445.984;  -16.350; -267.000; -101.000
446.105;  270.550; -418.000; -251.000
446.227;  852.075; -176.000;  -19.000
446.349;   67.000; -358.000; -249.000
446.471;  -93.125; -615.000; -448.000
446.593;  -34.375; -316.000;   19.000
446.715;   19.900;  -67.000;   41.000
446.837;   55.000;  697.000;  832.000
446.959;  -88.200; -457.000; -478.000
447.081; -113.700; -628.000; -518.000
447.203;   43.225;  862.000;  834.000
447.325;  -77.600; -270.000;   42.000
447.446;   -0.600;  286.000;  530.000
447.568; -143.000; -921.000; -803.000
447.690;  -76.475; -236.000; -245.000
447.812; -148.750; -798.000; -519.000
447.933;  -24.225;  155.000;  127.000
448.055;  -64.400; -306.000; -261.000
448.177;  192.825;   31.000;   79.000
448.299;  182.975; -935.000; -727.000
448.420;   36.525;  -25.000;  159.000
448.542;  -39.625;   -3.000;   33.000
448.664;  -14.750;  109.000;  322.000
448.785;  -33.275;  265.000;   83.000
448.907;  -65.975; -614.000; -353.000
449.028;   -4.600; -771.000; -471.000
449.150;   78.450;  492.000;  589.000
449.272; -169.450;-1044.000; -913.000
449.393;   39.775;  612.000;  694.000
449.515; -132.975; -634.000; -581.000
449.636;  -58.400; -264.000; -155.000
449.758;   84.350;  763.000;  622.000
449.879;  -86.950; -498.000; -396.000
450.001;  -77.600; -149.000;  -49.000
450.122;  -39.775;  -95.000;  162.000
450.244;  -13.025;   37.000;  364.000
450.365;  -79.400; -495.000; -301.000
450.486;  -17.900;   80.000;  268.000
450.608;    5.800;  393.000;  326.000
450.729;   56.675;  578.000;  645.000
450.850;    4.850; -574.000; -466.000
450.972;  614.900; -552.000; -389.000
451.093; 4317.600;  190.000;  588.000
451.214; 2073.500; -516.000; -337.000
451.336;  393.600;  773.000;  579.000
451.457;   57.500;  264.000;  393.000
451.578;  -38.125; -118.000;  -74.000
451.699; -112.150; -546.000; -540.000
451.821;  -72.550; -284.000;  -50.000
451.942;   -8.275;  278.000;  285.000
452.063;   25.950;  228.000;  419.000
452.184;  460.325;  -54.000;  -49.000
452.305; 1048.425;  103.000;  170.000
452.427;  132.975; -549.000; -301.000
452.548;   -4.700;   23.000;   79.000
452.669;  -57.650; -257.000;  -89.000
452.790;  -22.950;    3.000;  -18.000
452.911;    0.925;  195.000;  259.000
453.032;  -44.425; -289.000;  -60.000
453.153;  -23.875;  -29.000;   81.000
453.274;   72.150;  737.000;  868.000
453.395;  -50.625;  -51.000;  175.000
453.516;  141.075; 1317.000; 1388.000
453.637;  -46.650; -205.000; -150.000
453.758;  -61.300;   15.000;   69.000
453.879; -106.250; -462.000; -250.000
454.000;   71.375; 1086.000;  948.000
454.121; -115.350; -554.000; -326.000
454.242; -103.950; -599.000; -383.000
454.362;  -44.500;  -99.000;  114.000
454.483;  -38.825; -309.000; -229.000
454.604;   76.000;  512.000;  580.000
454.725; -105.425; -627.000; -555.000
454.846; -121.225; -474.000; -406.000
454.967;  -19.625;  230.000;  539.000
455.087;  -40.575;  179.000;  153.000
455.208;   25.100;  554.000;  856.000
455.329;  -52.325;  -22.000;   82.000
455.450;   12.700;  473.000;  633.000
455.570;  -91.125; -234.000; -211.000
455.691;  -40.300;  201.000;  407.000
455.812; -106.175; -270.000;  -92.000
455.932;  -53.200;  107.000;  -97.000
456.053;  -82.000;   36.000;   24.000
456.173; -107.525; -433.000; -355.000
456.294; -110.800; -476.000; -303.000
456.415;  -61.350;  -73.000;   70.000
456.535;  -35.075;  297.000;  273.000
456.656;  -42.200;  132.000;  240.000
456.776;  -64.900;    3.000;  298.000
456.897;   -1.975;  308.000;  513.000
457.017;  -77.025; -153.000;   -3.000
457.138; -100.150; -402.000; -249.000
457.258;  -28.700;  263.000;  224.000
457.379;  -19.000;  509.000;  521.000
457.499;  -25.900;  443.000;  432.000
457.620; -109.850; -407.000; -231.000
457.740;  -83.750; -132.000;  -11.000
457.860;  -48.650;   87.000;   44.000
457.981;  -45.600;  132.000;  124.000
458.101;  -68.300;  -89.000;   40.000
458.221;  -12.225;  336.000;  402.000
458.342;  -59.450;   -4.000;  -37.000
458.462;   25.425;  617.000;  352.000
458.582;  -43.250; -302.000; -294.000
458.703;    2.350;  303.000;  154.000
458.823;  -23.625;   22.000;  163.000
458.943;   25.050;  341.000;  467.000
459.063;  -14.075; 1124.000;  192.000
459.183;  -14.000;  328.000;  313.000
459.304;    8.925;  315.000;  517.000
459.424;  -62.500; -246.000;  -89.000
459.544;  291.125;  388.000;  764.000
459.664;  761.725;  499.000;  506.000
459.784;  294.825; 1004.000; 1175.000
459.904;   58.225;  867.000;  744.000
460.024;   70.700;  867.000;  684.000
460.144;   26.750;  449.000;  554.000
460.264;    1.475;  515.000;  327.000
460.385;  -87.500; -145.000; -119.000
460.505;   28.225;  905.000;  858.000
460.625;  -95.500;  -17.000;  -68.000
460.745;  -23.625;  396.000;  541.000
460.864;  -44.575;  153.000;  469.000
460.984;    3.625;  499.000;  573.000
461.104;  143.475; 1656.000; 1775.000
461.224;    2.050;  657.000;  650.000
461.344;  -17.200;  431.000;  360.000
461.464;  -17.875;  258.000;  513.000
461.584;   -2.400;  283.000;  466.000
461.704;  -36.100;   58.000;  108.000
461.824;  -53.525;  238.000;  259.000
461.943;  -48.600;  191.000;  130.000
462.063;  -73.225;    2.000;  324.000
462.183;   36.800;  639.000;  717.000
462.303;   98.600; 1678.000; 1230.000
462.422;   23.300;  781.000;  840.000
462.542;  -29.050;  271.000;  391.000
462.662;   36.750;  353.000;  380.000
462.782;  232.075;  833.000;  572.000
462.901;  451.725;  545.000;  717.000
463.021;  301.100; 1702.000; 1638.000
463.141;    3.950;  337.000;  770.000
463.260;  -25.025;  614.000;  474.000
463.380;   10.750;  902.000;  884.000
463.499;  -34.700;  342.000;  332.000
463.619;  -34.550;  581.000;  559.000
463.738;  109.900; 1644.000;  903.000
463.858;   10.800;  657.000;  811.000
463.978;  -34.625;  542.000;  396.000
464.097;   59.175;  921.000; 1114.000
464.217;  110.400; 1196.000; 1143.000
464.336;  108.125; 1068.000; 1130.000
464.455;  -33.300;  328.000;  659.000
464.575;   60.875;  597.000;  602.000
464.694;  192.175; 1204.000; 1179.000
464.814;  141.750; 1190.000; 1138.000
464.933;   90.750; 1095.000; 1027.000
465.052;   82.150; 1412.000; 1054.000
465.172;   91.300;  922.000;  799.000
465.291;  147.625; 1376.000; 1320.000
465.410;   23.475;  462.000;  735.000
465.530;   89.800; 1355.000; 1310.000
465.649;   59.700; 1209.000; 1273.000
465.768;  141.600; 1673.000; 1508.000
465.888;   43.450;  941.000; 1174.000
466.007;   81.675; 1335.000; 1440.000
466.126;   -2.800;  721.000;  641.000
466.245;   31.100; 1176.000; 1187.000
466.364;   44.300;  950.000; 1060.000
466.484;   65.625; 1024.000; 1213.000
466.603;   46.375; 1101.000; 1222.000
466.722;  129.300; 1490.000; 1769.000
466.841;   93.250; 1151.000; 1401.000
466.960;   41.175; 1069.000;  972.000
467.079;  126.225; 1971.000; 1786.000
467.198;   49.500; 1238.000; 1181.000
467.317;   86.550; 1768.000; 1162.000
467.436;   72.975; 1709.000; 1261.000
467.555;  124.075; 1796.000; 1746.000
467.674;   56.450; 1227.000; 1329.000
467.793;   41.050; 1376.000; 1374.000
467.912;   96.400; 1658.000; 1539.000
468.031;  145.575; 2038.000; 1930.000
468.150;  149.875; 1842.000; 1837.000
468.269;  187.075; 2313.000; 2090.000
468.388;  195.150; 2168.000; 2339.000
468.507;  239.550; 2884.000; 2903.000
468.626;  262.200; 2555.000; 2541.000
468.744;  139.800; 2018.000; 2174.000
468.863;  200.275; 2312.000; 2523.000
468.982;   90.075; 1503.000; 1555.000
469.101;  223.450; 2788.000; 2692.000
469.220;  145.225; 2333.000; 2176.000
469.338;  252.725; 2935.000; 3051.000
469.457;  186.875; 2719.000; 2545.000
469.576;  342.525; 3953.000; 3784.000
469.695;  246.725; 2877.000; 3066.000
469.813;  411.175; 4148.000; 4192.000
469.932;  416.675; 4255.000; 4485.000
470.051;  404.225; 4075.000; 4161.000
470.169;  815.675; 4470.000; 4338.000
470.288; 1392.925; 4700.000; 4809.000
470.406;  875.025; 5059.000; 5194.000
470.525;  635.100; 6101.000; 5787.000
470.644;  645.425; 6847.000; 6794.000
470.762;  789.000; 8397.000; 7873.000
470.881;  885.825; 8651.000; 8464.000
470.999; 1027.400; 9685.000; 9151.000
471.118; 1099.425;11174.000;10711.000

