
Integration time [ms]: 100.000
Averaging Nr. [scans]: 40
Smoothing Nr. [pixels]: 0
Data measured with spectrometer [name]: 2101012U2
Wave   ;Sample   ;Dark     ;Reference
[nm]   ;[counts] ;[counts] ;[counts] 

197.733;   65.325;  516.000;  404.000
197.879;  -77.225; -610.000; -634.000
198.025;  -46.500; -475.000; -420.000
198.171;  -63.000; -602.000; -612.000
198.317;  -49.025; -401.000; -316.000
198.463;  -68.750; -655.000; -404.000
198.609;   15.325;  181.000; -137.000
198.755;  -74.750; -644.000; -410.000
198.901;  -71.425; -505.000; -424.000
199.047;  -70.275; -615.000; -488.000
199.193;  -42.450; -230.000; -468.000
199.339;  -49.550; -222.000; -369.000
199.485;   44.700;  330.000;  271.000
199.631;   19.625;  227.000;  310.000
199.777;  -60.950; -466.000; -398.000
199.923;  -65.025; -610.000; -424.000
200.069;   -2.800; -141.000;  -58.000
200.215;   47.325;  128.000;  453.000
200.361;   39.700;  243.000;  477.000
200.507;  -64.850; -600.000; -373.000
200.653;  -34.875; -371.000; -194.000
200.798;  -40.500; -215.000; -125.000
200.944;  -12.550; -146.000;  -41.000
201.090;   20.900;   61.000;  222.000
201.236;   -8.025; -116.000; -158.000
201.382;  128.350;  874.000;  903.000
201.528;    4.050;  -58.000;  -48.000
201.674;  -39.775; -386.000; -293.000
201.819;  -54.675; -540.000; -439.000
201.965;  -81.450; -699.000; -447.000
202.111;  -22.875; -273.000; -226.000
202.257;  -45.875; -250.000; -238.000
202.402;    5.600;   13.000;  -36.000
202.548;  -35.550; -169.000; -116.000
202.694;   73.825;  410.000; -183.000
202.840;  -70.700; -603.000; -531.000
202.985;  -74.650; -681.000; -639.000
203.131; -110.200; -832.000; -666.000
203.277;  -27.375; -199.000; -262.000
203.423;  -55.700; -434.000; -520.000
203.568;  -52.425; -462.000; -237.000
203.714;  -58.125; -535.000; -542.000
203.860;  -86.350; -682.000; -641.000
204.005;   10.725;  112.000;  167.000
204.151;   82.800;  561.000;  556.000
204.296;  -55.400; -354.000; -221.000
204.442;  -83.525; -600.000; -547.000
204.588;  -64.425; -592.000; -579.000
204.733;    3.350;  178.000;  168.000
204.879; -136.775;-1018.000; -822.000
205.025;   18.375;  -99.000;  126.000
205.170;   11.575;  -17.000;   94.000
205.316;   73.450;  438.000;  661.000
205.461;  -92.125; -698.000; -554.000
205.607;   69.050;  609.000;  665.000
205.752;  -93.550; -626.000; -551.000
205.898;  -47.350; -501.000; -391.000
206.043;  -64.725; -578.000; -506.000
206.189;  -39.450; -243.000; -285.000
206.334;   81.650;  554.000;  606.000
206.480;   86.725;  409.000;  239.000
206.625;  -74.375; -529.000; -552.000
206.771;  -49.675; -451.000; -373.000
206.916;  -37.125; -210.000; -537.000
207.062;  -78.200; -545.000; -591.000
207.207;  -68.275; -546.000; -443.000
207.353;   47.825;  185.000;  460.000
207.498;    9.875;  196.000;   85.000
207.643;  -58.950; -501.000; -370.000
207.789; -135.000;-1069.000; -910.000
207.934;  -98.300; -665.000; -713.000
208.080;  -30.275; -154.000;   66.000
208.225;   -9.350;  -22.000;  -57.000
208.370;  -74.950; -727.000; -619.000
208.516;  -77.275; -741.000; -487.000
208.661;  -32.575; -127.000;  -69.000
208.806;  -38.425; -165.000; -171.000
208.952; -123.525;-1044.000; -731.000
209.097;   63.525;  378.000;  349.000
209.242;  -31.400; -307.000; -382.000
209.387;   63.250;  392.000;  350.000
209.533;  -57.675; -321.000; -350.000
209.678;   74.250;  472.000;  543.000
209.823;  -62.250; -408.000; -310.000
209.969; -104.525; -860.000; -757.000
210.114; -110.225; -907.000; -719.000
210.259; -124.925; -939.000; -889.000
210.404;    0.725; -171.000;  103.000
210.549;   14.900;  108.000;    3.000
210.695;  -22.550;   -3.000;  -95.000
210.840;   39.175;   94.000;   67.000
210.985;  -74.850; -484.000; -303.000
211.130;   57.775;  268.000;  406.000
211.275;    9.050;  207.000;  199.000
211.420;  -56.950; -300.000; -289.000
211.566;  -73.825; -536.000; -489.000
211.711;   12.300;  218.000;  157.000
211.856;  -60.400; -545.000; -519.000
212.001;    1.975;  151.000;   44.000
212.146;   24.225;  153.000;   49.000
212.291;  -26.750; -210.000; -186.000
212.436;  -21.300; -280.000;   -6.000
212.581;  -87.125; -685.000; -653.000
212.726;  -83.225; -487.000; -538.000
212.871;  -54.800; -552.000; -217.000
213.016; -148.375;-1172.000;-1029.000
213.161;   56.300;  406.000;  291.000
213.306;  -85.800; -435.000; -577.000
213.451;  -98.225; -778.000; -689.000
213.596;  -51.625; -455.000; -347.000
213.741;  -50.575; -448.000; -538.000
213.886;  -78.500; -498.000; -517.000
214.031;  -37.800; -294.000; -124.000
214.176;  -50.375; -408.000; -341.000
214.321;  -17.575; -296.000; -157.000
214.466;  -38.750; -163.000;  -43.000
214.611;  -19.100;  -61.000;  -10.000
214.756; -125.125; -948.000; -858.000
214.901;  -31.050; -388.000; -226.000
215.046; -118.025; -797.000; -825.000
215.191;   18.250;  128.000;   35.000
215.336;  -11.550; -157.000;  -19.000
215.480;  -71.500; -684.000; -505.000
215.625;  -16.150; -175.000;  -19.000
215.770;  -91.750; -757.000; -662.000
215.915;  -12.900;   -5.000;  -97.000
216.060;    1.250; -113.000;  -21.000
216.205; -115.225; -731.000; -779.000
216.349;  -68.525; -470.000; -533.000
216.494; -148.725; -939.000; -867.000
216.639; -116.150; -823.000; -888.000
216.784;  -99.650; -577.000; -525.000
216.929;   34.825;  392.000;  281.000
217.073;  -12.250; -244.000;  -31.000
217.218;   -2.325;   78.000;  -47.000
217.363;  -84.175; -656.000; -618.000
217.507;  -74.275; -623.000; -588.000
217.652; -122.925; -845.000; -874.000
217.797;  -93.075; -708.000; -659.000
217.942; -111.425; -856.000; -720.000
218.086;   72.200;  608.000;  539.000
218.231;  -23.150; -174.000;  -26.000
218.376;  -30.725; -337.000; -229.000
218.520;   -6.075;  -41.000;   96.000
218.665;  -38.075; -338.000; -204.000
218.810;  -50.125; -275.000; -233.000
218.954;   20.450;  201.000;   35.000
219.099; -122.325; -713.000; -963.000
219.243;  -78.450; -589.000; -554.000
219.388;  -41.900; -264.000; -136.000
219.532;  -11.625; -116.000; -116.000
219.677;  -83.700; -564.000; -521.000
219.822;   -9.825;   33.000;   89.000
219.966;    0.500;   17.000;  -99.000
220.111;  -31.750; -328.000;  -40.000
220.255; -103.525; -797.000; -750.000
220.400;  -21.975; -180.000; -146.000
220.544;  -73.025; -516.000; -450.000
220.689;  -66.125; -422.000; -451.000
220.833;  -19.425; -123.000;  -58.000
220.978;  -48.550; -393.000; -563.000
221.122;   36.125;  319.000;  307.000
221.267; -119.125; -906.000; -837.000
221.411;  -76.100; -478.000; -394.000
221.555;  -24.650; -104.000;  -23.000
221.700;  -45.250; -329.000; -222.000
221.844;   25.775;  255.000;  272.000
221.989;  -44.725; -328.000; -311.000
222.133;  -44.175; -289.000; -307.000
222.277;  -12.225;    5.000;   78.000
222.422;    4.075;  227.000;  113.000
222.566;  -50.725; -381.000; -214.000
222.711;  -69.200; -414.000; -479.000
222.855;  -75.575; -643.000; -586.000
222.999;  -82.925; -642.000; -717.000
223.144;  -38.850; -195.000; -194.000
223.288;   38.250;  423.000;  251.000
223.432;   33.225;  184.000;  230.000
223.576;   17.675;  152.000;  -21.000
223.721;   43.700;  364.000;  273.000
223.865;  -61.250; -472.000; -475.000
224.009;  227.825; 1673.000; 1631.000
224.153;  -81.875; -660.000; -671.000
224.298;  -71.725; -531.000; -489.000
224.442;  -15.100;  -74.000;  -33.000
224.586;   -0.925; -169.000; -106.000
224.730; -101.175; -858.000; -670.000
224.875; -115.500; -739.000; -688.000
225.019;   13.725;  102.000;  188.000
225.163;   52.600;  208.000;  341.000
225.307;   14.075;   97.000;  -91.000
225.451;   57.475;  360.000;  481.000
225.595;   13.550;  264.000;  176.000
225.739;  -16.675; -170.000;  -94.000
225.884;   11.525;   86.000;    5.000
226.028; -107.475; -760.000; -626.000
226.172;  -36.400; -260.000; -273.000
226.316; -118.975; -941.000; -902.000
226.460;  -79.925; -645.000; -493.000
226.604;  -53.775; -406.000; -400.000
226.748; -101.825; -836.000; -733.000
226.892;  -38.725; -227.000; -181.000
227.036;  -49.475; -537.000; -447.000
227.180;  -57.575; -551.000; -375.000
227.324;  -78.925; -561.000; -580.000
227.468; -124.200; -819.000; -717.000
227.612;   15.425;  242.000;  -28.000
227.756;  -97.425; -845.000; -698.000
227.900;   55.550;  342.000;  441.000
228.044;  -63.875; -509.000; -290.000
228.188;   52.550;  448.000;  568.000
228.332;  -88.750; -546.000; -472.000
228.476;  -51.175; -223.000; -149.000
228.620;  -39.325; -210.000; -150.000
228.764;   58.500;  431.000;  349.000
228.908;  -33.475; -155.000;   30.000
229.052;  -71.100; -615.000; -528.000
229.195;  -13.650; -172.000;   13.000
229.339;  -27.125; -235.000; -305.000
229.483;  -34.425;    5.000; -162.000
229.627;   -3.650; -156.000;  139.000
229.771;  -60.400; -218.000; -294.000
229.915;   -8.500;  230.000;   79.000
230.059;  -88.275; -648.000; -663.000
230.202;  -60.800; -370.000; -317.000
230.346;  -19.275; -107.000;  107.000
230.490;  -65.650; -489.000; -521.000
230.634; -106.750; -736.000; -553.000
230.777;   65.700;  478.000;  509.000
230.921;  -56.575; -450.000; -359.000
231.065;  -31.850; -246.000; -286.000
231.209;   25.575;  261.000;  265.000
231.352;    7.325;   54.000;   40.000
231.496;   16.625;  568.000;  188.000
231.640;  -89.200; -693.000; -621.000
231.783;   52.550;  546.000;  525.000
231.927;  -53.900; -294.000; -365.000
232.071; -116.375; -962.000; -736.000
232.214; -116.025; -980.000; -764.000
232.358; -105.925; -683.000; -599.000
232.502;   16.100;  -19.000;    7.000
232.645; -137.450;-1090.000; -927.000
232.789;  -38.850; -257.000; -218.000
232.933;  -53.750; -407.000; -224.000
233.076; -129.925;-1038.000; -897.000
233.220; -108.900; -752.000; -777.000
233.363;  -86.950; -669.000; -477.000
233.507;   50.050;  371.000;  129.000
233.650;  -97.225; -764.000; -834.000
233.794;   43.575;  438.000;  461.000
233.938;  -63.425; -530.000; -362.000
234.081;  -10.500;  -93.000;   31.000
234.225;  -67.000; -631.000; -539.000
234.368; -111.850; -773.000; -723.000
234.512;  -39.250; -385.000; -299.000
234.655;  -79.800; -582.000; -555.000
234.798;  -67.375; -493.000; -466.000
234.942; -122.000; -884.000;-1002.000
235.085;  -84.075; -651.000; -443.000
235.229;  -78.200; -405.000; -410.000
235.372;  -59.475; -247.000; -191.000
235.516;  -64.950; -397.000; -321.000
235.659;    8.925;   92.000;  121.000
235.802;  -15.650;  -38.000;  -22.000
235.946;   14.475;  335.000;  215.000
236.089;   14.075;  126.000;  250.000
236.233;   40.975;  275.000;  298.000
236.376;  -54.775; -235.000; -378.000
236.519;  -55.350; -297.000; -319.000
236.663;  -20.100; -215.000; -117.000
236.806; -143.375;-1029.000; -999.000
236.949;   52.400;  543.000;  431.000
237.092;   52.075;  412.000;  391.000
237.236;  -89.050; -589.000; -502.000
237.379;   51.225;  352.000;  428.000
237.522; -109.150; -879.000; -768.000
237.666;  -17.600; -271.000;   18.000
237.809; -127.075; -851.000; -823.000
237.952;   43.775;  469.000;  271.000
238.095;  -72.875; -447.000; -442.000
238.238;   79.275;  688.000;  700.000
238.382;  -20.500;  166.000;  103.000
238.525;  -70.075; -598.000; -511.000
238.668; -154.650;-1060.000; -985.000
238.811;  -78.625; -638.000; -643.000
238.954;  -54.800; -483.000; -334.000
239.097;   72.625;  617.000;  664.000
239.241;   17.825;  394.000;  326.000
239.384;  -42.925; -254.000; -214.000
239.527;  -59.325; -424.000; -224.000
239.670; -150.375; -994.000;-1091.000
239.813; -119.750; -696.000; -658.000
239.956;   85.600;  579.000;  473.000
240.099; -115.875; -778.000; -725.000
240.242;   59.325;  428.000;  432.000
240.385;   36.700;  466.000;  450.000
240.528;  -73.125; -706.000; -473.000
240.671;   29.850;  189.000;  134.000
240.814;  -44.900; -441.000; -158.000
240.957;  -94.525; -767.000; -578.000
241.100; -105.725; -779.000; -755.000
241.243; -150.300;-1234.000; -893.000
241.386;  -87.750; -508.000; -379.000
241.529;  -90.200; -735.000; -547.000
241.672;  -66.300; -566.000; -495.000
241.815; -114.000; -832.000; -808.000
241.958;  -36.075; -125.000; -182.000
242.101;  -81.200; -545.000; -390.000
242.244;  -44.625; -270.000; -325.000
242.387;  -45.625; -304.000; -246.000
242.530;   53.625;  470.000;  134.000
242.673;  -53.025; -381.000; -309.000
242.815; -135.550; -925.000; -899.000
242.958;  -81.200; -482.000; -381.000
243.101;    5.175;  132.000;  187.000
243.244;  -80.625; -564.000; -521.000
243.387;  -47.025; -313.000; -316.000
243.530; -103.975; -657.000; -674.000
243.672;   -4.050;   43.000;  -92.000
243.815;  -44.100; -355.000; -283.000
243.958;  -13.400;   98.000;  -26.000
244.101;   -1.425;   59.000;  -16.000
244.243;  -24.225;  -47.000;  101.000
244.386; -112.275; -761.000; -630.000
244.529;  -41.825; -132.000; -139.000
244.672; -164.200;-1154.000; -951.000
244.814; -100.650; -621.000; -794.000
244.957;  -38.175; -380.000; -304.000
245.100;  -81.525; -489.000; -489.000
245.242;  -57.375; -387.000; -374.000
245.385;  -16.125;  -59.000;  -39.000
245.528; -122.275; -871.000; -705.000
245.670;   96.775;  612.000;  634.000
245.813;  -79.325; -599.000; -547.000
245.956;  -36.425; -324.000; -275.000
246.098;  -79.550; -508.000; -650.000
246.241;    2.500;  194.000;   48.000
246.383;  -25.900; -119.000;  -73.000
246.526;  -72.275; -454.000; -525.000
246.669; -127.275; -889.000; -780.000
246.811;   -1.275;  172.000;   -1.000
246.954;  -59.250; -512.000; -426.000
247.096;  -22.575;  -84.000;   -6.000
247.239;  -73.750; -482.000; -445.000
247.381;  -76.675; -647.000; -488.000
247.524;   78.600;  645.000;  679.000
247.666;  -19.000;   58.000;   11.000
247.809; -123.950; -887.000; -691.000
247.951;  -20.975;  -75.000;  138.000
248.094;   25.925;  432.000;  308.000
248.236; -164.125;-1262.000;-1238.000
248.378;    4.850; -356.000;  -81.000
248.521;  -42.300; -334.000; -337.000
248.663;  -54.375; -236.000; -267.000
248.806;  -27.800; -300.000; -266.000
248.948;  -97.425; -886.000; -763.000
249.090;  -46.800; -428.000; -398.000
249.233;  -47.650; -344.000; -381.000
249.375;  -74.425; -474.000; -451.000
249.518;  -17.850;  -83.000; -133.000
249.660;   -1.625; -103.000;    3.000
249.802; -187.550;-1303.000;-1189.000
249.945;  -82.625; -612.000; -540.000
250.087; -111.500; -834.000; -768.000
250.229;  -54.150; -362.000; -480.000
250.371;  -75.450; -494.000; -439.000
250.514;  -48.975; -310.000; -244.000
250.656;  -60.550;   69.000;  102.000
250.798; -126.600; -849.000; -800.000
250.940;  -61.700; -322.000; -322.000
251.083;  -39.625; -335.000; -111.000
251.225;   57.250;  338.000;  310.000
251.367;  -34.575; -274.000; -373.000
251.509;  -42.350; -265.000; -210.000
251.651; -108.875; -731.000; -671.000
251.794;   65.725;  538.000;  632.000
251.936; -110.650; -821.000; -747.000
252.078;  -83.300; -540.000; -461.000
252.220;  -79.325; -645.000; -477.000
252.362;   94.625;  344.000;  462.000
252.504;  -73.600; -677.000; -584.000
252.646; -109.975; -875.000; -722.000
252.788;  -17.775;   14.000; -128.000
252.931;  -43.100; -257.000; -253.000
253.073;  -55.825; -376.000; -317.000
253.215;  -20.500;  141.000;  122.000
253.357;  -20.400;   82.000; -153.000
253.499;  -48.000; -374.000; -234.000
253.641;  -93.075; -749.000; -594.000
253.783;  -90.625; -609.000; -527.000
253.925;  -92.450; -586.000; -591.000
254.067; -106.450; -744.000; -667.000
254.209;  -33.425; -391.000; -259.000
254.351; -134.375; -865.000; -883.000
254.493;  -67.975; -441.000; -417.000
254.635; -128.600; -936.000; -818.000
254.777;  -97.575; -752.000; -687.000
254.918;  -78.175; -512.000; -430.000
255.060;  -65.750; -551.000; -395.000
255.202;  -62.400; -473.000; -261.000
255.344;  -83.200; -658.000; -455.000
255.486;  -84.550; -471.000; -406.000
255.628; -108.200; -780.000; -781.000
255.770;  -91.775; -676.000; -536.000
255.912;  -67.900; -559.000; -468.000
256.053;  -89.075; -730.000; -508.000
256.195;  150.350; 1008.000;  903.000
256.337; -106.650; -861.000; -595.000
256.479;   56.550;  532.000;  416.000
256.621;  -45.200; -394.000; -212.000
256.762; -104.875; -789.000; -742.000
256.904;   51.450;  485.000;  487.000
257.046;  -42.900; -381.000; -271.000
257.188;  -46.250; -351.000; -264.000
257.329;  -74.300; -525.000; -464.000
257.471; -121.000; -939.000; -807.000
257.613;  -71.775; -584.000; -498.000
257.755; -161.400;-1073.000; -982.000
257.896;   24.450;  286.000;  392.000
258.038;  -81.475; -403.000; -352.000
258.180;  -58.100; -354.000; -279.000
258.321;  -85.000; -581.000; -457.000
258.463;   -8.925;  -71.000;  133.000
258.605;  -95.475; -562.000; -570.000
258.746; -101.850; -886.000; -772.000
258.888; -164.700;-1026.000;-1020.000
259.029;    0.400;  121.000;   -8.000
259.171;  -93.100; -614.000; -550.000
259.313;  -12.025;  -49.000;  -47.000
259.454;  -76.325; -536.000; -414.000
259.596;  -60.875; -483.000; -390.000
259.737;  -86.425; -590.000; -474.000
259.879;   36.775;  217.000;  311.000
260.020;   82.775;  901.000;  636.000
260.162;  -45.200; -146.000; -253.000
260.303; -127.150; -768.000; -687.000
260.445;  -93.500; -609.000; -613.000
260.586;   21.875;  392.000;  157.000
260.728;  -59.025; -360.000; -248.000
260.869; -116.075; -350.000; -343.000
261.011;   73.600;  706.000;  537.000
261.152;  -57.975; -479.000; -319.000
261.293;  -78.600; -576.000; -595.000
261.435;  -39.075; -219.000; -184.000
261.576;  -48.000; -455.000; -325.000
261.718;   48.350;  420.000;  470.000
261.859; -139.000; -940.000; -949.000
262.000; -144.700; -951.000;-1016.000
262.142;  -39.875;  -52.000;  -60.000
262.283; -121.625; -808.000; -691.000
262.424; -100.075; -666.000; -625.000
262.566; -163.850;-1161.000; -983.000
262.707; -129.325; -840.000; -830.000
262.848; -120.975; -769.000; -726.000
262.990;  -59.150; -362.000; -345.000
263.131;   92.375;  650.000;  681.000
263.272;    0.225;  -61.000;  -41.000
263.413;  -96.150; -589.000; -561.000
263.555;  -71.925; -669.000; -143.000
263.696;  -82.400; -550.000; -641.000
263.837;  -74.675; -449.000; -551.000
263.978;    3.250;   -5.000;  -77.000
264.119;  -61.175; -283.000; -264.000
264.261; -105.775; -847.000; -630.000
264.402;  -15.175;   33.000;   40.000
264.543;  -77.650; -509.000; -524.000
264.684;  -18.825;   61.000;  -50.000
264.825;  -91.225; -816.000; -538.000
264.966;  -17.725;  -84.000;  -67.000
265.107; -108.675; -646.000; -670.000
265.248; -125.025; -825.000; -812.000
265.390;   -0.550;  152.000;   -9.000
265.531;  -26.525; -238.000; -107.000
265.672;  -93.350; -557.000; -630.000
265.813;   47.700;  563.000;  439.000
265.954; -136.775; -959.000; -940.000
266.095;  -21.650; -372.000; -322.000
266.236;  -92.825; -686.000; -548.000
266.377;  -43.300; -243.000; -297.000
266.518;  -79.225; -619.000; -547.000
266.659;   22.650;  170.000;  268.000
266.800;   11.050;   83.000;   85.000
266.941;  -82.525; -487.000; -478.000
267.082;   30.100;  354.000;   99.000
267.223;  -54.225; -344.000; -273.000
267.364; -120.825; -892.000; -686.000
267.504;   -7.775;    3.000;  135.000
267.645;   -0.650;  160.000;   67.000
267.786;  -36.850; -147.000;  -86.000
267.927;  -76.025; -473.000; -379.000
268.068;  -23.125; -186.000;  -61.000
268.209;  -34.475; -175.000; -413.000
268.350;  -69.900; -388.000; -532.000
268.490;  -88.050; -648.000; -521.000
268.631;   24.500;  127.000;  225.000
268.772; -100.200; -874.000; -647.000
268.913;  -67.150; -328.000; -476.000
269.054;  -15.175; -117.000;   12.000
269.194;  -62.650; -418.000; -402.000
269.335; -162.200;-1137.000;-1074.000
269.476;  -28.675;   33.000;  -35.000
269.617;  -46.500; -347.000; -392.000
269.757;  -96.475; -713.000; -646.000
269.898; -110.775; -856.000; -613.000
270.039;  -67.650; -415.000; -405.000
270.180; -142.275; -952.000; -816.000
270.320;  -43.475; -190.000; -250.000
270.461;  -40.275; -277.000; -249.000
270.602;  -29.275; -186.000; -156.000
270.742; -132.200; -868.000; -943.000
270.883;  -55.575; -442.000; -390.000
271.023;  -47.425; -358.000; -357.000
271.164;  -77.525; -607.000; -528.000
271.305;  -90.850; -666.000; -654.000
271.445;  -92.825; -722.000; -683.000
271.586;  -77.500; -462.000; -283.000
271.726;  -49.275; -397.000; -322.000
271.867;  -53.025; -594.000; -534.000
272.008;  170.650; -473.000; -285.000
272.148;  118.500;  462.000;  468.000
272.289;    9.850; -113.000; -181.000
272.429;    1.975;   19.000;  185.000
272.570;  -93.000; -633.000; -737.000
272.710; -100.175; -825.000; -775.000
272.851;  -31.125;  113.000; -130.000
272.991; -173.675;-1173.000;-1077.000
273.131;  -74.450; -419.000; -459.000
273.272; -100.475; -683.000; -723.000
273.412;    0.950; -143.000;  -31.000
273.553;  -59.150; -488.000; -507.000
273.693;  133.800;  913.000;  858.000
273.834; -116.300; -894.000; -692.000
273.974;  -82.350; -664.000; -615.000
274.114; -100.975; -772.000; -560.000
274.255;   65.175;  414.000;  373.000
274.395;   -3.400; -180.000; -125.000
274.535;   36.900;  199.000;  350.000
274.676;   11.900;  225.000;   94.000
274.816;    3.875;  110.000;   34.000
274.956;  -82.525; -624.000; -690.000
275.097;  -68.750;-1014.000; -922.000
275.237; -113.950; -913.000; -803.000
275.377;  -99.925; -778.000; -689.000
275.517; -147.100; -878.000; -937.000
275.658;  -65.850; -590.000; -555.000
275.798;  -60.350; -606.000; -413.000
275.938;   15.000;  215.000;  323.000
276.078; -104.850; -626.000; -395.000
276.218;   -2.775;   99.000;  104.000
276.359; -136.125;-1026.000;-1024.000
276.499;  -74.725; -605.000; -446.000
276.639;  -33.675; -305.000; -151.000
276.779;  -45.475; -475.000; -357.000
276.919; -113.125; -783.000; -624.000
277.059;  -35.700; -261.000; -212.000
277.199;  -39.300; -357.000; -259.000
277.340;   46.175;  287.000;  175.000
277.480; -108.375; -840.000; -693.000
277.620;   23.925;  192.000;   16.000
277.760; -193.050;-1533.000;-1294.000
277.900;   18.375;  113.000;   33.000
278.040;   21.900;  137.000;  159.000
278.180;   30.500;  270.000;  170.000
278.320;  -12.000;   21.000;   56.000
278.460;  -77.700; -443.000; -469.000
278.600;  -98.275; -708.000; -598.000
278.740;   49.100;  448.000;  224.000
278.880;  -62.350; -768.000; -791.000
279.020;  -17.200; -194.000; -144.000
279.160;  -88.775; -672.000; -595.000
279.300; -119.825; -926.000; -873.000
279.440;  -88.500; -709.000; -622.000
279.579;   -6.575;-1014.000; -929.000
279.719;  -46.325; -410.000; -394.000
279.859;   54.250;   -4.000;   41.000
279.999;   26.275; -208.000;  101.000
280.139;  -26.475; -435.000; -387.000
280.279;  -76.100; -708.000; -745.000
280.419;  -22.350; -229.000; -147.000
280.559;  -40.950; -259.000; -180.000
280.698;  -94.775; -790.000; -639.000
280.838;  -98.050; -778.000; -800.000
280.978; -108.350; -846.000; -790.000
281.118; -114.950; -811.000; -704.000
281.257;   -6.050;   24.000;    6.000
281.397; -123.850;-1094.000; -960.000
281.537;  -89.450; -599.000; -712.000
281.677;  -18.500; -150.000; -101.000
281.816;  -90.850; -700.000; -630.000
281.956;  -36.375; -193.000; -257.000
282.096;  -61.725; -539.000; -396.000
282.235; -112.950; -672.000; -638.000
282.375;  -20.975; -243.000;  -98.000
282.515; -111.275; -715.000; -707.000
282.654;   19.100;   29.000;  106.000
282.794;    9.375;  388.000;  244.000
282.934;  -61.550; -530.000; -491.000
283.073; -136.625;-1030.000; -857.000
283.213;  -44.250; -460.000; -467.000
283.353;  -34.875; -408.000; -349.000
283.492;  -36.075; -264.000; -296.000
283.632;  -41.600; -254.000; -168.000
283.771; -108.325; -859.000; -730.000
283.911;  -63.125; -369.000; -260.000
284.050; -111.500; -794.000; -748.000
284.190; -167.250;-1229.000;-1096.000
284.329; -155.000;-1055.000; -964.000
284.469;  -60.475; -516.000; -591.000
284.608;  -63.250; -559.000; -598.000
284.748;  -87.075; -614.000; -570.000
284.887;  -15.000;  -87.000;  -20.000
285.027; -124.550; -844.000; -892.000
285.166;  -43.975; -192.000; -249.000
285.306;   -3.575; -116.000;  -33.000
285.445;  -50.600; -229.000; -343.000
285.584;  -90.725; -630.000; -494.000
285.724;  -51.900; -282.000; -322.000
285.863; -117.925; -857.000; -507.000
286.002;  -60.325; -366.000; -276.000
286.142;  -95.250; -715.000; -622.000
286.281;  -75.925; -525.000; -493.000
286.420;  -75.450; -554.000; -417.000
286.560;   91.600;  653.000;  623.000
286.699; -147.875; -958.000; -912.000
286.838;  -85.700; -590.000; -591.000
286.978; -100.625; -533.000; -537.000
287.117; -135.200;-1085.000; -950.000
287.256;  -38.200; -228.000; -211.000
287.395;  -52.175; -197.000; -378.000
287.535;  -42.700; -370.000; -298.000
287.674;  -85.250; -509.000; -484.000
287.813;   54.150;  661.000;  533.000
287.952; -139.425;-1010.000; -871.000
288.091; -145.875;-1049.000; -915.000
288.231;   15.200;   13.000;   15.000
288.370; -187.750;-1217.000;-1200.000
288.509;  -99.950; -728.000; -645.000
288.648;  -87.675; -770.000; -548.000
288.787;  -39.875; -243.000;  -87.000
288.926;  -81.300; -454.000; -475.000
289.065;  109.600;  859.000;  672.000
289.204;  -44.375; -377.000; -217.000
289.344; -105.550; -791.000; -690.000
289.483;   14.650;  416.000;  304.000
289.622;  -35.150; -291.000; -149.000
289.761;  -18.375; -309.000; -166.000
289.900; -119.400; -785.000; -626.000
290.039;  -25.500;  -12.000;  -95.000
290.178;  -41.175; -274.000; -180.000
290.317;  -69.375; -618.000; -479.000
290.456;  -66.350; -463.000; -451.000
290.595; -155.625; -961.000; -833.000
290.734; -151.800; -904.000; -891.000
290.873;  -67.850; -456.000; -420.000
291.011; -116.075; -833.000; -843.000
291.150; -104.700; -770.000; -682.000
291.289;  -32.250; -343.000; -110.000
291.428;  -85.100; -599.000; -480.000
291.567;  -69.675; -370.000; -442.000
291.706;   -4.200;  109.000;  154.000
291.845;  -92.875; -597.000; -505.000
291.984; -163.225;-1234.000;-1061.000
292.122;   65.525;  602.000;  582.000
292.261;   43.975;  620.000;  463.000
292.400;    5.150; -144.000;  211.000
292.539; -128.925; -959.000; -813.000
292.678;  -33.375; -325.000; -300.000
292.816; -168.000;-1136.000; -965.000
292.955; -106.000; -844.000; -684.000
293.094;  -38.075; -173.000; -337.000
293.233;  -45.350; -556.000; -400.000
293.371;  -30.450; -225.000;  -84.000
293.510; -107.800; -866.000; -780.000
293.649; -145.775; -959.000; -924.000
293.787;  -71.425;-1083.000;-1012.000
293.926;  -15.325; -113.000;  -32.000
294.065;  -57.200; -379.000; -290.000
294.203;   52.225;  298.000;  406.000
294.342;   20.450;   74.000;  156.000
294.481; 5674.850;51180.000; -836.000
294.619;  -36.075; -425.000; -582.000
294.758; -148.025;-1230.000;-1137.000
294.896;   45.175; -125.000;    5.000
295.035; -140.575;-1040.000;-1006.000
295.174; -133.175;-1082.000; -954.000
295.312;  -41.975; -323.000; -203.000
295.451;  -15.875; -307.000; -428.000
295.589;  -47.325; -389.000; -518.000
295.728;   18.300; -292.000; -165.000
295.866;   -6.625;  -36.000;  -51.000
296.005;  -60.125; -584.000; -341.000
296.143;  -69.225; -558.000; -596.000
296.282; -109.150; -957.000; -881.000
296.420;  -86.225; -657.000; -557.000
296.559;  -81.625; -892.000; -633.000
296.697;   22.200; -847.000; -665.000
296.835;   56.475;-1141.000;-1002.000
296.974;   37.100;  -23.000;   39.000
297.112;    1.025; -443.000; -504.000
297.251;  -83.775; -815.000; -755.000
297.389;   84.425; -576.000; -438.000
297.527;   25.975; -145.000;  -83.000
297.666;  -52.200; -486.000; -438.000
297.804;  -53.850; -404.000; -264.000
297.942;  -20.275; -136.000; -161.000
298.081;  -12.125; -183.000;   63.000
298.219;   52.300;  -17.000;  -19.000
298.357;   43.925; -144.000;  -71.000
298.495;   22.800; -810.000; -812.000
298.634;   57.875;  245.000;  219.000
298.772;   63.525; -220.000; -338.000
298.910;  -46.475; -309.000; -182.000
299.048;  -22.850; -130.000; -153.000
299.187;  -37.850; -350.000; -250.000
299.325;   14.225;   52.000;  122.000
299.463;   47.175; -389.000; -299.000
299.601;  102.700; -327.000; -271.000
299.739; -111.075; -908.000; -883.000
299.877;  -98.600; -791.000; -703.000
300.016;  -35.650;-1095.000; -935.000
300.154;  156.375;  -19.000; -161.000
300.292;   60.975; -428.000; -348.000
300.430;   33.675; -408.000; -291.000
300.568; -117.925; -940.000; -874.000
300.706;  -54.575; -366.000; -469.000
300.844;  -85.500;-1108.000; -979.000
300.982;  106.600;  246.000;  282.000
301.120; -114.950; -965.000; -866.000
301.258;  -69.300; -812.000; -705.000
301.396;   23.275;  104.000;  -41.000
301.534;   83.675; -218.000; -293.000
301.672;   -9.200; -664.000; -521.000
301.810;   16.700; -613.000; -545.000
301.948;  124.400;   53.000;  149.000
302.086;  586.825; -250.000;  -32.000
302.224;  927.750; -610.000; -585.000
302.362;   43.700; -558.000; -622.000
302.500;  -23.150; -923.000; -893.000
302.638;  117.200;  128.000;  245.000
302.776;   -4.775; -352.000; -408.000
302.913;   42.275;  447.000;  236.000
303.051;   -7.175;  -86.000;  -23.000
303.189;   51.450;   90.000;  118.000
303.327;  -36.500; -341.000; -256.000
303.465;  -84.625; -832.000; -588.000
303.603; -103.025; -805.000; -604.000
303.740;   90.150;  417.000;  241.000
303.878;   19.650; -800.000; -759.000
304.016; -100.225; -915.000; -790.000
304.154; -126.150;-1123.000;-1152.000
304.291;  -41.700; -505.000; -554.000
304.429;   -1.600;  102.000;   74.000
304.567; -125.675; -908.000; -893.000
304.705;  -47.575; -408.000; -515.000
304.842;   97.025; -616.000; -540.000
304.980;   67.550;  215.000;   35.000
305.118;   45.425; -367.000; -365.000
305.255;  -82.825; -945.000; -927.000
305.393;   44.300;  178.000;  239.000
305.531; -120.000;-1173.000; -956.000
305.668;  -76.050; -663.000; -582.000
305.806;  106.200; -358.000; -439.000
305.943;   93.075; -629.000; -637.000
306.081;   62.100; -378.000; -267.000
306.219; -102.075; -863.000; -748.000
306.356;    7.800;  158.000;   27.000
306.494;  100.950;  981.000;  761.000
306.631;   -1.450;  -11.000;  -55.000
306.769;   -3.100; -613.000; -485.000
306.906;  -12.700; -284.000; -258.000
307.044;  -64.750; -473.000; -488.000
307.181;  -72.425; -410.000; -332.000
307.319;  -13.750;  112.000;   87.000
307.456; -179.850;-1191.000;-1153.000
307.594;  -99.475; -980.000; -727.000
307.731;   -7.950; -371.000; -164.000
307.868;   -9.275;  -15.000;   20.000
308.006; -135.950; -961.000; -847.000
308.143;  -85.300; -618.000; -330.000
308.281;  142.375;  -37.000; -254.000
308.418;  -27.750; -748.000; -640.000
308.555;  -86.650; -400.000; -250.000
308.693;  -73.775; -577.000; -573.000
308.830; -103.225; -712.000; -657.000
308.967;  -15.475; -215.000;  -95.000
309.105;  -44.825; -507.000; -396.000
309.242;    9.125; -468.000; -367.000
309.379;  270.950; -577.000; -655.000
309.517;  -73.350; -936.000; -948.000
309.654; -118.550; -910.000; -734.000
309.791;  -80.650; -662.000; -580.000
309.928; -116.225; -977.000; -914.000
310.065;  170.900;  819.000;  697.000
310.203;  -10.300; -825.000; -850.000
310.340;  -22.100; -465.000; -321.000
310.477;  -83.725; -412.000; -516.000
310.614;  -79.350; -383.000; -473.000
310.751;  -84.725; -427.000; -518.000
310.889;  -16.775;    1.000;   11.000
311.026; -153.250;-1161.000; -939.000
311.163;  -54.900; -386.000; -380.000
311.300;  -82.025; -512.000; -479.000
311.437;  -79.000; -658.000; -619.000
311.574; -151.075;-1226.000; -985.000
311.711;  -71.800; -595.000; -433.000
311.848;  -42.300; -380.000; -388.000
311.985;   17.525;  270.000;   93.000
312.122; -119.875; -932.000; -762.000
312.259; -130.400; -941.000; -994.000
312.396;  -80.400; -508.000; -551.000
312.533;  -97.975; -812.000; -790.000
312.670; -122.250;-1070.000; -898.000
312.807;  -36.700; -352.000; -367.000
312.944;  -85.800; -513.000; -611.000
313.081;  -48.750; -150.000; -415.000
313.218; -103.875;-1111.000; -867.000
313.355;    3.125; -531.000; -449.000
313.492;    6.350; -455.000; -292.000
313.629;  133.950;  815.000;  735.000
313.766; -163.100;-1176.000;-1008.000
313.902;  -14.250; -186.000;   21.000
314.039;  -51.875; -372.000; -289.000
314.176;   28.325;  286.000;  192.000
314.313;  -82.525; -569.000; -473.000
314.450;  -87.400; -788.000; -684.000
314.587;  -64.100; -468.000; -480.000
314.723;    4.125;  -78.000;  130.000
314.860;   17.625;  318.000;  332.000
314.997;   15.600;  223.000;  142.000
315.134;  -39.000; -385.000; -368.000
315.270;  -38.200; -480.000; -496.000
315.407; -118.450;-1094.000; -967.000
315.544;  -47.000; -657.000; -538.000
315.681;  -61.875; -681.000; -565.000
315.817;   25.800; -133.000; -176.000
315.954;   10.600; -613.000; -392.000
316.091; -137.100;-1045.000;-1023.000
316.227;  -31.700;  -71.000; -179.000
316.364;   -4.975;   23.000;    6.000
316.500;  -45.525; -113.000; -300.000
316.637;  -50.675; -181.000; -302.000
316.774;  -85.150; -625.000; -358.000
316.910;  -81.650; -598.000; -629.000
317.047;  -75.900; -487.000; -351.000
317.183;  -60.325; -435.000; -566.000
317.320;  -19.950; -367.000; -321.000
317.456;  -80.475; -733.000; -805.000
317.593;  -96.750; -598.000; -641.000
317.729;   -4.500;  168.000;  -67.000
317.866; -196.750;-1434.000;-1285.000
318.002; -100.650; -708.000; -948.000
318.139; -101.500; -883.000; -867.000
318.275; -112.025;-1003.000; -738.000
318.412;  -68.625; -517.000; -336.000
318.548;  -32.300; -751.000; -720.000
318.685;  -98.900; -985.000; -888.000
318.821;  -80.100; -762.000; -735.000
318.957;  -17.675;   34.000;  -23.000
319.094;   16.075;  297.000;  154.000
319.230;  -72.925; -756.000; -742.000
319.367;  127.225; -471.000; -520.000
319.503;   47.150; -538.000; -436.000
319.639; -109.725; -877.000; -793.000
319.775;  -65.950; -750.000; -685.000
319.912;  -51.175; -424.000; -519.000
320.048;  -80.800;-1184.000;-1184.000
320.184;   71.475;   59.000;   70.000
320.321;  -54.375; -497.000; -467.000
320.457;   64.025;  475.000;  662.000
320.593;  -68.900; -375.000; -382.000
320.729; -114.900; -732.000; -734.000
320.866;  -69.850; -577.000; -635.000
321.002;  -86.500; -759.000; -809.000
321.138;  -14.575; -135.000; -211.000
321.274;   71.025; -148.000; -115.000
321.410;  -28.600; -585.000; -353.000
321.546;  -32.550;-1011.000; -911.000
321.683;   59.750;  400.000;  185.000
321.819;   -5.925;  -48.000; -117.000
321.955; -113.400; -743.000; -722.000
322.091;  -64.925; -585.000; -540.000
322.227;  -25.200; -382.000; -202.000
322.363;  -12.250; -320.000; -215.000
322.499;  -47.350; -343.000; -331.000
322.635;  156.400;  636.000;  443.000
322.771;   25.200; -139.000;   12.000
322.907;   95.725;  129.000;  327.000
323.043;  -21.300; -115.000; -206.000
323.179;  -44.025; -394.000; -363.000
323.315;    9.525; -401.000; -371.000
323.451;   94.875; -328.000; -236.000
323.587;   60.350;  -60.000;  -77.000
323.723;    9.675; -682.000; -601.000
323.859;  -13.050; -258.000;  -76.000
323.995;  -27.050; -467.000; -409.000
324.131; -129.250; -967.000; -892.000
324.267;  -43.575; -254.000; -276.000
324.402; -135.975; -960.000; -983.000
324.538;  -25.075; -279.000; -104.000
324.674;   17.600;  164.000;   77.000
324.810;  117.325;  226.000;  308.000
324.946;  -13.175; -810.000; -658.000
325.082;  -70.725; -568.000; -475.000
325.217;   -4.150;  -62.000;   16.000
325.353;  -96.450; -764.000; -659.000
325.489;  -99.500; -540.000; -506.000
325.625;  -84.750; -579.000; -525.000
325.760;   72.275;  517.000;  376.000
325.896;  -35.425; -515.000; -702.000
326.032;  -58.775; -403.000; -352.000
326.168;  -55.225; -462.000; -369.000
326.303;  -62.875; -352.000; -461.000
326.439;  -20.525; -336.000; -276.000
326.575;    6.150; -190.000;  -29.000
326.710;  -11.450; -156.000;  -30.000
326.846;   -9.300;  146.000;  103.000
326.982; -100.000; -530.000; -548.000
327.117;  -77.700; -481.000; -442.000
327.253;  -94.175; -745.000; -742.000
327.388; -154.300;-1137.000;-1153.000
327.524;  -50.625; -811.000; -578.000
327.659;  -24.900;  -58.000;  -22.000
327.795;  -15.150;   69.000;   45.000
327.931;  -92.425; -723.000; -499.000
328.066;  -35.425; -417.000; -276.000
328.202;  -26.750;   12.000; -129.000
328.337;   99.775;  957.000;  713.000
328.473;   44.600;  -12.000;  -74.000
328.608;  -31.800; -256.000; -267.000
328.743;  -86.300; -799.000; -664.000
328.879;   14.575;  214.000;  114.000
329.014;  -26.650; -102.000; -122.000
329.150;  -87.350; -358.000; -483.000
329.285;  -88.675; -465.000; -466.000
329.421;  -57.500; -548.000; -246.000
329.556;  -23.500;  -36.000;   85.000
329.691; -102.025; -633.000; -615.000
329.827;  -80.100; -626.000; -480.000
329.962;  -27.600;  131.000; -301.000
330.097;  -97.725; -673.000; -585.000
330.233;  -70.125; -410.000; -223.000
330.368; -123.675; -839.000; -628.000
330.503;  -22.075;    3.000;   98.000
330.638;   11.800;  -93.000; -125.000
330.774;  -59.950; -609.000; -530.000
330.909;  -43.925; -434.000; -244.000
331.044; -106.525; -714.000; -708.000
331.179; -183.025;-1217.000;-1109.000
331.315;   -0.150;   77.000;   20.000
331.450;   20.050;  157.000;  285.000
331.585;  -87.150; -805.000; -706.000
331.720;  -95.900; -510.000; -460.000
331.855;  -13.225;  -35.000; -102.000
331.990;  249.425;   62.000;  138.000
332.126;  131.050; -110.000;   71.000
332.261;  -27.375; -379.000; -265.000
332.396;   -7.550; -135.000; -242.000
332.531; -103.875;-1074.000;-1031.000
332.666;   25.800; -519.000; -363.000
332.801; -113.875; -726.000; -807.000
332.936;  -34.600; -192.000; -122.000
333.071; -140.925; -870.000; -817.000
333.206;   29.775;  307.000;  379.000
333.341;   17.050;  344.000;  418.000
333.476; -107.650; -627.000; -623.000
333.611;  -44.150; -251.000; -173.000
333.746;  -53.825; -381.000; -464.000
333.881; -111.925; -973.000; -935.000
334.016; -126.225; -936.000; -917.000
334.151; -136.200; -746.000; -702.000
334.286;   24.075;  152.000;  186.000
334.421;   -2.650; -125.000; -178.000
334.556;  -90.375; -611.000; -567.000
334.690;  -78.825; -631.000; -577.000
334.825;   45.325;  381.000;   83.000
334.960;  -63.450; -285.000; -413.000
335.095;   -5.400;  135.000;  -91.000
335.230; -104.475; -722.000; -738.000
335.365; -140.625;-1084.000; -990.000
335.499; -139.050;-1108.000;-1037.000
335.634;   14.075;    9.000;  534.000
335.769;  -88.200; -755.000; -720.000
335.904;  -56.575; -603.000; -561.000
336.038;  -62.200; -735.000; -657.000
336.173; -106.100;-1206.000;-1194.000
336.308;    4.725; -116.000; -189.000
336.443;    4.775; -544.000; -634.000
336.577;  -74.650; -936.000; -787.000
336.712;   55.225;   -4.000;  -12.000
336.847;  -36.500; -724.000; -607.000
336.981;   68.125; -272.000; -208.000
337.116;  290.200;  615.000;  501.000
337.250;  143.550; -434.000; -421.000
337.385;  240.050; -297.000; -208.000
337.520;   86.975; -632.000; -603.000
337.654;  -53.025; -215.000; -126.000
337.789; -129.575; -989.000; -933.000
337.923;  -41.650; -104.000; -205.000
338.058;  -89.175; -673.000; -738.000
338.192;  -36.325; -611.000; -488.000
338.327;   -7.025;  -18.000; -155.000
338.461;  -68.825; -299.000; -469.000
338.596; -101.200; -780.000; -638.000
338.730;  -97.100; -767.000; -803.000
338.865;   86.725;  -46.000; -140.000
338.999;  -64.200; -846.000; -702.000
339.134;  -35.750; -634.000; -536.000
339.268;   19.825; -741.000; -603.000
339.403;  365.575; -740.000; -775.000
339.537;  112.625; -894.000; -820.000
339.671; -112.150; -829.000; -813.000
339.806;  -62.350; -556.000; -512.000
339.940;    2.875; -261.000; -235.000
340.074; -101.900; -685.000; -510.000
340.209;  -54.750; -351.000; -230.000
340.343;  -94.100; -517.000; -573.000
340.477;  142.125;  998.000; 1036.000
340.612;  -49.150;-1033.000; -900.000
340.746;  118.525; -199.000; -243.000
340.880;  -72.500; -924.000; -785.000
341.014;  -21.350;  -45.000; -154.000
341.149; -111.025; -756.000; -718.000
341.283; -101.875; -839.000; -754.000
341.417; -100.675;-1124.000; -938.000
341.551;  121.975; -768.000; -708.000
341.685;  -30.550; -633.000; -611.000
341.820;  -48.800; -562.000; -493.000
341.954;  -43.775; -218.000; -349.000
342.088; -154.500;-1102.000;-1019.000
342.222;   41.175;  565.000;  618.000
342.356;  -67.875; -395.000; -335.000
342.490;  -94.750; -880.000; -841.000
342.624;  -43.675; -339.000; -242.000
342.758;   -6.900; -364.000; -312.000
342.892;  -68.450; -710.000; -585.000
343.026;  -33.275;  -58.000; -116.000
343.160;  -66.500; -426.000; -376.000
343.294;  -76.650; -474.000; -337.000
343.428;  -28.225; -488.000; -448.000
343.562;  -17.475; -172.000;  -23.000
343.696;  -34.325; -385.000; -314.000
343.830;  -22.150; -362.000; -356.000
343.964;    3.450; -231.000; -168.000
344.098;  924.825;  199.000;   70.000
344.232;  762.025; -266.000; -127.000
344.366;   87.250; -567.000; -453.000
344.500;   48.000; -665.000; -744.000
344.634;   31.150; -324.000; -164.000
344.768;  -23.375; -531.000; -341.000
344.902;    8.575;  278.000;  256.000
345.035;  -88.800; -556.000; -496.000
345.169; -122.700; -933.000; -656.000
345.303;  -24.000; -308.000; -482.000
345.437;  -83.325; -826.000; -717.000
345.571;  -70.550; -675.000; -594.000
345.704;  -76.300; -309.000; -532.000
345.838;  -15.550; -331.000; -284.000
345.972;  -43.525; -543.000; -495.000
346.106;  156.150; -179.000; -190.000
346.239;  404.575; -312.000; -243.000
346.373;    1.650; -343.000; -302.000
346.507; -137.900; -950.000; -962.000
346.640;  130.875;  -30.000;   13.000
346.774;  -49.300; -650.000; -797.000
346.908;  -34.575; -138.000;  -11.000
347.041; -102.825; -646.000; -593.000
347.175;   -4.525;  259.000;   27.000
347.309;  -70.225; -698.000; -628.000
347.442; -100.075; -883.000; -732.000
347.576;  277.000;  670.000;  668.000
347.709;  183.375; -123.000;  -52.000
347.843;  -85.150; -933.000; -825.000
347.976;   32.700;  235.000;  294.000
348.110; -185.300;-1268.000;-1186.000
348.243; -107.875; -679.000; -772.000
348.377;   -4.700;  -26.000;   60.000
348.510;   53.150;  403.000;  540.000
348.644;  -39.475;  -37.000; -159.000
348.777;   -9.825;  180.000;  191.000
348.911;  -45.150; -142.000; -112.000
349.044;  149.550;  471.000;  448.000
349.178;  154.250;-1069.000;-1006.000
349.311;  114.125;  141.000;  255.000
349.444;  -18.225; -927.000; -813.000
349.578;  -26.800; -347.000; -200.000
349.711;  -90.475; -959.000; -862.000
349.845;   -1.125; -661.000; -591.000
349.978; -158.225;-1224.000;-1137.000
350.111;  -94.925; -546.000; -612.000
350.244;  -86.275; -596.000; -700.000
350.378;    1.600; -392.000; -393.000
350.511;  -70.300; -393.000; -426.000
350.644; -107.700; -808.000; -806.000
350.778;   -0.350;  168.000;  104.000
350.911;   19.800;  134.000;  140.000
351.044;  -98.100; -685.000; -615.000
351.177;  -32.675; -321.000; -281.000
351.310;  -16.425;    3.000; -131.000
351.444;  -93.450; -888.000; -788.000
351.577;  125.625;  140.000;   90.000
351.710;   92.525;  593.000;  417.000
351.843;  -35.475; -165.000;  -77.000
351.976;    5.925;  149.000;  -79.000
352.109;  -92.550; -621.000; -612.000
352.242;  -34.375; -464.000; -419.000
352.376;  -61.200; -580.000; -636.000
352.509;  165.700; -437.000; -356.000
352.642;   21.425; -654.000; -604.000
352.775;   65.650; -141.000;  -98.000
352.908; -110.300; -933.000; -904.000
353.041; -107.000; -814.000; -824.000
353.174;  -67.425; -551.000; -424.000
353.307; -102.525; -753.000; -764.000
353.440;   74.450;  541.000;  453.000
353.573; -111.275; -957.000;-1008.000
353.706;  -41.175; -384.000; -558.000
353.839;  -18.300; -264.000; -220.000
353.971;  -86.575; -657.000; -512.000
354.104;  -98.025; -896.000; -835.000
354.237;  -44.650; -627.000; -662.000
354.370; -102.650; -846.000; -879.000
354.503; -180.525;-1231.000;-1308.000
354.636;  -43.150; -529.000; -348.000
354.769; -121.150; -937.000; -860.000
354.902;   -5.650; -230.000; -139.000
355.034;  -11.150; -164.000; -220.000
355.167;  -17.050; -262.000; -162.000
355.300;  -96.750;-1061.000; -880.000
355.433;  962.550;  -71.000;  -14.000
355.565; 1507.825; -402.000; -384.000
355.698;  378.500; -356.000; -296.000
355.831;   -2.175; -882.000; -801.000
355.964;   72.075; -285.000; -170.000
356.096;  -80.250; -856.000; -843.000
356.229;    0.025; -523.000; -530.000
356.362;  310.725; -373.000; -266.000
356.494;  578.900; -229.000; -162.000
356.627;  471.925;  269.000;  377.000
356.760;  647.200;  120.000;   53.000
356.892;  949.125; -286.000; -601.000
357.025;  635.200;  403.000;  389.000
357.157;  605.925; -167.000; -179.000
357.290;  668.325; -856.000; -713.000
357.423;  171.375; -667.000; -556.000
357.555;  114.550; -217.000; -228.000
357.688;  137.675; -483.000; -364.000
357.820;  448.825; -870.000; -877.000
357.953; 3692.275; -563.000; -589.000
358.085;  796.750; -632.000; -612.000
358.218; 1096.375;-1131.000; -932.000
358.350;  196.150;  -58.000;  312.000
358.483; -120.750;-1300.000;-1187.000
358.615;  -41.150;-1182.000;-1078.000
358.747;  -57.000;-1187.000;-1058.000
358.880;   17.300; -810.000; -744.000
359.012;  -19.275; -376.000; -202.000
359.145;  -42.300; -480.000; -511.000
359.277;   53.075; -962.000; -913.000
359.409; 3039.450;  536.000;  231.000
359.542;  811.675; -738.000; -688.000
359.674;   76.875;   46.000;   13.000
359.806;  -56.500; -565.000; -438.000
359.939;  -36.075; -617.000; -516.000
360.071;   -9.700; -583.000; -579.000
360.203;  -26.550; -411.000; -364.000
360.335;   41.200;  164.000;  -16.000
360.468;  182.675; -249.000; -307.000
360.600; 2437.975; -547.000; -454.000
360.732; 2823.250; -546.000; -423.000
360.864;  364.150;-1216.000;-1044.000
360.996;  273.475; -516.000; -554.000
361.129;   37.375; -389.000; -598.000
361.261;   10.525;  110.000; -113.000
361.393;  -26.925; -252.000; -214.000
361.525;   24.825;   94.000;  244.000
361.657;  -59.675; -821.000; -703.000
361.789;    4.800; -139.000; -155.000
361.921;  219.350; -642.000; -593.000
362.053;  254.300;  524.000;  541.000
362.185;   31.550;  288.000;   72.000
362.318;  -79.625; -709.000; -705.000
362.450;  108.150;  294.000;  444.000
362.582;   93.400; -913.000; -870.000
362.714;  -49.225; -353.000; -332.000
362.846; -102.350; -606.000; -490.000
362.978; -146.900; -941.000; -811.000
363.109;   27.850; -161.000; -260.000
363.241;  420.550; -739.000; -749.000
363.373;  426.375; -649.000; -564.000
363.505;  652.050; -186.000;  -91.000
363.637;  140.950; -787.000; -601.000
363.769; -119.700;-1067.000;-1080.000
363.901;  -66.350; -596.000; -654.000
364.033; -116.650;-1103.000;-1062.000
364.165;   -7.975; -283.000; -283.000
364.296;   73.725; -316.000; -177.000
364.428;   53.950;-1344.000;-1220.000
364.560;  -65.475; -679.000; -661.000
364.692;  -61.025; -738.000; -835.000
364.824;  248.850; -588.000; -456.000
364.955;  427.775; -402.000; -564.000
365.087;  914.275;-1097.000; -852.000
365.219;   19.475; -686.000; -816.000
365.351;  -67.975; -526.000; -572.000
365.482;   39.700;  300.000;  240.000
365.614;  -41.675; -402.000; -314.000
365.746;  -92.750; -729.000; -752.000
365.877; -102.475; -706.000; -672.000
366.009;  251.375;  -35.000;  -62.000
366.141;  -92.425;-1249.000;-1134.000
366.272; -112.475; -803.000; -719.000
366.404; -109.575;-1005.000; -874.000
366.535;  -20.300; -139.000;  -12.000
366.667; -117.850; -644.000; -649.000
366.799;   39.400;  353.000;  203.000
366.930; -113.425; -862.000; -996.000
367.062;  122.425; -639.000; -613.000
367.193;  157.250; -872.000; -842.000
367.325;  -71.950; -580.000; -684.000
367.456;   61.725; -246.000;   31.000
367.588;  158.600; -371.000; -318.000
367.719;   12.975;  -44.000;  -45.000
367.851;  -21.650; -222.000; -241.000
367.982;  -53.775; -875.000; -732.000
368.113;   99.425; -475.000; -358.000
368.245; -120.975; -960.000; -841.000
368.376;  -17.225; -254.000; -302.000
368.508;  -47.075; -188.000; -263.000
368.639; -152.775;-1166.000;-1034.000
368.770;  -32.100; -670.000; -589.000
368.902;  -57.700; -836.000; -926.000
369.033; -105.500; -906.000; -855.000
369.164;  -57.900; -720.000; -653.000
369.296; -108.475; -452.000; -601.000
369.427;  -16.725; -209.000; -144.000
369.558;  -47.000; -593.000; -377.000
369.689;  -95.625; -721.000; -569.000
369.821; -137.750; -951.000; -845.000
369.952;  -14.775;   42.000; -108.000
370.083;  -46.575; -229.000; -108.000
370.214;  -82.075; -735.000; -650.000
370.345;   -9.375;   65.000;   81.000
370.477;  -94.200; -810.000; -790.000
370.608;  212.600; -328.000; -264.000
370.739;  -39.675;-1233.000;-1292.000
370.870;  -42.200;-1102.000; -923.000
371.001;   80.700; -378.000; -467.000
371.132;  -70.200; -754.000; -735.000
371.263;  -19.600;  -42.000; -148.000
371.394; -144.325; -841.000; -748.000
371.525;   12.000;  345.000;  225.000
371.657;  -90.950; -808.000; -670.000
371.788;   60.525;  103.000;  199.000
371.919;  169.950; -384.000; -304.000
372.050; 3571.850;  -91.000; -156.000
372.181; 1077.000; -188.000; -294.000
372.311;  363.125;   42.000; -127.000
372.442;   36.525; -457.000; -451.000
372.573;  -30.950; -444.000; -340.000
372.704; -123.000;-1008.000; -980.000
372.835;   86.125; -228.000; -289.000
372.966;  -71.525; -646.000; -554.000
373.097;  -75.525; -575.000; -711.000
373.228;  -51.525; -717.000; -542.000
373.359;  124.225; -824.000; -536.000
373.490;  904.200; -881.000; -727.000
373.620; 1129.350;-1001.000; -803.000
373.751; 1738.475; -332.000; -396.000
373.882;  784.450; -663.000; -733.000
374.013;   63.250; -449.000; -262.000
374.143;  -48.600; -581.000; -659.000
374.274; -107.500; -987.000; -908.000
374.405;  160.700; -388.000; -276.000
374.536;  441.075; -526.000; -387.000
374.666; 1101.750; -759.000; -807.000
374.797;  223.425; -817.000; -868.000
374.928;  831.850; -710.000; -560.000
375.058;  882.800; -535.000; -500.000
375.189;   76.875;  -59.000;  -93.000
375.320; -102.050; -928.000;-1034.000
375.450;  -47.500; -625.000; -616.000
375.581;  -49.800; -526.000; -436.000
375.712;  -46.900; -574.000; -250.000
375.842;  291.600; -438.000; -415.000
375.973;  183.825; -554.000; -513.000
376.103;  -39.125; -665.000; -648.000
376.234;  -89.650; -531.000; -552.000
376.364;  -26.300; -944.000; -867.000
376.495;  336.475;  925.000;  529.000
376.625;  -12.375; -472.000; -485.000
376.756;   66.400; -709.000; -678.000
376.886;  -77.275;-1178.000;-1026.000
377.017;   53.125;-1048.000;-1061.000
377.147;  349.925; -786.000; -782.000
377.278;   66.050;  174.000;  228.000
377.408; -122.800; -801.000; -815.000
377.538;  -99.850; -707.000; -693.000
377.669;  -98.500; -537.000; -613.000
377.799;  -78.325; -645.000; -635.000
377.929;  -60.325; -610.000; -428.000
378.060; -123.800; -781.000; -847.000
378.190;  -72.675; -726.000; -531.000
378.320;  -48.100; -401.000; -406.000
378.451;   -4.350; -131.000;  -22.000
378.581;  -15.800;  -67.000; -110.000
378.711;  154.125; 1035.000;  866.000
378.841;  -28.525; -533.000; -675.000
378.972;  -69.250; -871.000; -751.000
379.102;   -9.900; -652.000; -579.000
379.232;  -36.400; -126.000;  -73.000
379.362; -105.750;-1001.000; -885.000
379.492;    8.100; -373.000; -424.000
379.623;   98.050;    0.000;  111.000
379.753;  -88.875;-1107.000; -974.000
379.883;  189.900;   59.000;  156.000
380.013;   -0.950;-1081.000;-1017.000
380.143; -118.975;-1097.000;-1056.000
380.273; -104.050; -985.000; -861.000
380.403;   -9.775; -344.000; -257.000
380.533;  -44.925; -651.000; -664.000
380.663;   58.925;  173.000;  128.000
380.793; -102.700;-1027.000;-1074.000
380.923;  -17.900; -103.000;  -34.000
381.053; -100.375; -613.000; -623.000
381.183;  -37.625; -106.000; -248.000
381.313;   29.575; -656.000; -470.000
381.443;   30.375; -692.000; -473.000
381.573;  191.850; -402.000; -409.000
381.703;  270.025;-1249.000;-1095.000
381.833; -138.725;-1454.000;-1336.000
381.963;   91.625; -134.000;  -87.000
382.093; 1391.550; -925.000; -909.000
382.223;  426.650; -713.000; -602.000
382.353;  -22.125; -801.000; -608.000
382.482;  358.350;-1091.000; -964.000
382.612;  771.350; -872.000; -644.000
382.742;  413.900; -695.000; -622.000
382.872;  238.525; -565.000; -551.000
383.002;   67.850;  347.000; -132.000
383.131;  -10.825; -226.000; -160.000
383.261;  -57.225; -706.000; -768.000
383.391;  278.975; -552.000; -377.000
383.521; 3215.425;  451.000;  263.000
383.650;  765.100; -947.000; -904.000
383.780;  -21.275; -783.000; -656.000
383.910;   98.825;  880.000;  802.000
384.039;   14.175; -794.000; -656.000
384.169;  202.400;-1205.000;-1017.000
384.299;  -30.850; -650.000; -662.000
384.428;  -95.600; -764.000; -680.000
384.558;  -41.800; -308.000; -275.000
384.687;  -46.075; -414.000; -334.000
384.817;    9.125;   75.000;   -2.000
384.947;   26.550; -234.000; -141.000
385.076;  276.275;  982.000;  912.000
385.206;  101.825;  369.000;  480.000
385.335;  -49.800; -549.000; -417.000
385.465;  -79.425; -655.000; -663.000
385.594;  130.125;  -53.000;  -44.000
385.724;  425.050; -868.000; -838.000
385.853;  112.500; -296.000; -270.000
385.982; 1359.250; -743.000; -787.000
386.112; 2154.150;-1052.000; -871.000
386.241;  127.250; -307.000; -312.000
386.371;    9.100; -174.000;  -87.000
386.500;  -11.700; -825.000; -789.000
386.629;   11.300; -874.000; -817.000
386.759;   45.875;  -43.000;   68.000
386.888;  -25.575; -170.000; -250.000
387.017;  -95.000; -648.000; -620.000
387.147;  -88.525; -771.000; -798.000
387.276;   -1.350; -410.000; -397.000
387.405;    7.600; -398.000; -342.000
387.535;  -40.300; -452.000; -361.000
387.664;  -60.525; -692.000; -620.000
387.793;   60.425; -198.000; -113.000
387.922;  508.900;  255.000;  200.000
388.052;   19.525; -576.000; -423.000
388.181;    7.400; -342.000; -472.000
388.310;   -1.925; -889.000; -710.000
388.439;  -53.900; -749.000; -742.000
388.568;  183.225;  365.000;  244.000
388.697; 1026.225; -756.000; -653.000
388.826;  202.600; -768.000; -666.000
388.956;   53.400; -285.000; -307.000
389.085;  -40.875; -347.000; -287.000
389.214; -134.750; -842.000; -872.000
389.343;  -76.325; -645.000; -413.000
389.472;  390.800;  126.000;  149.000
389.601;  518.500;   91.000;    0.000
389.730;   13.875; -568.000; -687.000
389.859;   62.375;  226.000;   46.000
389.988;  188.750; -423.000; -408.000
390.117;  134.700; -168.000; -146.000
390.246;  -24.150; -331.000; -320.000
390.375;   90.650; -673.000; -626.000
390.504;  -73.625; -703.000; -621.000
390.633; -103.150; -672.000; -726.000
390.761;  -70.350; -732.000; -645.000
390.890;    4.075;   -4.000; -130.000
391.019;  -39.625; -421.000; -441.000
391.148; -132.200; -826.000; -855.000
391.277;  -80.025; -576.000; -493.000
391.406;  -88.550; -821.000; -805.000
391.534;    2.000;  574.000; -301.000
391.663;  -68.525; -583.000; -645.000
391.792;  -91.775; -673.000; -701.000
391.921;   82.975;   -3.000;   15.000
392.050;  175.100; -287.000; -228.000
392.178;  -48.800;-1206.000;-1061.000
392.307;  138.325; -758.000; -712.000
392.436;   72.775; -427.000; -641.000
392.564;    8.500;  166.000;   -6.000
392.693;  -92.000; -860.000; -682.000
392.822;  200.100; -529.000; -534.000
392.950;   83.300; -880.000; -714.000
393.079;  310.825; -188.000; -328.000
393.208;   30.425; -488.000; -511.000
393.336;  -14.975; -170.000; -145.000
393.465;  -45.975; -317.000; -199.000
393.593;    4.650;   62.000;   79.000
393.722; -162.075;-1121.000; -916.000
393.850;  -30.325; -188.000;  -61.000
393.979; -166.625; -926.000; -805.000
394.107;  -57.800; -517.000; -537.000
394.236;  -27.700; -570.000; -507.000
394.364;  184.200;  383.000;  206.000
394.493;  307.625; -911.000; -767.000
394.621;  -43.175; -955.000; -916.000
394.750;  697.350; -873.000; -923.000
394.878; 2925.925; -247.000; -149.000
395.007; 3965.350; -721.000; -807.000
395.135;  284.250; -790.000; -721.000
395.263;  -93.750;-1038.000;-1040.000
395.392;   -5.500;  -25.000; -107.000
395.520; -146.350; -818.000; -679.000
395.648;  -85.725; -865.000; -915.000
395.777;  -21.575; -366.000; -405.000
395.905;  -58.425; -449.000; -564.000
396.033;   11.850;  217.000;  172.000
396.162;  496.275; -399.000; -453.000
396.290;  444.725;  -17.000;   -2.000
396.418;   90.575; -555.000; -514.000
396.546;  -85.975; -571.000; -466.000
396.674; -102.700; -850.000; -878.000
396.803;   -2.100;  -72.000;  -23.000
396.931;   91.525; -179.000; -199.000
397.059;   38.250;-1026.000; -989.000
397.187; -130.525;-1026.000; -975.000
397.315; -142.000; -884.000; -649.000
397.443;  -92.775; -592.000; -443.000
397.572;  -93.275; -578.000; -424.000
397.700;   -8.750; -607.000; -614.000
397.828;   -7.850;  120.000;  -90.000
397.956;  -60.100; -508.000; -478.000
398.084;  -66.000; -767.000; -626.000
398.212;   16.650;  137.000;  124.000
398.340;   -6.025;  -56.000;  159.000
398.468;   22.175; -390.000; -169.000
398.596; -129.900; -993.000; -953.000
398.724; -124.875; -762.000; -767.000
398.852; -170.600;-1024.000; -976.000
398.980;  -77.150; -560.000; -560.000
399.108;  -53.775; -982.000; -735.000
399.236;   44.125;   13.000;    8.000
399.363;    9.875;  222.000;  196.000
399.491;  -84.025; -404.000; -398.000
399.619; -135.150; -829.000; -800.000
399.747; -101.450; -859.000; -771.000
399.875;   65.575;  220.000;  234.000
400.003;  -47.425; -359.000; -284.000
400.130; -107.400; -421.000; -341.000
400.258;  -39.025;  -83.000;   38.000
400.386;  -63.225; -352.000; -168.000
400.514;  -45.850; -526.000; -587.000
400.641;  -94.100; -928.000; -802.000
400.769; -137.075; -979.000; -888.000
400.897; -119.425; -838.000; -793.000
401.025;  -25.050; -166.000; -152.000
401.152;   -5.950;  220.000;   38.000
401.280;  -85.525; -430.000; -429.000
401.408; -117.325; -712.000; -576.000
401.535; -107.250; -735.000; -758.000
401.663; -192.200;-1134.000;-1054.000
401.790; -105.700; -514.000; -525.000
401.918;   35.925;  436.000;  405.000
402.046;  -31.025;  134.000;  122.000
402.173;  -33.600;  -18.000;    7.000
402.301;  -78.300; -519.000; -397.000
402.428;   30.350;  528.000;  383.000
402.556; -143.475;-1188.000; -913.000
402.683;  -35.225;  -20.000;   -1.000
402.811;  -32.175;  -37.000; -206.000
402.938;   -5.975;   20.000;   27.000
403.066;  189.600; -574.000; -558.000
403.193;  346.575;  299.000;  239.000
403.321;  262.150; -396.000; -574.000
403.448;  325.850;   83.000;   27.000
403.575;  152.650;  -90.000;  -46.000
403.703;  -96.650; -732.000; -557.000
403.830;  -92.950; -531.000; -496.000
403.957; -151.950;-1117.000;-1023.000
404.085;    9.100;  -61.000; -172.000
404.212;   84.300;  -50.000;   63.000
404.339;  241.100; -566.000; -306.000
404.467; 5760.200; -612.000; -524.000
404.594; 3813.175; -287.000; -227.000
404.721;  857.550; -869.000; -764.000
404.848;   77.725; -113.000; -202.000
404.976; -120.275; -856.000; -783.000
405.103;  -27.725;  -14.000;  -82.000
405.230;   -6.700;  190.000;  226.000
405.357;    9.375;  117.000;   44.000
405.484;  251.150;  -49.000;    5.000
405.612;   39.925; -548.000; -563.000
405.739;  -62.175; -488.000; -243.000
405.866;   72.125;  669.000;  385.000
405.993;  -57.175; -398.000; -102.000
406.120; -146.825; -801.000; -887.000
406.247;  -51.275; -323.000; -342.000
406.374;  420.125;  540.000;  629.000
406.501;   93.575; -632.000; -702.000
406.628;  -73.300; -621.000; -589.000
406.755;  -92.275; -803.000; -620.000
406.882;  -35.050; -228.000; -277.000
407.009; -111.025; -719.000; -628.000
407.136;   32.750; -480.000; -401.000
407.263;  110.425; -939.000; -829.000
407.390;  -94.175; -692.000; -614.000
407.517; -198.775;-1139.000;-1187.000
407.644;  -81.675; -332.000; -256.000
407.771;  -69.675; -249.000; -287.000
407.898;   -1.625;  168.000;  328.000
408.025;  -78.550; -421.000; -313.000
408.151;  -15.750;   82.000;  153.000
408.278;  -62.700; -267.000; -216.000
408.405; -127.225; -931.000; -899.000
408.532;  -69.025; -549.000; -542.000
408.659; -128.825; -677.000; -648.000
408.785; -210.625;-1298.000;-1170.000
408.912;  -61.550; -412.000; -296.000
409.039; -126.575; -610.000; -686.000
409.166; -108.800; -591.000; -555.000
409.292; -120.825; -571.000; -534.000
409.419; -121.025; -665.000; -649.000
409.546;  -87.325; -431.000; -192.000
409.672; -111.225; -713.000; -545.000
409.799;  -34.300;  -36.000;   34.000
409.926;  -55.575; -180.000; -179.000
410.052; -182.750;-1127.000;-1091.000
410.179;  -73.450; -368.000; -392.000
410.305; -107.050; -375.000; -493.000
410.432;  -61.100; -220.000; -333.000
410.558;  -89.175; -305.000; -380.000
410.685; -121.900; -688.000; -431.000
410.812; -113.900; -409.000; -588.000
410.938; -144.775; -964.000; -808.000
411.065; -111.850; -671.000; -645.000
411.191;  -30.275; -189.000; -174.000
411.317; -127.750; -823.000; -742.000
411.444;  -66.475; -317.000; -246.000
411.570;  -79.375; -339.000; -294.000
411.697; -133.825; -758.000; -752.000
411.823; -172.025; -989.000; -999.000
411.949;  -42.225;  -56.000;   17.000
412.076; -115.750; -539.000; -519.000
412.202; -130.050; -758.000; -757.000
412.329; -143.150; -798.000; -752.000
412.455; -126.950; -821.000; -657.000
412.581;  -35.750;  -15.000;  172.000
412.707;  -75.550; -540.000; -457.000
412.834;    8.500;  156.000;  219.000
412.960;  -93.400; -785.000; -784.000
413.086; -105.400; -743.000; -701.000
413.212;  143.300;  604.000;  578.000
413.339;  -66.450; -685.000; -701.000
413.465;   -7.350; -364.000; -310.000
413.591; -105.875; -757.000; -474.000
413.717;  -65.350; -358.000; -366.000
413.843; -149.175; -839.000; -861.000
413.969;  -66.325;  -47.000; -292.000
414.096; -107.550; -679.000; -679.000
414.222;  -28.525;  -33.000;   85.000
414.348;  -38.525; -652.000; -385.000
414.474;   84.475;   38.000;  -52.000
414.600;  -22.875; -126.000; -144.000
414.726;   -4.650;  -96.000;  -55.000
414.852;  -55.800; -365.000; -342.000
414.978;   28.675;  104.000;  -18.000
415.104;   43.000;   38.000;   80.000
415.230;   12.350; -329.000; -330.000
415.356;   44.875; -409.000; -514.000
415.482;  173.150;   13.000;  -35.000
415.608;  264.725; -247.000; -323.000
415.734;  956.750;   67.000;   38.000
415.860;19938.175; -875.000; -767.000
415.986;14524.800; -685.000; -607.000
416.111; 1225.575; -798.000; -652.000
416.237;  251.950; -424.000; -571.000
416.363; 1118.300; -765.000; -733.000
416.489; 4178.850; -324.000; -251.000
416.615;  456.450; -707.000; -742.000
416.741;  -23.300; -677.000; -784.000
416.866;  -90.175; -673.000; -736.000
416.992; -121.800; -801.000; -818.000
417.118;  -36.575;  -41.000;  -80.000
417.244;  -64.625; -798.000; -531.000
417.369;  -76.525; -801.000; -612.000
417.495;  -17.875; -325.000; -254.000
417.621;  -86.900;-1015.000; -803.000
417.746;   -7.950; -579.000; -572.000
417.872;   42.625; -254.000; -144.000
417.998;   45.200; -515.000; -530.000
418.123; 1052.325;-1073.000; -845.000
418.249; 5432.850; -512.000; -601.000
418.374;  764.150; -916.000; -824.000
418.500;   92.275; -383.000; -482.000
418.626;  108.000;   70.000;  -59.000
418.751;  107.325; -549.000; -448.000
418.877;  185.550; -637.000; -643.000
419.002; 1795.175; -688.000; -560.000
419.128;12605.325; -930.000; -721.000
419.253; 3089.425; -967.000; -837.000
419.379;  385.075; -391.000; -338.000
419.504;  374.600;  325.000;  415.000
419.629;  499.950; -393.000; -212.000
419.755; 3546.350; -317.000; -254.000
419.880;21143.600;  -98.000;   67.000
420.006;11411.700; -280.000; -221.000
420.131;29563.650; -662.000; -775.000
420.256; 4303.300; -315.000; -316.000
420.382;  555.250; -665.000; -687.000
420.507;   45.575; -649.000; -778.000
420.632;  125.425; -337.000; -339.000
420.758;  229.550; -251.000; -425.000
420.883;  -80.100; -876.000; -672.000
421.008; -117.425; -775.000; -619.000
421.133;  -82.125; -509.000; -467.000
421.259;  -58.700; -325.000; -259.000
421.384; -126.625; -834.000; -693.000
421.509;  -45.675;-1052.000; -862.000
421.634; 1114.650; -936.000; -820.000
421.759;  462.675; -359.000; -327.000
421.885;  -64.925; -717.000; -656.000
422.010;  -82.425; -673.000; -542.000
422.135; -147.675; -695.000; -727.000
422.260;   31.075;  340.000;  280.000
422.385;  -44.400;   12.000;  -98.000
422.510;   -9.575;  151.000;  -26.000
422.635;    7.675;  -87.000;  -43.000
422.760;   90.000; -766.000; -791.000
422.885;   37.825;  -57.000;  -80.000
423.010;  -44.550; -112.000; -169.000
423.135; -104.875; -481.000; -561.000
423.260;  -25.925; -150.000; -245.000
423.385;   62.050;  476.000;  222.000
423.510;   24.200;   71.000;  -22.000
423.635;   71.650;  133.000;   45.000
423.760;   56.200;  383.000;  328.000
423.885;   53.850;  336.000;  391.000
424.010;    8.550;  -68.000;  -13.000
424.135;  -14.725;    5.000;  -33.000
424.259; -111.400; -654.000; -457.000
424.384;  -70.475; -279.000; -272.000
424.509;  -27.050; -260.000; -186.000
424.634;  -98.075; -761.000; -623.000
424.759;  -32.525; -688.000; -544.000
424.883;  -22.875; -506.000; -527.000
425.008;  157.150; -502.000; -410.000
425.133; 1983.150; -679.000; -653.000
425.258;  920.000; -517.000; -381.000
425.382;  996.075; -867.000; -774.000
425.507; 2593.500; -487.000; -543.000
425.632;  437.375; -802.000; -663.000
425.756;  463.675; -256.000; -146.000
425.881; 6546.000; -831.000; -857.000
426.006;17913.000; -604.000; -355.000
426.130; 2812.025; -696.000; -508.000
426.255;  357.575; -611.000; -491.000
426.379;  144.250; -189.000; -577.000
426.504;  369.100;  660.000;  544.000
426.629; 4007.175; -519.000; -466.000
426.753; 2815.800;   64.000;  -46.000
426.878;  322.650; -252.000; -288.000
427.002;  139.000; -651.000; -668.000
427.127; 1572.650;  -35.000; -158.000
427.251;11402.225;  372.000;  401.000
427.375; 3296.800; -191.000; -173.000
427.500; 2249.700; -616.000; -610.000
427.624;  779.150; -234.000; -400.000
427.749;   75.525; -216.000; -225.000
427.873;  -29.900; -499.000; -412.000
427.997;  -51.525; -222.000; -230.000
428.122;   79.050;  795.000;  703.000
428.246;   63.450;  433.000;  434.000
428.371; -131.850; -869.000; -773.000
428.495; -112.000; -624.000; -646.000
428.619;  -45.125; -186.000; -117.000
428.743;    6.925;   65.000;  132.000
428.868;    3.475; -732.000; -643.000
428.992; 1395.225; -219.000; -326.000
429.116;  546.025; -329.000; -357.000
429.240;  264.175;  419.000;  426.000
429.365;  -18.875; -454.000; -574.000
429.489;  -47.100; -638.000; -647.000
429.613;    3.325; -236.000; -177.000
429.737;   34.775; -563.000; -432.000
429.861;  261.425; -247.000; -133.000
429.985; 5549.375; -425.000; -305.000
430.109; 6137.675; -770.000; -908.000
430.234;  711.250;   76.000;  -50.000
430.358;   49.550; -250.000; -160.000
430.482;  -72.825; -672.000; -564.000
430.606;  -73.625; -655.000; -375.000
430.730;    0.125; -437.000; -388.000
430.854;  112.550; -909.000; -835.000
430.978;  -76.400; -795.000; -764.000
431.102;  -86.750; -499.000; -422.000
431.226; -142.150; -874.000; -815.000
431.350;   24.300;  345.000;  422.000
431.474;  -83.475; -661.000; -373.000
431.597; -148.650;-1060.000; -848.000
431.721;  -84.550; -276.000; -267.000
431.845; -132.925; -704.000; -472.000
431.969;  -76.250; -304.000; -349.000
432.093; -100.375; -395.000; -317.000
432.217;  -22.275;   32.000;   82.000
432.341;  -94.525; -523.000; -518.000
432.464;  -11.200;   96.000;   40.000
432.588;  188.750; -401.000; -329.000
432.712;   88.450;  -52.000;  -52.000
432.836;   40.725;  213.000;  263.000
432.959;  -17.875; -372.000; -311.000
433.083;   84.250;   11.000;    2.000
433.207;  377.100;  285.000;  930.000
433.330; 5057.950; -391.000; -200.000
433.454; 6265.325; -654.000; -638.000
433.578; 3558.250;  583.000;  278.000
433.701;  651.025; -623.000; -675.000
433.825;  140.800; -292.000; -299.000
433.949;  138.950;   28.000;  -72.000
434.072;   56.425; -410.000; -323.000
434.196;  -23.475; -309.000; -117.000
434.319; 3702.425;25482.000;25124.000
434.443;  699.250; -656.000; -603.000
434.566; 2670.825;  281.000;   62.000
434.690;  453.550; -637.000; -383.000
434.813;   44.650; -251.000; -173.000
434.937;  -97.850; -569.000; -696.000
435.060;  -47.050; -423.000; -332.000
435.184;  284.425; -492.000; -217.000
435.307;  159.000;  159.000;  102.000
435.431;  -16.375;  -40.000;   24.000
435.554;  -85.900; -399.000; -240.000
435.677; -106.425; -350.000; -258.000
435.801;  -58.675;  -25.000;   49.000
435.924;   -7.725;    1.000;  -67.000
436.048; -121.800;-1019.000; -732.000
436.171;  -67.725; -240.000;  -66.000
436.294;  -36.825; -248.000; -229.000
436.417;   90.325; -963.000; -849.000
436.541;  -91.750; -814.000; -840.000
436.664;  -45.600; -242.000; -316.000
436.787;  -34.825;   13.000;  113.000
436.910; -139.175; -792.000; -422.000
437.034;   -3.650;  142.000;  143.000
437.157;   46.675;  -11.000;    0.000
437.280;  -48.375; -392.000; -292.000
437.403;  -96.375; -982.000; -869.000
437.526;  584.125; -903.000; -865.000
437.649; 2221.425; -505.000; -332.000
437.772;  311.625; -692.000; -540.000
437.896;  110.525;  700.000;  544.000
438.019; -105.375; -758.000; -503.000
438.142; -103.775; -596.000; -506.000
438.265;  -26.200; -639.000; -670.000
438.388;  518.625; -520.000; -410.000
438.511;   81.325; -597.000; -394.000
438.634;  -57.825; -247.000; -125.000
438.757; -135.450; -693.000; -619.000
438.880;  -29.850;  -34.000;  -57.000
439.003;  -93.575; -417.000; -437.000
439.126;  -67.375; -287.000; -167.000
439.248;  -60.050;  -98.000; -139.000
439.371;  -65.225;    9.000;  -53.000
439.494;   23.575;  510.000;  439.000
439.617;  -49.325;   65.000;  -88.000
439.740; -188.525; -968.000; -816.000
439.863; -166.850; -755.000; -595.000
439.986; -123.875; -476.000; -431.000
440.108;  -65.975; -161.000; -112.000
440.231; -155.825; -950.000; -836.000
440.354;  -53.900;  -64.000; -150.000
440.477;   15.025; -566.000; -542.000
440.599;  -19.550; -200.000; -225.000
440.722; -130.875; -709.000; -586.000
440.845;   58.800;  751.000;  928.000
440.968; -132.900; -415.000; -311.000
441.090;  -66.550; -199.000;  -33.000
441.213; -171.125;-1021.000; -825.000
441.336;  -62.375; -159.000;   -5.000
441.458;  -75.350; -549.000; -396.000
441.581;  -89.325; -628.000; -629.000
441.703;  -74.375; -152.000;   13.000
441.826; -128.325; -557.000; -400.000
441.948;  -51.525;   56.000;   51.000
442.071;   17.050;  555.000;  424.000
442.193; -132.075; -531.000; -485.000
442.316;   12.275;  152.000;   97.000
442.438;   35.275; -233.000;  -10.000
442.561;   72.775;  272.000;  262.000
442.683;  505.175; -809.000; -522.000
442.806; 1132.800;   -8.000;   74.000
442.928;   29.750; -859.000; -604.000
443.051;  -83.175; -577.000; -373.000
443.173; -104.575; -341.000; -339.000
443.295;  -94.975; -263.000; -371.000
443.418;  -77.000; -321.000;  -29.000
443.540;  -20.075; -106.000;   -4.000
443.662; -120.475; -563.000; -465.000
443.785;  -28.625;  335.000;  199.000
443.907; -101.700; -362.000; -208.000
444.029; -132.675; -767.000; -494.000
444.152; -158.825; -644.000; -554.000
444.274;  -39.050;  -18.000;  -24.000
444.396; -119.075; -461.000; -221.000
444.518; -149.775; -691.000; -454.000
444.640; -107.725; -268.000; -111.000
444.763;  -29.375;  388.000;  249.000
444.885; -121.275; -432.000; -392.000
445.007;  -42.550;   35.000;   86.000
445.129; -117.100; -610.000; -515.000
445.251; -113.100; -372.000; -439.000
445.373; -145.375; -537.000; -386.000
445.495;   -1.125;  242.000;  350.000
445.617;   46.950;  853.000;  753.000
445.739;  -73.450; -215.000;  -97.000
445.861;  -33.700; -245.000; -112.000
445.984;  -52.375; -267.000; -101.000
446.105;  195.750; -418.000; -251.000
446.227;  590.650; -176.000;  -19.000
446.349;    9.425; -358.000; -249.000
446.471; -109.425; -615.000; -448.000
446.593;  -76.200; -316.000;   19.000
446.715;   -1.450;  -67.000;   41.000
446.837;   71.625;  697.000;  832.000
446.959; -116.700; -457.000; -478.000
447.081; -141.275; -628.000; -518.000
447.203;   34.900;  862.000;  834.000
447.325;  -97.300; -270.000;   42.000
447.446;  -11.550;  286.000;  530.000
447.568; -157.325; -921.000; -803.000
447.690;  -88.075; -236.000; -245.000
447.812; -154.650; -798.000; -519.000
447.933;  -30.675;  155.000;  127.000
448.055;  -85.900; -306.000; -261.000
448.177;  130.625;   31.000;   79.000
448.299;   62.475; -935.000; -727.000
448.420;   10.775;  -25.000;  159.000
448.542;  -55.550;   -3.000;   33.000
448.664;  -29.225;  109.000;  322.000
448.785;  -48.175;  265.000;   83.000
448.907;  -90.500; -614.000; -353.000
449.028;  -39.875; -771.000; -471.000
449.150;   46.525;  492.000;  589.000
449.272; -189.725;-1044.000; -913.000
449.393;   21.925;  612.000;  694.000
449.515; -158.975; -634.000; -581.000
449.636;  -77.300; -264.000; -155.000
449.758;   76.300;  763.000;  622.000
449.879; -102.675; -498.000; -396.000
450.001;  -76.525; -149.000;  -49.000
450.122;  -52.175;  -95.000;  162.000
450.244;  -47.000;   37.000;  364.000
450.365; -104.775; -495.000; -301.000
450.486;  -41.775;   80.000;  268.000
450.608;    5.050;  393.000;  326.000
450.729;   55.150;  578.000;  645.000
450.850;    3.225; -574.000; -466.000
450.972;  742.025; -552.000; -389.000
451.093; 4926.175;  190.000;  588.000
451.214; 2169.750; -516.000; -337.000
451.336;  397.900;  773.000;  579.000
451.457;   58.275;  264.000;  393.000
451.578;  -54.200; -118.000;  -74.000
451.699; -127.275; -546.000; -540.000
451.821;  -82.150; -284.000;  -50.000
451.942;  -16.750;  278.000;  285.000
452.063;   31.900;  228.000;  419.000
452.184;  549.525;  -54.000;  -49.000
452.305; 1087.375;  103.000;  170.000
452.427;  145.000; -549.000; -301.000
452.548;  -24.350;   23.000;   79.000
452.669;  -47.950; -257.000;  -89.000
452.790;  -54.175;    3.000;  -18.000
452.911;  -11.100;  195.000;  259.000
453.032;  -88.500; -289.000;  -60.000
453.153;  -42.325;  -29.000;   81.000
453.274;   46.750;  737.000;  868.000
453.395;  -51.300;  -51.000;  175.000
453.516;  114.250; 1317.000; 1388.000
453.637;  -63.850; -205.000; -150.000
453.758;  -58.425;   15.000;   69.000
453.879; -132.100; -462.000; -250.000
454.000;   67.675; 1086.000;  948.000
454.121; -130.375; -554.000; -326.000
454.242; -118.600; -599.000; -383.000
454.362;  -65.950;  -99.000;  114.000
454.483;  -48.525; -309.000; -229.000
454.604;   49.525;  512.000;  580.000
454.725; -142.425; -627.000; -555.000
454.846; -146.550; -474.000; -406.000
454.967;  -39.125;  230.000;  539.000
455.087;  -47.925;  179.000;  153.000
455.208;    2.025;  554.000;  856.000
455.329;  -63.150;  -22.000;   82.000
455.450;   28.375;  473.000;  633.000
455.570;  -93.525; -234.000; -211.000
455.691;  -43.350;  201.000;  407.000
455.812; -131.375; -270.000;  -92.000
455.932;  -73.850;  107.000;  -97.000
456.053;  -81.375;   36.000;   24.000
456.173; -114.225; -433.000; -355.000
456.294; -128.825; -476.000; -303.000
456.415;  -77.125;  -73.000;   70.000
456.535;  -50.125;  297.000;  273.000
456.656;  -44.425;  132.000;  240.000
456.776;  -61.875;    3.000;  298.000
456.897;   -3.750;  308.000;  513.000
457.017;  -83.150; -153.000;   -3.000
457.138; -104.400; -402.000; -249.000
457.258;  -41.750;  263.000;  224.000
457.379;  -19.075;  509.000;  521.000
457.499;  -29.550;  443.000;  432.000
457.620; -130.450; -407.000; -231.000
457.740; -111.075; -132.000;  -11.000
457.860;  -69.375;   87.000;   44.000
457.981;  -47.800;  132.000;  124.000
458.101;  -80.450;  -89.000;   40.000
458.221;   -9.425;  336.000;  402.000
458.342;  -74.900;   -4.000;  -37.000
458.462;   16.975;  617.000;  352.000
458.582;  -56.175; -302.000; -294.000
458.703;   -4.450;  303.000;  154.000
458.823;  -33.350;   22.000;  163.000
458.943;   10.250;  341.000;  467.000
459.063;  -28.900; 1124.000;  192.000
459.183;  -30.475;  328.000;  313.000
459.304;   -4.950;  315.000;  517.000
459.424;  -71.025; -246.000;  -89.000
459.544;  323.925;  388.000;  764.000
459.664;  828.800;  499.000;  506.000
459.784;  294.125; 1004.000; 1175.000
459.904;   49.225;  867.000;  744.000
460.024;   62.925;  867.000;  684.000
460.144;   -6.875;  449.000;  554.000
460.264;  -12.250;  515.000;  327.000
460.385; -102.975; -145.000; -119.000
460.505;   23.875;  905.000;  858.000
460.625;  -93.275;  -17.000;  -68.000
460.745;  -13.225;  396.000;  541.000
460.864;  -44.975;  153.000;  469.000
460.984;    3.350;  499.000;  573.000
461.104;  127.350; 1656.000; 1775.000
461.224;    0.050;  657.000;  650.000
461.344;  -44.825;  431.000;  360.000
461.464;  -47.775;  258.000;  513.000
461.584;  -34.550;  283.000;  466.000
461.704;  -50.750;   58.000;  108.000
461.824;  -73.200;  238.000;  259.000
461.943;  -53.650;  191.000;  130.000
462.063;  -83.500;    2.000;  324.000
462.183;   16.650;  639.000;  717.000
462.303;   97.925; 1678.000; 1230.000
462.422;   17.950;  781.000;  840.000
462.542;  -41.475;  271.000;  391.000
462.662;   26.025;  353.000;  380.000
462.782;  230.775;  833.000;  572.000
462.901;  469.325;  545.000;  717.000
463.021;  302.325; 1702.000; 1638.000
463.141;  -20.850;  337.000;  770.000
463.260;  -29.650;  614.000;  474.000
463.380;   18.150;  902.000;  884.000
463.499;  -44.475;  342.000;  332.000
463.619;  -32.525;  581.000;  559.000
463.738;   98.150; 1644.000;  903.000
463.858;    4.125;  657.000;  811.000
463.978;  -40.050;  542.000;  396.000
464.097;   44.225;  921.000; 1114.000
464.217;  116.125; 1196.000; 1143.000
464.336;  115.275; 1068.000; 1130.000
464.455;  -37.800;  328.000;  659.000
464.575;   33.300;  597.000;  602.000
464.694;  161.575; 1204.000; 1179.000
464.814;   99.150; 1190.000; 1138.000
464.933;   65.400; 1095.000; 1027.000
465.052;   85.800; 1412.000; 1054.000
465.172;   83.100;  922.000;  799.000
465.291;  136.950; 1376.000; 1320.000
465.410;   -1.750;  462.000;  735.000
465.530;   86.200; 1355.000; 1310.000
465.649;   55.875; 1209.000; 1273.000
465.768;  124.675; 1673.000; 1508.000
465.888;   48.550;  941.000; 1174.000
466.007;   84.075; 1335.000; 1440.000
466.126;   -9.500;  721.000;  641.000
466.245;   26.625; 1176.000; 1187.000
466.364;   16.775;  950.000; 1060.000
466.484;   61.250; 1024.000; 1213.000
466.603;   33.500; 1101.000; 1222.000
466.722;  118.375; 1490.000; 1769.000
466.841;   74.775; 1151.000; 1401.000
466.960;   31.175; 1069.000;  972.000
467.079;  132.850; 1971.000; 1786.000
467.198;   51.025; 1238.000; 1181.000
467.317;   87.725; 1768.000; 1162.000
467.436;   61.100; 1709.000; 1261.000
467.555;  131.875; 1796.000; 1746.000
467.674;   52.875; 1227.000; 1329.000
467.793;   48.525; 1376.000; 1374.000
467.912;   88.300; 1658.000; 1539.000
468.031;  124.225; 2038.000; 1930.000
468.150;  127.800; 1842.000; 1837.000
468.269;  181.100; 2313.000; 2090.000
468.388;  185.575; 2168.000; 2339.000
468.507;  244.075; 2884.000; 2903.000
468.626;  226.300; 2555.000; 2541.000
468.744;  145.800; 2018.000; 2174.000
468.863;  191.575; 2312.000; 2523.000
468.982;   88.975; 1503.000; 1555.000
469.101;  200.300; 2788.000; 2692.000
469.220;  133.400; 2333.000; 2176.000
469.338;  251.750; 2935.000; 3051.000
469.457;  197.000; 2719.000; 2545.000
469.576;  345.025; 3953.000; 3784.000
469.695;  236.750; 2877.000; 3066.000
469.813;  411.750; 4148.000; 4192.000
469.932;  409.375; 4255.000; 4485.000
470.051;  403.400; 4075.000; 4161.000
470.169;  860.275; 4470.000; 4338.000
470.288; 1472.500; 4700.000; 4809.000
470.406;  884.450; 5059.000; 5194.000
470.525;  614.225; 6101.000; 5787.000
470.644;  637.975; 6847.000; 6794.000
470.762;  807.775; 8397.000; 7873.000
470.881;  895.775; 8651.000; 8464.000
470.999; 1024.550; 9685.000; 9151.000
471.118; 1113.800;11174.000;10711.000

