
Integration time [ms]: 100.000
Averaging Nr. [scans]: 40
Smoothing Nr. [pixels]: 0
Data measured with spectrometer [name]: 2101012U2
Wave   ;Sample   ;Dark     ;Reference
[nm]   ;[counts] ;[counts] ;[counts] 

197.733;   64.900;  516.000;  404.000
197.879;  -98.800; -610.000; -634.000
198.025;  -56.450; -475.000; -420.000
198.171;  -80.825; -602.000; -612.000
198.317;  -26.250; -401.000; -316.000
198.463;  -70.500; -655.000; -404.000
198.609;   19.325;  181.000; -137.000
198.755;  -95.975; -644.000; -410.000
198.901;  -71.125; -505.000; -424.000
199.047;  -80.050; -615.000; -488.000
199.193;  -31.600; -230.000; -468.000
199.339;  -50.975; -222.000; -369.000
199.485;   30.950;  330.000;  271.000
199.631;   10.550;  227.000;  310.000
199.777;  -52.275; -466.000; -398.000
199.923;  -68.250; -610.000; -424.000
200.069;   -4.175; -141.000;  -58.000
200.215;   57.900;  128.000;  453.000
200.361;   28.900;  243.000;  477.000
200.507;  -61.900; -600.000; -373.000
200.653;  -25.575; -371.000; -194.000
200.798;  -36.075; -215.000; -125.000
200.944;  -10.850; -146.000;  -41.000
201.090;   26.550;   61.000;  222.000
201.236;   -2.375; -116.000; -158.000
201.382;  116.700;  874.000;  903.000
201.528;    1.325;  -58.000;  -48.000
201.674;  -32.075; -386.000; -293.000
201.819;  -66.975; -540.000; -439.000
201.965;  -95.800; -699.000; -447.000
202.111;   -8.000; -273.000; -226.000
202.257;  -42.600; -250.000; -238.000
202.402;    4.900;   13.000;  -36.000
202.548;  -28.875; -169.000; -116.000
202.694;   66.175;  410.000; -183.000
202.840;  -90.875; -603.000; -531.000
202.985;  -61.425; -681.000; -639.000
203.131; -117.575; -832.000; -666.000
203.277;  -19.850; -199.000; -262.000
203.423;  -48.050; -434.000; -520.000
203.568;  -29.075; -462.000; -237.000
203.714;  -60.500; -535.000; -542.000
203.860;  -89.350; -682.000; -641.000
204.005;   -2.300;  112.000;  167.000
204.151;   73.525;  561.000;  556.000
204.296;  -43.050; -354.000; -221.000
204.442;  -70.075; -600.000; -547.000
204.588;  -66.525; -592.000; -579.000
204.733;   15.900;  178.000;  168.000
204.879; -141.725;-1018.000; -822.000
205.025;   12.600;  -99.000;  126.000
205.170;  -12.450;  -17.000;   94.000
205.316;   81.250;  438.000;  661.000
205.461;  -92.050; -698.000; -554.000
205.607;   79.375;  609.000;  665.000
205.752;  -87.600; -626.000; -551.000
205.898;  -54.000; -501.000; -391.000
206.043;  -71.650; -578.000; -506.000
206.189;  -39.975; -243.000; -285.000
206.334;   68.125;  554.000;  606.000
206.480;   74.200;  409.000;  239.000
206.625;  -91.350; -529.000; -552.000
206.771;  -45.525; -451.000; -373.000
206.916;  -34.825; -210.000; -537.000
207.062;  -73.625; -545.000; -591.000
207.207;  -60.050; -546.000; -443.000
207.353;   51.500;  185.000;  460.000
207.498;    9.625;  196.000;   85.000
207.643;  -43.250; -501.000; -370.000
207.789; -140.575;-1069.000; -910.000
207.934;  -94.125; -665.000; -713.000
208.080;  -10.575; -154.000;   66.000
208.225;   -5.250;  -22.000;  -57.000
208.370;  -88.525; -727.000; -619.000
208.516;  -73.600; -741.000; -487.000
208.661;  -31.675; -127.000;  -69.000
208.806;  -22.750; -165.000; -171.000
208.952; -123.725;-1044.000; -731.000
209.097;   77.475;  378.000;  349.000
209.242;  -63.150; -307.000; -382.000
209.387;   72.900;  392.000;  350.000
209.533;  -53.850; -321.000; -350.000
209.678;   72.225;  472.000;  543.000
209.823;  -60.800; -408.000; -310.000
209.969; -100.175; -860.000; -757.000
210.114;  -99.150; -907.000; -719.000
210.259; -125.000; -939.000; -889.000
210.404;  -11.450; -171.000;  103.000
210.549;    8.450;  108.000;    3.000
210.695;  -17.275;   -3.000;  -95.000
210.840;   40.275;   94.000;   67.000
210.985;  -66.900; -484.000; -303.000
211.130;   67.925;  268.000;  406.000
211.275;    6.000;  207.000;  199.000
211.420;  -49.950; -300.000; -289.000
211.566;  -68.375; -536.000; -489.000
211.711;   27.650;  218.000;  157.000
211.856;  -70.900; -545.000; -519.000
212.001;    3.000;  151.000;   44.000
212.146;   15.250;  153.000;   49.000
212.291;  -17.125; -210.000; -186.000
212.436;  -23.775; -280.000;   -6.000
212.581;  -80.250; -685.000; -653.000
212.726;  -67.900; -487.000; -538.000
212.871;  -47.400; -552.000; -217.000
213.016; -152.875;-1172.000;-1029.000
213.161;   60.400;  406.000;  291.000
213.306;  -91.200; -435.000; -577.000
213.451;  -98.675; -778.000; -689.000
213.596;  -46.050; -455.000; -347.000
213.741;  -55.225; -448.000; -538.000
213.886;  -83.450; -498.000; -517.000
214.031;  -17.000; -294.000; -124.000
214.176;  -72.175; -408.000; -341.000
214.321;  -14.775; -296.000; -157.000
214.466;  -45.250; -163.000;  -43.000
214.611;    5.075;  -61.000;  -10.000
214.756; -124.875; -948.000; -858.000
214.901;  -29.425; -388.000; -226.000
215.046; -140.325; -797.000; -825.000
215.191;    2.500;  128.000;   35.000
215.336;  -18.025; -157.000;  -19.000
215.480;  -65.500; -684.000; -505.000
215.625;  -17.100; -175.000;  -19.000
215.770;  -88.325; -757.000; -662.000
215.915;   -7.450;   -5.000;  -97.000
216.060;    5.950; -113.000;  -21.000
216.205; -120.100; -731.000; -779.000
216.349;  -72.925; -470.000; -533.000
216.494; -141.725; -939.000; -867.000
216.639; -114.625; -823.000; -888.000
216.784;  -89.875; -577.000; -525.000
216.929;   56.850;  392.000;  281.000
217.073;  -19.400; -244.000;  -31.000
217.218;   24.025;   78.000;  -47.000
217.363; -101.275; -656.000; -618.000
217.507;  -79.650; -623.000; -588.000
217.652; -144.775; -845.000; -874.000
217.797;  -83.475; -708.000; -659.000
217.942; -117.525; -856.000; -720.000
218.086;   76.500;  608.000;  539.000
218.231;  -24.425; -174.000;  -26.000
218.376;  -37.700; -337.000; -229.000
218.520;  -11.875;  -41.000;   96.000
218.665;  -32.300; -338.000; -204.000
218.810;  -58.275; -275.000; -233.000
218.954;    9.175;  201.000;   35.000
219.099; -115.025; -713.000; -963.000
219.243;  -77.475; -589.000; -554.000
219.388;  -45.250; -264.000; -136.000
219.532;  -18.150; -116.000; -116.000
219.677;  -80.050; -564.000; -521.000
219.822;    5.600;   33.000;   89.000
219.966;   -3.625;   17.000;  -99.000
220.111;  -36.850; -328.000;  -40.000
220.255;  -99.550; -797.000; -750.000
220.400;  -22.825; -180.000; -146.000
220.544;  -80.700; -516.000; -450.000
220.689;  -47.575; -422.000; -451.000
220.833;  -36.875; -123.000;  -58.000
220.978;  -43.075; -393.000; -563.000
221.122;   17.300;  319.000;  307.000
221.267; -124.200; -906.000; -837.000
221.411;  -65.975; -478.000; -394.000
221.555;   -2.000; -104.000;  -23.000
221.700;  -52.250; -329.000; -222.000
221.844;   34.200;  255.000;  272.000
221.989;  -62.600; -328.000; -311.000
222.133;  -37.575; -289.000; -307.000
222.277;   -6.950;    5.000;   78.000
222.422;   25.525;  227.000;  113.000
222.566;  -32.100; -381.000; -214.000
222.711;  -62.450; -414.000; -479.000
222.855;  -86.100; -643.000; -586.000
222.999;  -83.775; -642.000; -717.000
223.144;  -40.800; -195.000; -194.000
223.288;   47.225;  423.000;  251.000
223.432;   25.325;  184.000;  230.000
223.576;   10.325;  152.000;  -21.000
223.721;   33.425;  364.000;  273.000
223.865;  -65.750; -472.000; -475.000
224.009;  208.475; 1673.000; 1631.000
224.153;  -75.600; -660.000; -671.000
224.298;  -69.700; -531.000; -489.000
224.442;  -16.900;  -74.000;  -33.000
224.586;  -23.675; -169.000; -106.000
224.730;  -98.975; -858.000; -670.000
224.875; -123.475; -739.000; -688.000
225.019;   11.550;  102.000;  188.000
225.163;   47.525;  208.000;  341.000
225.307;   10.650;   97.000;  -91.000
225.451;   37.725;  360.000;  481.000
225.595;   19.300;  264.000;  176.000
225.739;  -20.300; -170.000;  -94.000
225.884;   22.825;   86.000;    5.000
226.028; -108.000; -760.000; -626.000
226.172;  -39.250; -260.000; -273.000
226.316; -130.675; -941.000; -902.000
226.460;  -62.700; -645.000; -493.000
226.604;  -65.125; -406.000; -400.000
226.748; -108.700; -836.000; -733.000
226.892;  -42.025; -227.000; -181.000
227.036;  -47.700; -537.000; -447.000
227.180;  -68.025; -551.000; -375.000
227.324;  -63.000; -561.000; -580.000
227.468; -131.075; -819.000; -717.000
227.612;   17.900;  242.000;  -28.000
227.756; -107.650; -845.000; -698.000
227.900;   62.250;  342.000;  441.000
228.044;  -75.900; -509.000; -290.000
228.188;   65.000;  448.000;  568.000
228.332;  -96.925; -546.000; -472.000
228.476;  -33.700; -223.000; -149.000
228.620;  -39.600; -210.000; -150.000
228.764;   49.550;  431.000;  349.000
228.908;  -27.825; -155.000;   30.000
229.052;  -69.725; -615.000; -528.000
229.195;  -37.125; -172.000;   13.000
229.339;  -30.975; -235.000; -305.000
229.483;  -17.825;    5.000; -162.000
229.627;   -9.325; -156.000;  139.000
229.771;  -52.650; -218.000; -294.000
229.915;   20.200;  230.000;   79.000
230.059; -105.800; -648.000; -663.000
230.202;  -44.700; -370.000; -317.000
230.346;  -20.150; -107.000;  107.000
230.490;  -72.700; -489.000; -521.000
230.634; -115.500; -736.000; -553.000
230.777;   72.500;  478.000;  509.000
230.921;  -67.375; -450.000; -359.000
231.065;  -47.700; -246.000; -286.000
231.209;   13.725;  261.000;  265.000
231.352;   20.625;   54.000;   40.000
231.496;   15.800;  568.000;  188.000
231.640;  -82.575; -693.000; -621.000
231.783;   32.025;  546.000;  525.000
231.927;  -50.950; -294.000; -365.000
232.071; -132.700; -962.000; -736.000
232.214; -104.100; -980.000; -764.000
232.358; -100.950; -683.000; -599.000
232.502;    6.425;  -19.000;    7.000
232.645; -134.925;-1090.000; -927.000
232.789;  -30.175; -257.000; -218.000
232.933;  -53.300; -407.000; -224.000
233.076; -125.800;-1038.000; -897.000
233.220; -127.800; -752.000; -777.000
233.363;  -77.975; -669.000; -477.000
233.507;   47.775;  371.000;  129.000
233.650;  -93.025; -764.000; -834.000
233.794;   28.275;  438.000;  461.000
233.938;  -50.575; -530.000; -362.000
234.081;  -36.700;  -93.000;   31.000
234.225;  -73.325; -631.000; -539.000
234.368; -118.400; -773.000; -723.000
234.512;  -43.075; -385.000; -299.000
234.655;  -87.375; -582.000; -555.000
234.798;  -59.075; -493.000; -466.000
234.942; -136.925; -884.000;-1002.000
235.085;  -69.275; -651.000; -443.000
235.229;  -74.050; -405.000; -410.000
235.372;  -44.900; -247.000; -191.000
235.516;  -73.475; -397.000; -321.000
235.659;   12.000;   92.000;  121.000
235.802;  -17.050;  -38.000;  -22.000
235.946;   27.350;  335.000;  215.000
236.089;   20.750;  126.000;  250.000
236.233;   51.100;  275.000;  298.000
236.376;  -56.150; -235.000; -378.000
236.519;  -52.100; -297.000; -319.000
236.663;  -41.200; -215.000; -117.000
236.806; -144.400;-1029.000; -999.000
236.949;   48.825;  543.000;  431.000
237.092;   59.275;  412.000;  391.000
237.236;  -85.550; -589.000; -502.000
237.379;   68.275;  352.000;  428.000
237.522; -111.650; -879.000; -768.000
237.666;  -13.600; -271.000;   18.000
237.809; -136.425; -851.000; -823.000
237.952;   30.200;  469.000;  271.000
238.095;  -67.075; -447.000; -442.000
238.238;   82.275;  688.000;  700.000
238.382;   -3.850;  166.000;  103.000
238.525;  -66.350; -598.000; -511.000
238.668; -145.925;-1060.000; -985.000
238.811;  -89.775; -638.000; -643.000
238.954;  -74.425; -483.000; -334.000
239.097;   88.200;  617.000;  664.000
239.241;    9.425;  394.000;  326.000
239.384;  -30.775; -254.000; -214.000
239.527;  -61.225; -424.000; -224.000
239.670; -141.975; -994.000;-1091.000
239.813; -120.875; -696.000; -658.000
239.956;   88.175;  579.000;  473.000
240.099; -125.950; -778.000; -725.000
240.242;   57.400;  428.000;  432.000
240.385;   41.375;  466.000;  450.000
240.528;  -77.175; -706.000; -473.000
240.671;   12.900;  189.000;  134.000
240.814;  -52.275; -441.000; -158.000
240.957; -112.675; -767.000; -578.000
241.100;  -94.825; -779.000; -755.000
241.243; -155.600;-1234.000; -893.000
241.386;  -62.525; -508.000; -379.000
241.529;  -87.425; -735.000; -547.000
241.672;  -62.100; -566.000; -495.000
241.815; -125.925; -832.000; -808.000
241.958;  -22.450; -125.000; -182.000
242.101;  -85.500; -545.000; -390.000
242.244;  -28.950; -270.000; -325.000
242.387;  -57.675; -304.000; -246.000
242.530;   49.375;  470.000;  134.000
242.673;  -47.300; -381.000; -309.000
242.815; -115.825; -925.000; -899.000
242.958;  -92.525; -482.000; -381.000
243.101;   16.675;  132.000;  187.000
243.244;  -93.800; -564.000; -521.000
243.387;  -49.000; -313.000; -316.000
243.530;  -97.225; -657.000; -674.000
243.672;   -5.000;   43.000;  -92.000
243.815;  -56.625; -355.000; -283.000
243.958;   -7.325;   98.000;  -26.000
244.101;    4.125;   59.000;  -16.000
244.243;  -20.750;  -47.000;  101.000
244.386; -116.500; -761.000; -630.000
244.529;  -20.725; -132.000; -139.000
244.672; -157.475;-1154.000; -951.000
244.814;  -96.275; -621.000; -794.000
244.957;  -68.375; -380.000; -304.000
245.100;  -78.250; -489.000; -489.000
245.242;  -70.225; -387.000; -374.000
245.385;   -2.350;  -59.000;  -39.000
245.528; -137.150; -871.000; -705.000
245.670;   68.650;  612.000;  634.000
245.813;  -79.925; -599.000; -547.000
245.956;  -44.375; -324.000; -275.000
246.098;  -85.225; -508.000; -650.000
246.241;   -9.200;  194.000;   48.000
246.383;  -30.100; -119.000;  -73.000
246.526;  -82.050; -454.000; -525.000
246.669; -125.375; -889.000; -780.000
246.811;   11.025;  172.000;   -1.000
246.954;  -84.500; -512.000; -426.000
247.096;  -23.625;  -84.000;   -6.000
247.239;  -74.100; -482.000; -445.000
247.381;  -76.100; -647.000; -488.000
247.524;   64.300;  645.000;  679.000
247.666;   -2.425;   58.000;   11.000
247.809; -120.800; -887.000; -691.000
247.951;   -2.700;  -75.000;  138.000
248.094;   24.625;  432.000;  308.000
248.236; -151.750;-1262.000;-1238.000
248.378;   -0.725; -356.000;  -81.000
248.521;  -27.300; -334.000; -337.000
248.663;  -40.975; -236.000; -267.000
248.806;  -30.700; -300.000; -266.000
248.948; -103.850; -886.000; -763.000
249.090;  -64.600; -428.000; -398.000
249.233;  -56.500; -344.000; -381.000
249.375;  -73.100; -474.000; -451.000
249.518;  -28.250;  -83.000; -133.000
249.660;  -12.900; -103.000;    3.000
249.802; -179.600;-1303.000;-1189.000
249.945;  -85.900; -612.000; -540.000
250.087; -125.875; -834.000; -768.000
250.229;  -55.625; -362.000; -480.000
250.371;  -86.550; -494.000; -439.000
250.514;  -51.025; -310.000; -244.000
250.656;  -17.500;   69.000;  102.000
250.798; -108.250; -849.000; -800.000
250.940;  -70.075; -322.000; -322.000
251.083;  -35.725; -335.000; -111.000
251.225;   54.925;  338.000;  310.000
251.367;  -47.525; -274.000; -373.000
251.509;  -30.900; -265.000; -210.000
251.651;  -99.100; -731.000; -671.000
251.794;   37.750;  538.000;  632.000
251.936; -113.900; -821.000; -747.000
252.078;  -91.825; -540.000; -461.000
252.220;  -65.750; -645.000; -477.000
252.362;   73.775;  344.000;  462.000
252.504;  -81.325; -677.000; -584.000
252.646; -118.925; -875.000; -722.000
252.788;    0.375;   14.000; -128.000
252.931;  -41.375; -257.000; -253.000
253.073;  -39.125; -376.000; -317.000
253.215;  -18.800;  141.000;  122.000
253.357;  -19.500;   82.000; -153.000
253.499;  -68.625; -374.000; -234.000
253.641;  -95.925; -749.000; -594.000
253.783;  -94.400; -609.000; -527.000
253.925;  -91.675; -586.000; -591.000
254.067; -114.475; -744.000; -667.000
254.209;  -31.400; -391.000; -259.000
254.351; -133.550; -865.000; -883.000
254.493;  -43.625; -441.000; -417.000
254.635; -134.550; -936.000; -818.000
254.777; -105.950; -752.000; -687.000
254.918;  -70.000; -512.000; -430.000
255.060;  -52.025; -551.000; -395.000
255.202;  -60.950; -473.000; -261.000
255.344;  -85.725; -658.000; -455.000
255.486;  -82.650; -471.000; -406.000
255.628; -105.225; -780.000; -781.000
255.770; -107.250; -676.000; -536.000
255.912;  -72.025; -559.000; -468.000
256.053; -100.525; -730.000; -508.000
256.195;  140.375; 1008.000;  903.000
256.337; -103.700; -861.000; -595.000
256.479;   47.650;  532.000;  416.000
256.621;  -60.675; -394.000; -212.000
256.762;  -98.750; -789.000; -742.000
256.904;   26.925;  485.000;  487.000
257.046;  -46.025; -381.000; -271.000
257.188;  -53.075; -351.000; -264.000
257.329;  -75.025; -525.000; -464.000
257.471; -114.800; -939.000; -807.000
257.613;  -64.225; -584.000; -498.000
257.755; -141.025;-1073.000; -982.000
257.896;   31.225;  286.000;  392.000
258.038;  -87.050; -403.000; -352.000
258.180;  -49.800; -354.000; -279.000
258.321;  -95.775; -581.000; -457.000
258.463;  -18.450;  -71.000;  133.000
258.605;  -87.100; -562.000; -570.000
258.746; -110.300; -886.000; -772.000
258.888; -160.250;-1026.000;-1020.000
259.029;    9.150;  121.000;   -8.000
259.171; -105.275; -614.000; -550.000
259.313;   -8.100;  -49.000;  -47.000
259.454;  -97.450; -536.000; -414.000
259.596;  -63.100; -483.000; -390.000
259.737;  -88.025; -590.000; -474.000
259.879;   36.475;  217.000;  311.000
260.020;   67.100;  901.000;  636.000
260.162;  -30.325; -146.000; -253.000
260.303; -121.250; -768.000; -687.000
260.445;  -92.775; -609.000; -613.000
260.586;   30.850;  392.000;  157.000
260.728;  -51.675; -360.000; -248.000
260.869; -119.525; -350.000; -343.000
261.011;   75.350;  706.000;  537.000
261.152;  -64.500; -479.000; -319.000
261.293;  -86.350; -576.000; -595.000
261.435;  -40.925; -219.000; -184.000
261.576;  -54.475; -455.000; -325.000
261.718;   40.125;  420.000;  470.000
261.859; -121.850; -940.000; -949.000
262.000; -144.825; -951.000;-1016.000
262.142;  -20.225;  -52.000;  -60.000
262.283; -136.750; -808.000; -691.000
262.424;  -83.625; -666.000; -625.000
262.566; -148.675;-1161.000; -983.000
262.707; -121.800; -840.000; -830.000
262.848; -137.050; -769.000; -726.000
262.990;  -63.300; -362.000; -345.000
263.131;   64.425;  650.000;  681.000
263.272;  -10.725;  -61.000;  -41.000
263.413;  -91.850; -589.000; -561.000
263.555;  -80.950; -669.000; -143.000
263.696;  -93.050; -550.000; -641.000
263.837;  -57.850; -449.000; -551.000
263.978;   -4.325;   -5.000;  -77.000
264.119;  -39.575; -283.000; -264.000
264.261; -120.950; -847.000; -630.000
264.402;   -1.550;   33.000;   40.000
264.543;  -86.000; -509.000; -524.000
264.684;  -11.000;   61.000;  -50.000
264.825;  -70.100; -816.000; -538.000
264.966;   -3.400;  -84.000;  -67.000
265.107; -130.375; -646.000; -670.000
265.248; -120.675; -825.000; -812.000
265.390;  -24.125;  152.000;   -9.000
265.531;  -35.075; -238.000; -107.000
265.672; -102.875; -557.000; -630.000
265.813;   63.375;  563.000;  439.000
265.954; -157.800; -959.000; -940.000
266.095;  -18.900; -372.000; -322.000
266.236; -105.700; -686.000; -548.000
266.377;  -42.150; -243.000; -297.000
266.518;  -84.975; -619.000; -547.000
266.659;   30.450;  170.000;  268.000
266.800;  -17.100;   83.000;   85.000
266.941;  -90.375; -487.000; -478.000
267.082;   -0.450;  354.000;   99.000
267.223;  -51.550; -344.000; -273.000
267.364; -139.475; -892.000; -686.000
267.504;  -24.650;    3.000;  135.000
267.645;   -4.650;  160.000;   67.000
267.786;  -51.325; -147.000;  -86.000
267.927;  -83.375; -473.000; -379.000
268.068;  -28.475; -186.000;  -61.000
268.209;  -51.400; -175.000; -413.000
268.350;  -56.000; -388.000; -532.000
268.490;  -96.500; -648.000; -521.000
268.631;   21.675;  127.000;  225.000
268.772; -103.575; -874.000; -647.000
268.913;  -54.875; -328.000; -476.000
269.054;  -30.150; -117.000;   12.000
269.194;  -49.100; -418.000; -402.000
269.335; -162.000;-1137.000;-1074.000
269.476;  -26.975;   33.000;  -35.000
269.617;  -64.100; -347.000; -392.000
269.757; -104.775; -713.000; -646.000
269.898; -113.175; -856.000; -613.000
270.039;  -77.225; -415.000; -405.000
270.180; -153.525; -952.000; -816.000
270.320;  -35.875; -190.000; -250.000
270.461;  -68.275; -277.000; -249.000
270.602;   -9.775; -186.000; -156.000
270.742; -133.575; -868.000; -943.000
270.883;  -63.775; -442.000; -390.000
271.023;  -59.000; -358.000; -357.000
271.164;  -79.250; -607.000; -528.000
271.305; -111.250; -666.000; -654.000
271.445; -103.750; -722.000; -683.000
271.586;  -72.600; -462.000; -283.000
271.726;  -46.350; -397.000; -322.000
271.867;  -66.400; -594.000; -534.000
272.008;  174.800; -473.000; -285.000
272.148;  107.250;  462.000;  468.000
272.289;   21.300; -113.000; -181.000
272.429;    0.050;   19.000;  185.000
272.570; -109.000; -633.000; -737.000
272.710; -117.375; -825.000; -775.000
272.851;  -21.750;  113.000; -130.000
272.991; -159.525;-1173.000;-1077.000
273.131;  -74.950; -419.000; -459.000
273.272; -115.925; -683.000; -723.000
273.412;   18.425; -143.000;  -31.000
273.553;  -71.475; -488.000; -507.000
273.693;  127.475;  913.000;  858.000
273.834; -101.325; -894.000; -692.000
273.974;  -80.175; -664.000; -615.000
274.114; -104.000; -772.000; -560.000
274.255;   63.650;  414.000;  373.000
274.395;   -5.100; -180.000; -125.000
274.535;   40.775;  199.000;  350.000
274.676;   -0.375;  225.000;   94.000
274.816;    8.175;  110.000;   34.000
274.956;  -93.125; -624.000; -690.000
275.097;  -71.075;-1014.000; -922.000
275.237; -114.975; -913.000; -803.000
275.377;  -94.625; -778.000; -689.000
275.517; -158.675; -878.000; -937.000
275.658;  -65.825; -590.000; -555.000
275.798;  -71.200; -606.000; -413.000
275.938;    7.925;  215.000;  323.000
276.078; -107.250; -626.000; -395.000
276.218;    1.400;   99.000;  104.000
276.359; -139.600;-1026.000;-1024.000
276.499;  -80.975; -605.000; -446.000
276.639;  -43.600; -305.000; -151.000
276.779;  -55.675; -475.000; -357.000
276.919; -111.725; -783.000; -624.000
277.059;  -27.225; -261.000; -212.000
277.199;  -61.100; -357.000; -259.000
277.340;   47.900;  287.000;  175.000
277.480; -118.550; -840.000; -693.000
277.620;   18.700;  192.000;   16.000
277.760; -211.500;-1533.000;-1294.000
277.900;   -2.500;  113.000;   33.000
278.040;   -1.675;  137.000;  159.000
278.180;   37.375;  270.000;  170.000
278.320;  -15.825;   21.000;   56.000
278.460;  -84.375; -443.000; -469.000
278.600; -106.125; -708.000; -598.000
278.740;   44.875;  448.000;  224.000
278.880;  -76.750; -768.000; -791.000
279.020;   -7.125; -194.000; -144.000
279.160; -111.050; -672.000; -595.000
279.300; -128.725; -926.000; -873.000
279.440; -101.600; -709.000; -622.000
279.579;  -11.000;-1014.000; -929.000
279.719;  -61.675; -410.000; -394.000
279.859;   68.900;   -4.000;   41.000
279.999;   20.925; -208.000;  101.000
280.139;  -20.600; -435.000; -387.000
280.279;  -95.900; -708.000; -745.000
280.419;  -11.850; -229.000; -147.000
280.559;  -40.000; -259.000; -180.000
280.698;  -89.725; -790.000; -639.000
280.838; -113.825; -778.000; -800.000
280.978; -107.175; -846.000; -790.000
281.118; -126.250; -811.000; -704.000
281.257;   -7.400;   24.000;    6.000
281.397; -128.800;-1094.000; -960.000
281.537; -103.775; -599.000; -712.000
281.677;  -39.375; -150.000; -101.000
281.816;  -76.325; -700.000; -630.000
281.956;  -51.300; -193.000; -257.000
282.096;  -64.425; -539.000; -396.000
282.235; -100.100; -672.000; -638.000
282.375;  -23.850; -243.000;  -98.000
282.515; -117.500; -715.000; -707.000
282.654;   11.575;   29.000;  106.000
282.794;    6.575;  388.000;  244.000
282.934;  -63.425; -530.000; -491.000
283.073; -139.300;-1030.000; -857.000
283.213;  -62.100; -460.000; -467.000
283.353;  -55.375; -408.000; -349.000
283.492;  -40.550; -264.000; -296.000
283.632;  -44.675; -254.000; -168.000
283.771; -100.800; -859.000; -730.000
283.911;  -57.250; -369.000; -260.000
284.050; -107.950; -794.000; -748.000
284.190; -163.200;-1229.000;-1096.000
284.329; -140.600;-1055.000; -964.000
284.469;  -82.150; -516.000; -591.000
284.608;  -59.600; -559.000; -598.000
284.748;  -92.900; -614.000; -570.000
284.887;   -8.500;  -87.000;  -20.000
285.027; -120.450; -844.000; -892.000
285.166;  -38.025; -192.000; -249.000
285.306;    6.650; -116.000;  -33.000
285.445;  -37.575; -229.000; -343.000
285.584;  -98.500; -630.000; -494.000
285.724;  -48.450; -282.000; -322.000
285.863; -120.500; -857.000; -507.000
286.002;  -64.450; -366.000; -276.000
286.142; -119.700; -715.000; -622.000
286.281;  -66.200; -525.000; -493.000
286.420;  -86.775; -554.000; -417.000
286.560;   92.125;  653.000;  623.000
286.699; -151.450; -958.000; -912.000
286.838;  -97.700; -590.000; -591.000
286.978; -100.775; -533.000; -537.000
287.117; -138.350;-1085.000; -950.000
287.256;  -38.975; -228.000; -211.000
287.395;  -57.475; -197.000; -378.000
287.535;  -67.125; -370.000; -298.000
287.674;  -76.075; -509.000; -484.000
287.813;   41.575;  661.000;  533.000
287.952; -136.225;-1010.000; -871.000
288.091; -156.875;-1049.000; -915.000
288.231;   11.500;   13.000;   15.000
288.370; -171.075;-1217.000;-1200.000
288.509;  -81.300; -728.000; -645.000
288.648; -110.700; -770.000; -548.000
288.787;  -36.775; -243.000;  -87.000
288.926;  -80.250; -454.000; -475.000
289.065;  120.775;  859.000;  672.000
289.204;  -72.025; -377.000; -217.000
289.344;  -93.625; -791.000; -690.000
289.483;    8.250;  416.000;  304.000
289.622;  -39.650; -291.000; -149.000
289.761;  -41.025; -309.000; -166.000
289.900; -109.650; -785.000; -626.000
290.039;  -20.175;  -12.000;  -95.000
290.178;  -36.425; -274.000; -180.000
290.317;  -99.850; -618.000; -479.000
290.456;  -74.175; -463.000; -451.000
290.595; -153.400; -961.000; -833.000
290.734; -130.125; -904.000; -891.000
290.873;  -69.425; -456.000; -420.000
291.011; -116.975; -833.000; -843.000
291.150; -117.825; -770.000; -682.000
291.289;  -31.450; -343.000; -110.000
291.428; -103.825; -599.000; -480.000
291.567;  -56.450; -370.000; -442.000
291.706;   -7.425;  109.000;  154.000
291.845;  -98.025; -597.000; -505.000
291.984; -170.625;-1234.000;-1061.000
292.122;   68.300;  602.000;  582.000
292.261;   30.225;  620.000;  463.000
292.400;    7.900; -144.000;  211.000
292.539; -133.150; -959.000; -813.000
292.678;  -51.500; -325.000; -300.000
292.816; -155.875;-1136.000; -965.000
292.955;  -87.925; -844.000; -684.000
293.094;  -36.050; -173.000; -337.000
293.233;  -72.275; -556.000; -400.000
293.371;  -50.675; -225.000;  -84.000
293.510; -106.925; -866.000; -780.000
293.649; -142.000; -959.000; -924.000
293.787;  -67.250;-1083.000;-1012.000
293.926;  -21.575; -113.000;  -32.000
294.065;  -55.100; -379.000; -290.000
294.203;   41.775;  298.000;  406.000
294.342;   12.550;   74.000;  156.000
294.481; 6777.125;51180.000; -836.000
294.619;  -25.400; -425.000; -582.000
294.758; -157.100;-1230.000;-1137.000
294.896;   47.075; -125.000;    5.000
295.035; -140.950;-1040.000;-1006.000
295.174; -127.150;-1082.000; -954.000
295.312;  -57.825; -323.000; -203.000
295.451;  -11.350; -307.000; -428.000
295.589;  -55.025; -389.000; -518.000
295.728;    3.550; -292.000; -165.000
295.866;   -5.200;  -36.000;  -51.000
296.005;  -64.950; -584.000; -341.000
296.143;  -75.725; -558.000; -596.000
296.282; -115.825; -957.000; -881.000
296.420;  -98.025; -657.000; -557.000
296.559;  -96.400; -892.000; -633.000
296.697;   -2.400; -847.000; -665.000
296.835;   44.250;-1141.000;-1002.000
296.974;   30.125;  -23.000;   39.000
297.112;    6.875; -443.000; -504.000
297.251;  -85.000; -815.000; -755.000
297.389;   71.850; -576.000; -438.000
297.527;   26.400; -145.000;  -83.000
297.666;  -65.200; -486.000; -438.000
297.804;  -62.625; -404.000; -264.000
297.942;   -4.525; -136.000; -161.000
298.081;  -24.775; -183.000;   63.000
298.219;   55.875;  -17.000;  -19.000
298.357;   23.375; -144.000;  -71.000
298.495;    8.825; -810.000; -812.000
298.634;   58.400;  245.000;  219.000
298.772;   37.950; -220.000; -338.000
298.910;  -37.575; -309.000; -182.000
299.048;  -17.350; -130.000; -153.000
299.187;  -49.800; -350.000; -250.000
299.325;    1.400;   52.000;  122.000
299.463;   31.950; -389.000; -299.000
299.601;   94.400; -327.000; -271.000
299.739; -115.700; -908.000; -883.000
299.877;  -87.800; -791.000; -703.000
300.016;  -58.750;-1095.000; -935.000
300.154;  145.950;  -19.000; -161.000
300.292;   19.075; -428.000; -348.000
300.430;   19.750; -408.000; -291.000
300.568; -120.700; -940.000; -874.000
300.706;  -60.525; -366.000; -469.000
300.844;  -94.050;-1108.000; -979.000
300.982;   98.000;  246.000;  282.000
301.120; -127.800; -965.000; -866.000
301.258;  -76.125; -812.000; -705.000
301.396;   10.775;  104.000;  -41.000
301.534;   63.625; -218.000; -293.000
301.672;  -46.900; -664.000; -521.000
301.810;   -0.250; -613.000; -545.000
301.948;   92.525;   53.000;  149.000
302.086;  593.325; -250.000;  -32.000
302.224;  885.725; -610.000; -585.000
302.362;   30.750; -558.000; -622.000
302.500;  -54.125; -923.000; -893.000
302.638;   90.425;  128.000;  245.000
302.776;   -3.775; -352.000; -408.000
302.913;   41.225;  447.000;  236.000
303.051;  -22.475;  -86.000;  -23.000
303.189;   40.475;   90.000;  118.000
303.327;  -46.300; -341.000; -256.000
303.465;  -78.125; -832.000; -588.000
303.603;  -97.525; -805.000; -604.000
303.740;   85.175;  417.000;  241.000
303.878;   -2.775; -800.000; -759.000
304.016;  -94.475; -915.000; -790.000
304.154; -148.050;-1123.000;-1152.000
304.291;  -50.550; -505.000; -554.000
304.429;    4.300;  102.000;   74.000
304.567; -137.400; -908.000; -893.000
304.705;  -75.800; -408.000; -515.000
304.842;   74.700; -616.000; -540.000
304.980;   32.775;  215.000;   35.000
305.118;   25.300; -367.000; -365.000
305.255;  -93.250; -945.000; -927.000
305.393;   51.900;  178.000;  239.000
305.531; -120.675;-1173.000; -956.000
305.668;  -78.325; -663.000; -582.000
305.806;   93.200; -358.000; -439.000
305.943;   94.825; -629.000; -637.000
306.081;   32.175; -378.000; -267.000
306.219; -111.225; -863.000; -748.000
306.356;   -4.450;  158.000;   27.000
306.494;  111.775;  981.000;  761.000
306.631;  -22.075;  -11.000;  -55.000
306.769;   -2.850; -613.000; -485.000
306.906;  -32.925; -284.000; -258.000
307.044;  -72.975; -473.000; -488.000
307.181;  -70.700; -410.000; -332.000
307.319;    5.850;  112.000;   87.000
307.456; -168.950;-1191.000;-1153.000
307.594; -104.875; -980.000; -727.000
307.731;  -35.525; -371.000; -164.000
307.868;  -15.025;  -15.000;   20.000
308.006; -150.250; -961.000; -847.000
308.143;  -67.825; -618.000; -330.000
308.281;  130.375;  -37.000; -254.000
308.418;  -32.900; -748.000; -640.000
308.555;  -74.000; -400.000; -250.000
308.693;  -78.050; -577.000; -573.000
308.830; -113.375; -712.000; -657.000
308.967;  -21.175; -215.000;  -95.000
309.105;  -71.575; -507.000; -396.000
309.242;   28.300; -468.000; -367.000
309.379;  266.800; -577.000; -655.000
309.517;  -77.925; -936.000; -948.000
309.654; -117.675; -910.000; -734.000
309.791;  -90.525; -662.000; -580.000
309.928; -142.675; -977.000; -914.000
310.065;  165.425;  819.000;  697.000
310.203;  -37.975; -825.000; -850.000
310.340;  -30.150; -465.000; -321.000
310.477;  -97.350; -412.000; -516.000
310.614;  -70.150; -383.000; -473.000
310.751;  -89.900; -427.000; -518.000
310.889;  -29.150;    1.000;   11.000
311.026; -162.450;-1161.000; -939.000
311.163;  -54.025; -386.000; -380.000
311.300;  -73.675; -512.000; -479.000
311.437;  -78.225; -658.000; -619.000
311.574; -174.750;-1226.000; -985.000
311.711;  -69.350; -595.000; -433.000
311.848;  -51.400; -380.000; -388.000
311.985;    4.650;  270.000;   93.000
312.122; -132.950; -932.000; -762.000
312.259; -130.600; -941.000; -994.000
312.396; -103.350; -508.000; -551.000
312.533;  -91.725; -812.000; -790.000
312.670; -154.150;-1070.000; -898.000
312.807;  -49.050; -352.000; -367.000
312.944;  -84.075; -513.000; -611.000
313.081;  -41.175; -150.000; -415.000
313.218; -119.575;-1111.000; -867.000
313.355;   -2.700; -531.000; -449.000
313.492;  -14.800; -455.000; -292.000
313.629;  116.600;  815.000;  735.000
313.766; -167.525;-1176.000;-1008.000
313.902;  -28.575; -186.000;   21.000
314.039;  -59.925; -372.000; -289.000
314.176;   19.100;  286.000;  192.000
314.313;  -99.000; -569.000; -473.000
314.450;  -84.200; -788.000; -684.000
314.587;  -66.700; -468.000; -480.000
314.723;   -2.500;  -78.000;  130.000
314.860;   25.100;  318.000;  332.000
314.997;   21.925;  223.000;  142.000
315.134;  -50.525; -385.000; -368.000
315.270;  -47.075; -480.000; -496.000
315.407; -147.075;-1094.000; -967.000
315.544;  -59.400; -657.000; -538.000
315.681;  -73.025; -681.000; -565.000
315.817;   24.525; -133.000; -176.000
315.954;    7.525; -613.000; -392.000
316.091; -128.600;-1045.000;-1023.000
316.227;  -34.750;  -71.000; -179.000
316.364;   -5.350;   23.000;    6.000
316.500;  -50.300; -113.000; -300.000
316.637;  -43.650; -181.000; -302.000
316.774; -102.400; -625.000; -358.000
316.910;  -96.550; -598.000; -629.000
317.047;  -79.800; -487.000; -351.000
317.183;  -61.150; -435.000; -566.000
317.320;  -26.550; -367.000; -321.000
317.456;  -71.700; -733.000; -805.000
317.593; -106.125; -598.000; -641.000
317.729;   -6.775;  168.000;  -67.000
317.866; -190.975;-1434.000;-1285.000
318.002;  -92.950; -708.000; -948.000
318.139; -107.800; -883.000; -867.000
318.275;  -94.650;-1003.000; -738.000
318.412;  -66.325; -517.000; -336.000
318.548;  -53.700; -751.000; -720.000
318.685; -107.975; -985.000; -888.000
318.821;  -94.325; -762.000; -735.000
318.957;  -38.850;   34.000;  -23.000
319.094;   29.450;  297.000;  154.000
319.230;  -80.300; -756.000; -742.000
319.367;   99.450; -471.000; -520.000
319.503;   27.725; -538.000; -436.000
319.639; -114.575; -877.000; -793.000
319.775;  -70.925; -750.000; -685.000
319.912;  -56.875; -424.000; -519.000
320.048; -101.125;-1184.000;-1184.000
320.184;   54.825;   59.000;   70.000
320.321;  -76.325; -497.000; -467.000
320.457;   63.675;  475.000;  662.000
320.593;  -70.300; -375.000; -382.000
320.729;  -98.500; -732.000; -734.000
320.866;  -77.700; -577.000; -635.000
321.002;  -81.450; -759.000; -809.000
321.138;  -38.200; -135.000; -211.000
321.274;   77.600; -148.000; -115.000
321.410;  -39.000; -585.000; -353.000
321.546;  -41.325;-1011.000; -911.000
321.683;   30.050;  400.000;  185.000
321.819;    7.925;  -48.000; -117.000
321.955; -119.125; -743.000; -722.000
322.091;  -57.150; -585.000; -540.000
322.227;  -24.350; -382.000; -202.000
322.363;  -22.375; -320.000; -215.000
322.499;  -70.650; -343.000; -331.000
322.635;  148.450;  636.000;  443.000
322.771;   -1.150; -139.000;   12.000
322.907;   81.275;  129.000;  327.000
323.043;  -51.675; -115.000; -206.000
323.179;  -55.775; -394.000; -363.000
323.315;  -14.025; -401.000; -371.000
323.451;   63.325; -328.000; -236.000
323.587;   45.050;  -60.000;  -77.000
323.723;    3.850; -682.000; -601.000
323.859;  -37.850; -258.000;  -76.000
323.995;  -41.775; -467.000; -409.000
324.131; -122.475; -967.000; -892.000
324.267;  -43.675; -254.000; -276.000
324.402; -144.875; -960.000; -983.000
324.538;  -26.000; -279.000; -104.000
324.674;   -0.025;  164.000;   77.000
324.810;  105.450;  226.000;  308.000
324.946;  -12.175; -810.000; -658.000
325.082;  -87.725; -568.000; -475.000
325.217;  -21.650;  -62.000;   16.000
325.353; -118.075; -764.000; -659.000
325.489;  -92.325; -540.000; -506.000
325.625;  -71.825; -579.000; -525.000
325.760;   57.600;  517.000;  376.000
325.896;  -32.950; -515.000; -702.000
326.032;  -64.550; -403.000; -352.000
326.168;  -65.150; -462.000; -369.000
326.303;  -67.225; -352.000; -461.000
326.439;  -17.975; -336.000; -276.000
326.575;  -13.450; -190.000;  -29.000
326.710;  -13.750; -156.000;  -30.000
326.846;  -17.850;  146.000;  103.000
326.982; -100.800; -530.000; -548.000
327.117;  -84.750; -481.000; -442.000
327.253;  -88.900; -745.000; -742.000
327.388; -183.625;-1137.000;-1153.000
327.524;  -63.700; -811.000; -578.000
327.659;  -42.175;  -58.000;  -22.000
327.795;  -27.200;   69.000;   45.000
327.931; -111.550; -723.000; -499.000
328.066;  -41.475; -417.000; -276.000
328.202;  -35.125;   12.000; -129.000
328.337;   91.675;  957.000;  713.000
328.473;   24.175;  -12.000;  -74.000
328.608;  -30.800; -256.000; -267.000
328.743;  -97.600; -799.000; -664.000
328.879;   19.600;  214.000;  114.000
329.014;  -50.400; -102.000; -122.000
329.150;  -84.475; -358.000; -483.000
329.285; -102.150; -465.000; -466.000
329.421;  -58.500; -548.000; -246.000
329.556;  -33.675;  -36.000;   85.000
329.691;  -96.250; -633.000; -615.000
329.827;  -89.700; -626.000; -480.000
329.962;  -32.675;  131.000; -301.000
330.097; -113.875; -673.000; -585.000
330.233;  -49.975; -410.000; -223.000
330.368; -139.750; -839.000; -628.000
330.503;  -30.975;    3.000;   98.000
330.638;  -11.100;  -93.000; -125.000
330.774;  -64.700; -609.000; -530.000
330.909;  -57.025; -434.000; -244.000
331.044; -115.275; -714.000; -708.000
331.179; -182.200;-1217.000;-1109.000
331.315;   13.500;   77.000;   20.000
331.450;    4.025;  157.000;  285.000
331.585;  -84.400; -805.000; -706.000
331.720;  -88.850; -510.000; -460.000
331.855;  -19.800;  -35.000; -102.000
331.990;  231.375;   62.000;  138.000
332.126;  121.800; -110.000;   71.000
332.261;  -15.825; -379.000; -265.000
332.396;   -7.525; -135.000; -242.000
332.531; -102.725;-1074.000;-1031.000
332.666;   30.925; -519.000; -363.000
332.801; -101.825; -726.000; -807.000
332.936;  -29.775; -192.000; -122.000
333.071; -167.100; -870.000; -817.000
333.206;   12.250;  307.000;  379.000
333.341;    4.750;  344.000;  418.000
333.476;  -96.125; -627.000; -623.000
333.611;  -52.350; -251.000; -173.000
333.746;  -49.675; -381.000; -464.000
333.881; -137.875; -973.000; -935.000
334.016; -131.400; -936.000; -917.000
334.151; -143.475; -746.000; -702.000
334.286;   19.850;  152.000;  186.000
334.421;  -24.775; -125.000; -178.000
334.556;  -93.975; -611.000; -567.000
334.690;  -99.075; -631.000; -577.000
334.825;   54.350;  381.000;   83.000
334.960;  -66.000; -285.000; -413.000
335.095;    5.625;  135.000;  -91.000
335.230; -116.300; -722.000; -738.000
335.365; -143.125;-1084.000; -990.000
335.499; -144.800;-1108.000;-1037.000
335.634;   12.275;    9.000;  534.000
335.769; -113.975; -755.000; -720.000
335.904;  -75.625; -603.000; -561.000
336.038;  -74.500; -735.000; -657.000
336.173; -123.350;-1206.000;-1194.000
336.308;   -8.450; -116.000; -189.000
336.443;   24.100; -544.000; -634.000
336.577;  -99.975; -936.000; -787.000
336.712;   51.200;   -4.000;  -12.000
336.847;  -54.775; -724.000; -607.000
336.981;   44.625; -272.000; -208.000
337.116;  261.825;  615.000;  501.000
337.250;  125.000; -434.000; -421.000
337.385;  256.750; -297.000; -208.000
337.520;   82.125; -632.000; -603.000
337.654;  -47.400; -215.000; -126.000
337.789; -131.600; -989.000; -933.000
337.923;  -49.150; -104.000; -205.000
338.058; -109.825; -673.000; -738.000
338.192;  -51.375; -611.000; -488.000
338.327;  -12.550;  -18.000; -155.000
338.461;  -88.050; -299.000; -469.000
338.596; -101.450; -780.000; -638.000
338.730; -107.825; -767.000; -803.000
338.865;   85.100;  -46.000; -140.000
338.999;  -55.800; -846.000; -702.000
339.134;  -27.850; -634.000; -536.000
339.268;   -1.100; -741.000; -603.000
339.403;  354.475; -740.000; -775.000
339.537;  109.050; -894.000; -820.000
339.671; -129.225; -829.000; -813.000
339.806;  -80.550; -556.000; -512.000
339.940;    5.075; -261.000; -235.000
340.074;  -98.950; -685.000; -510.000
340.209;  -57.800; -351.000; -230.000
340.343; -102.600; -517.000; -573.000
340.477;  140.075;  998.000; 1036.000
340.612;  -69.175;-1033.000; -900.000
340.746;  150.825; -199.000; -243.000
340.880;  -87.100; -924.000; -785.000
341.014;  -35.150;  -45.000; -154.000
341.149; -121.800; -756.000; -718.000
341.283; -116.375; -839.000; -754.000
341.417; -106.900;-1124.000; -938.000
341.551;  108.200; -768.000; -708.000
341.685;  -52.350; -633.000; -611.000
341.820;  -64.025; -562.000; -493.000
341.954;  -68.275; -218.000; -349.000
342.088; -146.550;-1102.000;-1019.000
342.222;   45.675;  565.000;  618.000
342.356;  -58.350; -395.000; -335.000
342.490; -111.325; -880.000; -841.000
342.624;  -51.000; -339.000; -242.000
342.758;  -19.400; -364.000; -312.000
342.892;  -71.100; -710.000; -585.000
343.026;  -62.000;  -58.000; -116.000
343.160;  -65.725; -426.000; -376.000
343.294;  -95.250; -474.000; -337.000
343.428;  -40.150; -488.000; -448.000
343.562;  -28.950; -172.000;  -23.000
343.696;  -46.400; -385.000; -314.000
343.830;  -35.450; -362.000; -356.000
343.964;    0.100; -231.000; -168.000
344.098;  836.750;  199.000;   70.000
344.232;  718.900; -266.000; -127.000
344.366;   74.775; -567.000; -453.000
344.500;   45.375; -665.000; -744.000
344.634;   10.200; -324.000; -164.000
344.768;  -25.150; -531.000; -341.000
344.902;    3.300;  278.000;  256.000
345.035;  -90.825; -556.000; -496.000
345.169; -140.725; -933.000; -656.000
345.303;  -34.850; -308.000; -482.000
345.437;  -79.400; -826.000; -717.000
345.571;  -73.400; -675.000; -594.000
345.704;  -83.625; -309.000; -532.000
345.838;  -27.000; -331.000; -284.000
345.972;  -63.875; -543.000; -495.000
346.106;  165.800; -179.000; -190.000
346.239;  392.425; -312.000; -243.000
346.373;   14.375; -343.000; -302.000
346.507; -150.400; -950.000; -962.000
346.640;  115.075;  -30.000;   13.000
346.774;  -55.575; -650.000; -797.000
346.908;  -22.525; -138.000;  -11.000
347.041;  -98.475; -646.000; -593.000
347.175;   -8.675;  259.000;   27.000
347.309;  -90.350; -698.000; -628.000
347.442; -103.350; -883.000; -732.000
347.576;  238.725;  670.000;  668.000
347.709;  158.900; -123.000;  -52.000
347.843; -125.200; -933.000; -825.000
347.976;   22.950;  235.000;  294.000
348.110; -187.600;-1268.000;-1186.000
348.243; -117.225; -679.000; -772.000
348.377;   -2.600;  -26.000;   60.000
348.510;   51.700;  403.000;  540.000
348.644;  -52.500;  -37.000; -159.000
348.777;  -12.575;  180.000;  191.000
348.911;  -61.250; -142.000; -112.000
349.044;  172.100;  471.000;  448.000
349.178;  127.950;-1069.000;-1006.000
349.311;  105.175;  141.000;  255.000
349.444;  -21.625; -927.000; -813.000
349.578;  -29.925; -347.000; -200.000
349.711; -122.675; -959.000; -862.000
349.845;  -13.050; -661.000; -591.000
349.978; -152.825;-1224.000;-1137.000
350.111;  -77.325; -546.000; -612.000
350.244;  -92.350; -596.000; -700.000
350.378;    5.500; -392.000; -393.000
350.511;  -91.325; -393.000; -426.000
350.644; -103.525; -808.000; -806.000
350.778;   -4.325;  168.000;  104.000
350.911;   -2.850;  134.000;  140.000
351.044; -103.975; -685.000; -615.000
351.177;  -32.900; -321.000; -281.000
351.310;  -30.725;    3.000; -131.000
351.444;  -86.175; -888.000; -788.000
351.577;   84.500;  140.000;   90.000
351.710;   86.100;  593.000;  417.000
351.843;  -31.975; -165.000;  -77.000
351.976;   -0.425;  149.000;  -79.000
352.109; -102.000; -621.000; -612.000
352.242;  -36.950; -464.000; -419.000
352.376;  -90.950; -580.000; -636.000
352.509;  134.800; -437.000; -356.000
352.642;  -19.275; -654.000; -604.000
352.775;   37.350; -141.000;  -98.000
352.908; -133.175; -933.000; -904.000
353.041;  -99.825; -814.000; -824.000
353.174;  -73.725; -551.000; -424.000
353.307;  -93.550; -753.000; -764.000
353.440;   64.575;  541.000;  453.000
353.573; -111.000; -957.000;-1008.000
353.706;  -78.650; -384.000; -558.000
353.839;  -22.050; -264.000; -220.000
353.971; -112.075; -657.000; -512.000
354.104;  -87.250; -896.000; -835.000
354.237;  -50.450; -627.000; -662.000
354.370;  -84.875; -846.000; -879.000
354.503; -199.725;-1231.000;-1308.000
354.636;  -48.200; -529.000; -348.000
354.769; -137.375; -937.000; -860.000
354.902;  -24.850; -230.000; -139.000
355.034;  -20.425; -164.000; -220.000
355.167;  -29.350; -262.000; -162.000
355.300; -102.200;-1061.000; -880.000
355.433;  978.275;  -71.000;  -14.000
355.565; 1522.600; -402.000; -384.000
355.698;  380.675; -356.000; -296.000
355.831;  -12.400; -882.000; -801.000
355.964;   65.375; -285.000; -170.000
356.096;  -96.600; -856.000; -843.000
356.229;   -9.950; -523.000; -530.000
356.362;  309.375; -373.000; -266.000
356.494;  603.600; -229.000; -162.000
356.627;  441.225;  269.000;  377.000
356.760;  666.450;  120.000;   53.000
356.892;  986.000; -286.000; -601.000
357.025;  606.125;  403.000;  389.000
357.157;  535.925; -167.000; -179.000
357.290;  699.275; -856.000; -713.000
357.423;  191.650; -667.000; -556.000
357.555;  115.025; -217.000; -228.000
357.688;  105.525; -483.000; -364.000
357.820;  445.050; -870.000; -877.000
357.953; 3567.450; -563.000; -589.000
358.085;  759.250; -632.000; -612.000
358.218;  985.375;-1131.000; -932.000
358.350;  193.675;  -58.000;  312.000
358.483; -144.125;-1300.000;-1187.000
358.615;  -38.850;-1182.000;-1078.000
358.747;  -78.850;-1187.000;-1058.000
358.880;   16.250; -810.000; -744.000
359.012;  -20.800; -376.000; -202.000
359.145;  -45.075; -480.000; -511.000
359.277;   37.275; -962.000; -913.000
359.409; 2952.425;  536.000;  231.000
359.542;  774.550; -738.000; -688.000
359.674;   55.750;   46.000;   13.000
359.806;  -81.075; -565.000; -438.000
359.939;  -39.575; -617.000; -516.000
360.071;  -29.600; -583.000; -579.000
360.203;  -17.950; -411.000; -364.000
360.335;   33.400;  164.000;  -16.000
360.468;  181.275; -249.000; -307.000
360.600; 2421.025; -547.000; -454.000
360.732; 2904.725; -546.000; -423.000
360.864;  405.800;-1216.000;-1044.000
360.996;  231.450; -516.000; -554.000
361.129;   29.600; -389.000; -598.000
361.261;   20.050;  110.000; -113.000
361.393;  -38.800; -252.000; -214.000
361.525;    6.250;   94.000;  244.000
361.657;  -49.800; -821.000; -703.000
361.789;    7.900; -139.000; -155.000
361.921;  159.425; -642.000; -593.000
362.053;  249.800;  524.000;  541.000
362.185;   30.100;  288.000;   72.000
362.318;  -78.050; -709.000; -705.000
362.450;   97.100;  294.000;  444.000
362.582;   55.450; -913.000; -870.000
362.714;  -56.575; -353.000; -332.000
362.846; -100.900; -606.000; -490.000
362.978; -154.175; -941.000; -811.000
363.109;   24.450; -161.000; -260.000
363.241;  381.400; -739.000; -749.000
363.373;  428.450; -649.000; -564.000
363.505;  667.900; -186.000;  -91.000
363.637;  156.500; -787.000; -601.000
363.769; -131.500;-1067.000;-1080.000
363.901;  -74.650; -596.000; -654.000
364.033; -138.850;-1103.000;-1062.000
364.165;  -11.275; -283.000; -283.000
364.296;   57.375; -316.000; -177.000
364.428;   67.775;-1344.000;-1220.000
364.560;  -87.175; -679.000; -661.000
364.692;  -76.425; -738.000; -835.000
364.824;  202.550; -588.000; -456.000
364.955;  437.975; -402.000; -564.000
365.087;  970.675;-1097.000; -852.000
365.219;   20.450; -686.000; -816.000
365.351;  -84.525; -526.000; -572.000
365.482;   44.375;  300.000;  240.000
365.614;  -65.650; -402.000; -314.000
365.746; -108.225; -729.000; -752.000
365.877; -104.800; -706.000; -672.000
366.009;  266.750;  -35.000;  -62.000
366.141; -104.575;-1249.000;-1134.000
366.272; -122.400; -803.000; -719.000
366.404; -126.325;-1005.000; -874.000
366.535;  -24.325; -139.000;  -12.000
366.667; -119.175; -644.000; -649.000
366.799;   22.425;  353.000;  203.000
366.930; -121.575; -862.000; -996.000
367.062;  113.100; -639.000; -613.000
367.193;  152.400; -872.000; -842.000
367.325;  -65.100; -580.000; -684.000
367.456;   10.275; -246.000;   31.000
367.588;  162.975; -371.000; -318.000
367.719;    5.700;  -44.000;  -45.000
367.851;  -27.575; -222.000; -241.000
367.982;  -77.875; -875.000; -732.000
368.113;   92.475; -475.000; -358.000
368.245; -127.125; -960.000; -841.000
368.376;  -39.325; -254.000; -302.000
368.508;  -57.325; -188.000; -263.000
368.639; -148.225;-1166.000;-1034.000
368.770;  -46.250; -670.000; -589.000
368.902;  -63.775; -836.000; -926.000
369.033; -123.125; -906.000; -855.000
369.164;  -51.125; -720.000; -653.000
369.296; -123.500; -452.000; -601.000
369.427;  -26.275; -209.000; -144.000
369.558;  -67.400; -593.000; -377.000
369.689; -100.275; -721.000; -569.000
369.821; -149.975; -951.000; -845.000
369.952;  -30.500;   42.000; -108.000
370.083;  -50.300; -229.000; -108.000
370.214;  -95.300; -735.000; -650.000
370.345;  -17.600;   65.000;   81.000
370.477;  -99.200; -810.000; -790.000
370.608;  199.025; -328.000; -264.000
370.739;  -66.725;-1233.000;-1292.000
370.870;  -60.275;-1102.000; -923.000
371.001;   67.150; -378.000; -467.000
371.132;  -91.925; -754.000; -735.000
371.263;  -40.625;  -42.000; -148.000
371.394; -144.175; -841.000; -748.000
371.525;   10.975;  345.000;  225.000
371.657; -103.250; -808.000; -670.000
371.788;   62.075;  103.000;  199.000
371.919;  123.525; -384.000; -304.000
372.050; 3478.150;  -91.000; -156.000
372.181; 1018.350; -188.000; -294.000
372.311;  334.425;   42.000; -127.000
372.442;   18.050; -457.000; -451.000
372.573;  -29.050; -444.000; -340.000
372.704; -139.075;-1008.000; -980.000
372.835;   61.975; -228.000; -289.000
372.966;  -89.700; -646.000; -554.000
373.097;  -70.450; -575.000; -711.000
373.228;  -64.775; -717.000; -542.000
373.359;  114.025; -824.000; -536.000
373.490;  849.400; -881.000; -727.000
373.620; 1075.600;-1001.000; -803.000
373.751; 1663.350; -332.000; -396.000
373.882;  720.150; -663.000; -733.000
374.013;   27.975; -449.000; -262.000
374.143;  -44.225; -581.000; -659.000
374.274; -124.300; -987.000; -908.000
374.405;  156.775; -388.000; -276.000
374.536;  377.400; -526.000; -387.000
374.666; 1020.225; -759.000; -807.000
374.797;  196.675; -817.000; -868.000
374.928;  790.875; -710.000; -560.000
375.058;  816.200; -535.000; -500.000
375.189;   84.875;  -59.000;  -93.000
375.320; -121.725; -928.000;-1034.000
375.450;  -44.975; -625.000; -616.000
375.581;  -61.575; -526.000; -436.000
375.712;  -40.700; -574.000; -250.000
375.842;  280.175; -438.000; -415.000
375.973;  188.300; -554.000; -513.000
376.103;  -59.075; -665.000; -648.000
376.234;  -93.600; -531.000; -552.000
376.364;  -55.625; -944.000; -867.000
376.495;  294.400;  925.000;  529.000
376.625;  -40.350; -472.000; -485.000
376.756;   31.375; -709.000; -678.000
376.886;  -91.850;-1178.000;-1026.000
377.017;   47.650;-1048.000;-1061.000
377.147;  356.475; -786.000; -782.000
377.278;   61.125;  174.000;  228.000
377.408; -135.350; -801.000; -815.000
377.538; -111.850; -707.000; -693.000
377.669;  -91.825; -537.000; -613.000
377.799; -107.250; -645.000; -635.000
377.929;  -74.350; -610.000; -428.000
378.060; -145.625; -781.000; -847.000
378.190;  -61.725; -726.000; -531.000
378.320;  -55.700; -401.000; -406.000
378.451;  -24.625; -131.000;  -22.000
378.581;  -19.750;  -67.000; -110.000
378.711;  137.825; 1035.000;  866.000
378.841;  -35.550; -533.000; -675.000
378.972; -108.500; -871.000; -751.000
379.102;  -20.050; -652.000; -579.000
379.232;  -40.450; -126.000;  -73.000
379.362; -115.300;-1001.000; -885.000
379.492;  -24.475; -373.000; -424.000
379.623;   96.375;    0.000;  111.000
379.753; -114.775;-1107.000; -974.000
379.883;  162.775;   59.000;  156.000
380.013;  -17.375;-1081.000;-1017.000
380.143; -118.750;-1097.000;-1056.000
380.273; -120.775; -985.000; -861.000
380.403;  -15.000; -344.000; -257.000
380.533;  -50.675; -651.000; -664.000
380.663;   55.175;  173.000;  128.000
380.793; -108.825;-1027.000;-1074.000
380.923;  -27.325; -103.000;  -34.000
381.053; -113.300; -613.000; -623.000
381.183;  -46.525; -106.000; -248.000
381.313;   12.225; -656.000; -470.000
381.443;   22.550; -692.000; -473.000
381.573;  177.200; -402.000; -409.000
381.703;  218.850;-1249.000;-1095.000
381.833; -152.225;-1454.000;-1336.000
381.963;  101.450; -134.000;  -87.000
382.093; 1321.675; -925.000; -909.000
382.223;  400.125; -713.000; -602.000
382.353;  -19.900; -801.000; -608.000
382.482;  305.750;-1091.000; -964.000
382.612;  709.300; -872.000; -644.000
382.742;  393.875; -695.000; -622.000
382.872;  206.175; -565.000; -551.000
383.002;   38.600;  347.000; -132.000
383.131;  -35.525; -226.000; -160.000
383.261;  -48.800; -706.000; -768.000
383.391;  281.500; -552.000; -377.000
383.521; 3309.175;  451.000;  263.000
383.650;  801.400; -947.000; -904.000
383.780;  -19.225; -783.000; -656.000
383.910;   93.250;  880.000;  802.000
384.039;    9.075; -794.000; -656.000
384.169;  165.575;-1205.000;-1017.000
384.299;  -39.075; -650.000; -662.000
384.428; -107.950; -764.000; -680.000
384.558;  -63.000; -308.000; -275.000
384.687;  -53.100; -414.000; -334.000
384.817;    9.375;   75.000;   -2.000
384.947;    1.300; -234.000; -141.000
385.076;  269.475;  982.000;  912.000
385.206;   75.625;  369.000;  480.000
385.335;  -45.000; -549.000; -417.000
385.465; -103.050; -655.000; -663.000
385.594;  114.500;  -53.000;  -44.000
385.724;  360.850; -868.000; -838.000
385.853;   93.375; -296.000; -270.000
385.982; 1266.525; -743.000; -787.000
386.112; 2031.450;-1052.000; -871.000
386.241;  119.075; -307.000; -312.000
386.371;   13.775; -174.000;  -87.000
386.500;  -31.375; -825.000; -789.000
386.629;   -0.750; -874.000; -817.000
386.759;   51.150;  -43.000;   68.000
386.888;  -32.800; -170.000; -250.000
387.017;  -93.375; -648.000; -620.000
387.147;  -99.750; -771.000; -798.000
387.276;  -25.400; -410.000; -397.000
387.405;   -5.450; -398.000; -342.000
387.535;  -58.850; -452.000; -361.000
387.664;  -75.300; -692.000; -620.000
387.793;   34.525; -198.000; -113.000
387.922;  472.050;  255.000;  200.000
388.052;  -17.075; -576.000; -423.000
388.181;  -18.625; -342.000; -472.000
388.310;  -33.550; -889.000; -710.000
388.439;  -62.500; -749.000; -742.000
388.568;  158.175;  365.000;  244.000
388.697;  962.400; -756.000; -653.000
388.826;  181.150; -768.000; -666.000
388.956;   37.825; -285.000; -307.000
389.085;  -52.375; -347.000; -287.000
389.214; -112.425; -842.000; -872.000
389.343;  -74.150; -645.000; -413.000
389.472;  405.350;  126.000;  149.000
389.601;  497.750;   91.000;    0.000
389.730;   10.550; -568.000; -687.000
389.859;   48.450;  226.000;   46.000
389.988;  160.625; -423.000; -408.000
390.117;  109.125; -168.000; -146.000
390.246;  -38.700; -331.000; -320.000
390.375;   77.175; -673.000; -626.000
390.504;  -73.475; -703.000; -621.000
390.633; -108.900; -672.000; -726.000
390.761;  -85.675; -732.000; -645.000
390.890;   -2.150;   -4.000; -130.000
391.019;  -30.625; -421.000; -441.000
391.148; -130.375; -826.000; -855.000
391.277;  -82.500; -576.000; -493.000
391.406; -108.125; -821.000; -805.000
391.534;   17.675;  574.000; -301.000
391.663;  -74.325; -583.000; -645.000
391.792; -101.075; -673.000; -701.000
391.921;   71.050;   -3.000;   15.000
392.050;  149.100; -287.000; -228.000
392.178;  -68.650;-1206.000;-1061.000
392.307;  127.700; -758.000; -712.000
392.436;   38.350; -427.000; -641.000
392.564;    3.325;  166.000;   -6.000
392.693;  -99.475; -860.000; -682.000
392.822;  166.150; -529.000; -534.000
392.950;   77.150; -880.000; -714.000
393.079;  279.575; -188.000; -328.000
393.208;  -12.425; -488.000; -511.000
393.336;  -19.675; -170.000; -145.000
393.465;  -66.475; -317.000; -199.000
393.593;   -4.175;   62.000;   79.000
393.722; -157.750;-1121.000; -916.000
393.850;  -33.850; -188.000;  -61.000
393.979; -166.175; -926.000; -805.000
394.107;  -78.175; -517.000; -537.000
394.236;  -35.825; -570.000; -507.000
394.364;  192.225;  383.000;  206.000
394.493;  300.700; -911.000; -767.000
394.621;  -20.275; -955.000; -916.000
394.750;  708.700; -873.000; -923.000
394.878; 3002.450; -247.000; -149.000
395.007; 4104.150; -721.000; -807.000
395.135;  302.575; -790.000; -721.000
395.263;  -96.075;-1038.000;-1040.000
395.392;   -4.800;  -25.000; -107.000
395.520; -156.500; -818.000; -679.000
395.648; -102.475; -865.000; -915.000
395.777;  -39.300; -366.000; -405.000
395.905;  -59.425; -449.000; -564.000
396.033;  -11.550;  217.000;  172.000
396.162;  517.050; -399.000; -453.000
396.290;  441.575;  -17.000;   -2.000
396.418;   68.375; -555.000; -514.000
396.546;  -82.100; -571.000; -466.000
396.674;  -96.750; -850.000; -878.000
396.803;  -18.025;  -72.000;  -23.000
396.931;   67.150; -179.000; -199.000
397.059;   18.350;-1026.000; -989.000
397.187; -120.275;-1026.000; -975.000
397.315; -147.000; -884.000; -649.000
397.443; -105.625; -592.000; -443.000
397.572; -103.150; -578.000; -424.000
397.700;  -18.425; -607.000; -614.000
397.828;    2.750;  120.000;  -90.000
397.956;  -60.150; -508.000; -478.000
398.084;  -83.650; -767.000; -626.000
398.212;   25.175;  137.000;  124.000
398.340;   -3.950;  -56.000;  159.000
398.468;   14.025; -390.000; -169.000
398.596; -150.575; -993.000; -953.000
398.724; -121.950; -762.000; -767.000
398.852; -180.250;-1024.000; -976.000
398.980;  -80.475; -560.000; -560.000
399.108;  -73.725; -982.000; -735.000
399.236;   14.750;   13.000;    8.000
399.363;   -4.275;  222.000;  196.000
399.491;  -81.350; -404.000; -398.000
399.619; -141.525; -829.000; -800.000
399.747; -109.475; -859.000; -771.000
399.875;   64.825;  220.000;  234.000
400.003;  -62.625; -359.000; -284.000
400.130; -106.475; -421.000; -341.000
400.258;  -40.100;  -83.000;   38.000
400.386;  -75.100; -352.000; -168.000
400.514;  -57.700; -526.000; -587.000
400.641; -119.350; -928.000; -802.000
400.769; -145.675; -979.000; -888.000
400.897; -135.400; -838.000; -793.000
401.025;  -23.000; -166.000; -152.000
401.152;   -7.325;  220.000;   38.000
401.280;  -88.350; -430.000; -429.000
401.408; -131.725; -712.000; -576.000
401.535; -110.575; -735.000; -758.000
401.663; -207.800;-1134.000;-1054.000
401.790;  -98.225; -514.000; -525.000
401.918;   22.050;  436.000;  405.000
402.046;  -29.675;  134.000;  122.000
402.173;  -51.825;  -18.000;    7.000
402.301;  -81.200; -519.000; -397.000
402.428;   27.700;  528.000;  383.000
402.556; -144.425;-1188.000; -913.000
402.683;  -51.150;  -20.000;   -1.000
402.811;  -28.125;  -37.000; -206.000
402.938;  -24.875;   20.000;   27.000
403.066;  163.050; -574.000; -558.000
403.193;  295.650;  299.000;  239.000
403.321;  232.900; -396.000; -574.000
403.448;  285.525;   83.000;   27.000
403.575;  133.100;  -90.000;  -46.000
403.703; -118.525; -732.000; -557.000
403.830;  -77.975; -531.000; -496.000
403.957; -162.625;-1117.000;-1023.000
404.085;    3.625;  -61.000; -172.000
404.212;   80.200;  -50.000;   63.000
404.339;  260.725; -566.000; -306.000
404.467; 5875.875; -612.000; -524.000
404.594; 3857.375; -287.000; -227.000
404.721;  852.650; -869.000; -764.000
404.848;   87.450; -113.000; -202.000
404.976; -114.675; -856.000; -783.000
405.103;  -26.375;  -14.000;  -82.000
405.230;   -9.350;  190.000;  226.000
405.357;   12.875;  117.000;   44.000
405.484;  245.275;  -49.000;    5.000
405.612;   36.250; -548.000; -563.000
405.739;  -75.675; -488.000; -243.000
405.866;   68.975;  669.000;  385.000
405.993;  -61.750; -398.000; -102.000
406.120; -139.400; -801.000; -887.000
406.247;  -73.750; -323.000; -342.000
406.374;  388.325;  540.000;  629.000
406.501;   57.200; -632.000; -702.000
406.628;  -85.525; -621.000; -589.000
406.755; -119.750; -803.000; -620.000
406.882;  -51.525; -228.000; -277.000
407.009; -116.850; -719.000; -628.000
407.136;   28.825; -480.000; -401.000
407.263;  106.975; -939.000; -829.000
407.390;  -72.250; -692.000; -614.000
407.517; -186.400;-1139.000;-1187.000
407.644;  -63.250; -332.000; -256.000
407.771;  -83.825; -249.000; -287.000
407.898;    9.350;  168.000;  328.000
408.025;  -81.025; -421.000; -313.000
408.151;  -24.975;   82.000;  153.000
408.278;  -81.425; -267.000; -216.000
408.405; -124.575; -931.000; -899.000
408.532;  -94.525; -549.000; -542.000
408.659; -127.625; -677.000; -648.000
408.785; -216.025;-1298.000;-1170.000
408.912;  -71.350; -412.000; -296.000
409.039; -127.250; -610.000; -686.000
409.166; -115.550; -591.000; -555.000
409.292; -122.825; -571.000; -534.000
409.419; -127.650; -665.000; -649.000
409.546;  -98.850; -431.000; -192.000
409.672; -108.550; -713.000; -545.000
409.799;  -36.200;  -36.000;   34.000
409.926;  -42.200; -180.000; -179.000
410.052; -182.675;-1127.000;-1091.000
410.179;  -68.025; -368.000; -392.000
410.305;  -96.650; -375.000; -493.000
410.432;  -58.700; -220.000; -333.000
410.558;  -96.800; -305.000; -380.000
410.685; -105.175; -688.000; -431.000
410.812; -106.400; -409.000; -588.000
410.938; -144.025; -964.000; -808.000
411.065; -118.700; -671.000; -645.000
411.191;  -27.175; -189.000; -174.000
411.317; -132.575; -823.000; -742.000
411.444;  -70.425; -317.000; -246.000
411.570;  -89.225; -339.000; -294.000
411.697; -131.000; -758.000; -752.000
411.823; -192.200; -989.000; -999.000
411.949;  -43.300;  -56.000;   17.000
412.076; -127.500; -539.000; -519.000
412.202; -131.325; -758.000; -757.000
412.329; -139.675; -798.000; -752.000
412.455; -128.750; -821.000; -657.000
412.581;  -42.125;  -15.000;  172.000
412.707;  -74.375; -540.000; -457.000
412.834;    0.150;  156.000;  219.000
412.960;  -85.950; -785.000; -784.000
413.086; -112.325; -743.000; -701.000
413.212;  132.850;  604.000;  578.000
413.339;  -80.550; -685.000; -701.000
413.465;   -7.100; -364.000; -310.000
413.591; -105.275; -757.000; -474.000
413.717;  -72.550; -358.000; -366.000
413.843; -143.100; -839.000; -861.000
413.969;  -56.300;  -47.000; -292.000
414.096; -112.975; -679.000; -679.000
414.222;  -16.400;  -33.000;   85.000
414.348;  -53.825; -652.000; -385.000
414.474;   82.850;   38.000;  -52.000
414.600;  -28.000; -126.000; -144.000
414.726;  -14.300;  -96.000;  -55.000
414.852;  -73.525; -365.000; -342.000
414.978;   18.150;  104.000;  -18.000
415.104;   23.200;   38.000;   80.000
415.230;    6.525; -329.000; -330.000
415.356;   41.175; -409.000; -514.000
415.482;  188.675;   13.000;  -35.000
415.608;  248.425; -247.000; -323.000
415.734;  971.600;   67.000;   38.000
415.860;20061.875; -875.000; -767.000
415.986;14937.425; -685.000; -607.000
416.111; 1274.525; -798.000; -652.000
416.237;  245.950; -424.000; -571.000
416.363; 1133.950; -765.000; -733.000
416.489; 4327.175; -324.000; -251.000
416.615;  471.875; -707.000; -742.000
416.741;  -20.150; -677.000; -784.000
416.866; -113.900; -673.000; -736.000
416.992; -148.425; -801.000; -818.000
417.118;  -36.650;  -41.000;  -80.000
417.244;  -64.450; -798.000; -531.000
417.369;  -98.325; -801.000; -612.000
417.495;  -17.200; -325.000; -254.000
417.621; -107.350;-1015.000; -803.000
417.746;   -5.975; -579.000; -572.000
417.872;   32.625; -254.000; -144.000
417.998;   39.675; -515.000; -530.000
418.123; 1061.400;-1073.000; -845.000
418.249; 5552.100; -512.000; -601.000
418.374;  798.225; -916.000; -824.000
418.500;  108.250; -383.000; -482.000
418.626;  119.975;   70.000;  -59.000
418.751;  109.925; -549.000; -448.000
418.877;  184.250; -637.000; -643.000
419.002; 1791.800; -688.000; -560.000
419.128;12905.450; -930.000; -721.000
419.253; 3247.175; -967.000; -837.000
419.379;  408.100; -391.000; -338.000
419.504;  379.875;  325.000;  415.000
419.629;  511.750; -393.000; -212.000
419.755; 3603.575; -317.000; -254.000
419.880;21994.375;  -98.000;   67.000
420.006;11665.225; -280.000; -221.000
420.131;30211.425; -662.000; -775.000
420.256; 4418.975; -315.000; -316.000
420.382;  576.175; -665.000; -687.000
420.507;   75.325; -649.000; -778.000
420.632;   87.450; -337.000; -339.000
420.758;  216.150; -251.000; -425.000
420.883;  -85.350; -876.000; -672.000
421.008; -107.400; -775.000; -619.000
421.133;  -97.625; -509.000; -467.000
421.259;  -60.125; -325.000; -259.000
421.384; -131.450; -834.000; -693.000
421.509;  -66.775;-1052.000; -862.000
421.634;  995.925; -936.000; -820.000
421.759;  439.200; -359.000; -327.000
421.885;  -67.000; -717.000; -656.000
422.010;  -82.450; -673.000; -542.000
422.135; -156.425; -695.000; -727.000
422.260;   28.250;  340.000;  280.000
422.385;  -49.300;   12.000;  -98.000
422.510;   -4.700;  151.000;  -26.000
422.635;    5.375;  -87.000;  -43.000
422.760;  101.550; -766.000; -791.000
422.885;   41.675;  -57.000;  -80.000
423.010;  -41.625; -112.000; -169.000
423.135; -114.625; -481.000; -561.000
423.260;  -27.125; -150.000; -245.000
423.385;   41.700;  476.000;  222.000
423.510;   10.350;   71.000;  -22.000
423.635;   55.650;  133.000;   45.000
423.760;   29.725;  383.000;  328.000
423.885;   38.550;  336.000;  391.000
424.010;    6.500;  -68.000;  -13.000
424.135;  -34.625;    5.000;  -33.000
424.259;  -94.725; -654.000; -457.000
424.384;  -73.275; -279.000; -272.000
424.509;  -36.875; -260.000; -186.000
424.634; -114.700; -761.000; -623.000
424.759;  -31.300; -688.000; -544.000
424.883;  -22.400; -506.000; -527.000
425.008;  165.025; -502.000; -410.000
425.133; 2016.675; -679.000; -653.000
425.258;  972.550; -517.000; -381.000
425.382;  953.600; -867.000; -774.000
425.507; 2535.725; -487.000; -543.000
425.632;  417.900; -802.000; -663.000
425.756;  474.675; -256.000; -146.000
425.881; 6728.900; -831.000; -857.000
426.006;18724.425; -604.000; -355.000
426.130; 2941.250; -696.000; -508.000
426.255;  376.850; -611.000; -491.000
426.379;  156.350; -189.000; -577.000
426.504;  375.400;  660.000;  544.000
426.629; 4044.675; -519.000; -466.000
426.753; 2899.175;   64.000;  -46.000
426.878;  322.825; -252.000; -288.000
427.002;  133.450; -651.000; -668.000
427.127; 1578.350;  -35.000; -158.000
427.251;11675.675;  372.000;  401.000
427.375; 3385.300; -191.000; -173.000
427.500; 2197.300; -616.000; -610.000
427.624;  753.450; -234.000; -400.000
427.749;   79.450; -216.000; -225.000
427.873;  -51.950; -499.000; -412.000
427.997;  -43.475; -222.000; -230.000
428.122;   67.700;  795.000;  703.000
428.246;   69.925;  433.000;  434.000
428.371; -149.125; -869.000; -773.000
428.495; -104.750; -624.000; -646.000
428.619;  -56.550; -186.000; -117.000
428.743;   11.700;   65.000;  132.000
428.868;   -6.700; -732.000; -643.000
428.992; 1330.725; -219.000; -326.000
429.116;  529.000; -329.000; -357.000
429.240;  242.675;  419.000;  426.000
429.365;  -44.300; -454.000; -574.000
429.489;  -49.900; -638.000; -647.000
429.613;   -1.850; -236.000; -177.000
429.737;   12.800; -563.000; -432.000
429.861;  240.550; -247.000; -133.000
429.985; 5594.825; -425.000; -305.000
430.109; 6313.325; -770.000; -908.000
430.234;  740.925;   76.000;  -50.000
430.358;   49.850; -250.000; -160.000
430.482;  -83.075; -672.000; -564.000
430.606;  -82.925; -655.000; -375.000
430.730;  -15.800; -437.000; -388.000
430.854;   68.675; -909.000; -835.000
430.978;  -84.300; -795.000; -764.000
431.102; -101.875; -499.000; -422.000
431.226; -139.675; -874.000; -815.000
431.350;   15.700;  345.000;  422.000
431.474;  -82.700; -661.000; -373.000
431.597; -180.925;-1060.000; -848.000
431.721; -103.750; -276.000; -267.000
431.845; -140.375; -704.000; -472.000
431.969;  -69.300; -304.000; -349.000
432.093; -109.850; -395.000; -317.000
432.217;  -24.025;   32.000;   82.000
432.341; -101.800; -523.000; -518.000
432.464;   -7.575;   96.000;   40.000
432.588;  158.325; -401.000; -329.000
432.712;   80.000;  -52.000;  -52.000
432.836;   25.700;  213.000;  263.000
432.959;  -10.650; -372.000; -311.000
433.083;   74.000;   11.000;    2.000
433.207;  364.525;  285.000;  930.000
433.330; 5144.125; -391.000; -200.000
433.454; 6493.675; -654.000; -638.000
433.578; 3671.075;  583.000;  278.000
433.701;  694.950; -623.000; -675.000
433.825;  107.000; -292.000; -299.000
433.949;  134.875;   28.000;  -72.000
434.072;   29.325; -410.000; -323.000
434.196;  -28.250; -309.000; -117.000
434.319; 3645.875;25482.000;25124.000
434.443;  710.775; -656.000; -603.000
434.566; 2752.650;  281.000;   62.000
434.690;  457.800; -637.000; -383.000
434.813;   27.525; -251.000; -173.000
434.937;  -79.875; -569.000; -696.000
435.060;  -63.475; -423.000; -332.000
435.184;  242.850; -492.000; -217.000
435.307;  120.925;  159.000;  102.000
435.431;  -22.575;  -40.000;   24.000
435.554;  -87.350; -399.000; -240.000
435.677;  -90.150; -350.000; -258.000
435.801;  -60.725;  -25.000;   49.000
435.924;  -32.550;    1.000;  -67.000
436.048; -127.000;-1019.000; -732.000
436.171;  -72.500; -240.000;  -66.000
436.294;  -47.575; -248.000; -229.000
436.417;   84.800; -963.000; -849.000
436.541; -100.300; -814.000; -840.000
436.664;  -49.525; -242.000; -316.000
436.787;  -32.700;   13.000;  113.000
436.910; -132.775; -792.000; -422.000
437.034;  -15.075;  142.000;  143.000
437.157;   21.875;  -11.000;    0.000
437.280;  -81.075; -392.000; -292.000
437.403; -107.700; -982.000; -869.000
437.526;  505.625; -903.000; -865.000
437.649; 1951.950; -505.000; -332.000
437.772;  280.950; -692.000; -540.000
437.896;   97.500;  700.000;  544.000
438.019; -113.225; -758.000; -503.000
438.142;  -97.225; -596.000; -506.000
438.265;  -37.175; -639.000; -670.000
438.388;  473.650; -520.000; -410.000
438.511;   61.525; -597.000; -394.000
438.634;  -59.775; -247.000; -125.000
438.757; -143.075; -693.000; -619.000
438.880;  -34.150;  -34.000;  -57.000
439.003;  -94.650; -417.000; -437.000
439.126;  -86.925; -287.000; -167.000
439.248;  -70.725;  -98.000; -139.000
439.371;  -48.775;    9.000;  -53.000
439.494;   -7.975;  510.000;  439.000
439.617;  -60.800;   65.000;  -88.000
439.740; -190.775; -968.000; -816.000
439.863; -137.150; -755.000; -595.000
439.986; -134.575; -476.000; -431.000
440.108;  -55.100; -161.000; -112.000
440.231; -184.175; -950.000; -836.000
440.354;  -49.250;  -64.000; -150.000
440.477;   -1.075; -566.000; -542.000
440.599;  -25.250; -200.000; -225.000
440.722; -135.150; -709.000; -586.000
440.845;   62.550;  751.000;  928.000
440.968; -126.650; -415.000; -311.000
441.090;  -84.850; -199.000;  -33.000
441.213; -184.475;-1021.000; -825.000
441.336;  -52.725; -159.000;   -5.000
441.458; -103.600; -549.000; -396.000
441.581;  -97.100; -628.000; -629.000
441.703;  -72.650; -152.000;   13.000
441.826; -118.325; -557.000; -400.000
441.948;  -67.550;   56.000;   51.000
442.071;   12.500;  555.000;  424.000
442.193; -114.425; -531.000; -485.000
442.316;    3.800;  152.000;   97.000
442.438;   30.425; -233.000;  -10.000
442.561;   53.100;  272.000;  262.000
442.683;  431.850; -809.000; -522.000
442.806;  989.500;   -8.000;   74.000
442.928;   -7.700; -859.000; -604.000
443.051;  -88.700; -577.000; -373.000
443.173; -101.750; -341.000; -339.000
443.295; -103.100; -263.000; -371.000
443.418;  -88.125; -321.000;  -29.000
443.540;  -25.200; -106.000;   -4.000
443.662; -141.425; -563.000; -465.000
443.785;  -20.975;  335.000;  199.000
443.907; -104.050; -362.000; -208.000
444.029; -132.100; -767.000; -494.000
444.152; -162.425; -644.000; -554.000
444.274;  -37.850;  -18.000;  -24.000
444.396; -124.400; -461.000; -221.000
444.518; -140.700; -691.000; -454.000
444.640; -115.375; -268.000; -111.000
444.763;  -27.575;  388.000;  249.000
444.885; -126.625; -432.000; -392.000
445.007;  -39.575;   35.000;   86.000
445.129; -131.050; -610.000; -515.000
445.251;  -99.250; -372.000; -439.000
445.373; -151.675; -537.000; -386.000
445.495;   12.500;  242.000;  350.000
445.617;   40.525;  853.000;  753.000
445.739;  -72.625; -215.000;  -97.000
445.861;  -39.975; -245.000; -112.000
445.984;  -36.975; -267.000; -101.000
446.105;  148.200; -418.000; -251.000
446.227;  517.575; -176.000;  -19.000
446.349;  -20.450; -358.000; -249.000
446.471; -107.275; -615.000; -448.000
446.593;  -91.475; -316.000;   19.000
446.715;   -7.600;  -67.000;   41.000
446.837;   51.275;  697.000;  832.000
446.959; -101.725; -457.000; -478.000
447.081; -144.575; -628.000; -518.000
447.203;   48.300;  862.000;  834.000
447.325;  -98.550; -270.000;   42.000
447.446;   -8.350;  286.000;  530.000
447.568; -167.700; -921.000; -803.000
447.690;  -86.875; -236.000; -245.000
447.812; -162.250; -798.000; -519.000
447.933;  -42.350;  155.000;  127.000
448.055;  -71.675; -306.000; -261.000
448.177;  119.425;   31.000;   79.000
448.299;   45.300; -935.000; -727.000
448.420;   16.775;  -25.000;  159.000
448.542;  -61.000;   -3.000;   33.000
448.664;  -25.775;  109.000;  322.000
448.785;  -36.100;  265.000;   83.000
448.907;  -94.125; -614.000; -353.000
449.028;  -52.200; -771.000; -471.000
449.150;   61.500;  492.000;  589.000
449.272; -208.675;-1044.000; -913.000
449.393;   13.875;  612.000;  694.000
449.515; -152.475; -634.000; -581.000
449.636;  -69.925; -264.000; -155.000
449.758;   47.200;  763.000;  622.000
449.879;  -97.300; -498.000; -396.000
450.001;  -92.500; -149.000;  -49.000
450.122;  -50.900;  -95.000;  162.000
450.244;  -34.975;   37.000;  364.000
450.365;  -97.750; -495.000; -301.000
450.486;  -28.725;   80.000;  268.000
450.608;    3.625;  393.000;  326.000
450.729;   70.775;  578.000;  645.000
450.850;    1.250; -574.000; -466.000
450.972;  751.525; -552.000; -389.000
451.093; 5088.725;  190.000;  588.000
451.214; 2289.500; -516.000; -337.000
451.336;  402.250;  773.000;  579.000
451.457;   58.100;  264.000;  393.000
451.578;  -34.100; -118.000;  -74.000
451.699; -137.800; -546.000; -540.000
451.821;  -77.325; -284.000;  -50.000
451.942;  -15.425;  278.000;  285.000
452.063;   36.200;  228.000;  419.000
452.184;  560.250;  -54.000;  -49.000
452.305; 1140.925;  103.000;  170.000
452.427;  111.600; -549.000; -301.000
452.548;  -11.800;   23.000;   79.000
452.669;  -74.900; -257.000;  -89.000
452.790;  -59.225;    3.000;  -18.000
452.911;  -13.050;  195.000;  259.000
453.032;  -68.625; -289.000;  -60.000
453.153;  -54.700;  -29.000;   81.000
453.274;   49.775;  737.000;  868.000
453.395;  -61.450;  -51.000;  175.000
453.516;  118.050; 1317.000; 1388.000
453.637;  -71.075; -205.000; -150.000
453.758;  -65.175;   15.000;   69.000
453.879; -125.825; -462.000; -250.000
454.000;   67.750; 1086.000;  948.000
454.121; -134.050; -554.000; -326.000
454.242; -115.725; -599.000; -383.000
454.362;  -65.175;  -99.000;  114.000
454.483;  -44.450; -309.000; -229.000
454.604;   35.200;  512.000;  580.000
454.725; -146.625; -627.000; -555.000
454.846; -135.700; -474.000; -406.000
454.967;  -37.975;  230.000;  539.000
455.087;  -49.675;  179.000;  153.000
455.208;   12.975;  554.000;  856.000
455.329;  -68.050;  -22.000;   82.000
455.450;   33.050;  473.000;  633.000
455.570;  -99.725; -234.000; -211.000
455.691;  -44.550;  201.000;  407.000
455.812; -112.700; -270.000;  -92.000
455.932;  -67.300;  107.000;  -97.000
456.053;  -97.150;   36.000;   24.000
456.173; -115.975; -433.000; -355.000
456.294; -143.925; -476.000; -303.000
456.415;  -65.650;  -73.000;   70.000
456.535;  -39.400;  297.000;  273.000
456.656;  -55.350;  132.000;  240.000
456.776;  -97.950;    3.000;  298.000
456.897;  -12.375;  308.000;  513.000
457.017;  -93.750; -153.000;   -3.000
457.138; -114.975; -402.000; -249.000
457.258;  -30.800;  263.000;  224.000
457.379;  -14.825;  509.000;  521.000
457.499;  -43.725;  443.000;  432.000
457.620; -134.200; -407.000; -231.000
457.740; -106.375; -132.000;  -11.000
457.860;  -69.150;   87.000;   44.000
457.981;  -74.650;  132.000;  124.000
458.101;  -85.400;  -89.000;   40.000
458.221;  -44.925;  336.000;  402.000
458.342;  -70.675;   -4.000;  -37.000
458.462;   18.075;  617.000;  352.000
458.582;  -32.400; -302.000; -294.000
458.703;   -6.925;  303.000;  154.000
458.823;  -29.000;   22.000;  163.000
458.943;    8.650;  341.000;  467.000
459.063;  -13.225; 1124.000;  192.000
459.183;  -37.100;  328.000;  313.000
459.304;   -4.200;  315.000;  517.000
459.424;  -70.125; -246.000;  -89.000
459.544;  329.200;  388.000;  764.000
459.664;  837.225;  499.000;  506.000
459.784;  326.100; 1004.000; 1175.000
459.904;   52.150;  867.000;  744.000
460.024;   65.650;  867.000;  684.000
460.144;   -8.575;  449.000;  554.000
460.264;   -6.725;  515.000;  327.000
460.385;  -99.375; -145.000; -119.000
460.505;   31.400;  905.000;  858.000
460.625; -110.875;  -17.000;  -68.000
460.745;  -24.050;  396.000;  541.000
460.864;  -55.100;  153.000;  469.000
460.984;    9.000;  499.000;  573.000
461.104;  125.250; 1656.000; 1775.000
461.224;    9.350;  657.000;  650.000
461.344;  -37.925;  431.000;  360.000
461.464;  -32.950;  258.000;  513.000
461.584;  -26.075;  283.000;  466.000
461.704;  -53.125;   58.000;  108.000
461.824;  -67.625;  238.000;  259.000
461.943;  -47.975;  191.000;  130.000
462.063; -102.225;    2.000;  324.000
462.183;   14.725;  639.000;  717.000
462.303;   95.600; 1678.000; 1230.000
462.422;   24.100;  781.000;  840.000
462.542;  -37.625;  271.000;  391.000
462.662;   25.150;  353.000;  380.000
462.782;  229.250;  833.000;  572.000
462.901;  469.900;  545.000;  717.000
463.021;  271.400; 1702.000; 1638.000
463.141;   -5.350;  337.000;  770.000
463.260;  -39.825;  614.000;  474.000
463.380;   27.700;  902.000;  884.000
463.499;  -64.175;  342.000;  332.000
463.619;  -45.150;  581.000;  559.000
463.738;  101.775; 1644.000;  903.000
463.858;    9.875;  657.000;  811.000
463.978;  -36.900;  542.000;  396.000
464.097;   48.375;  921.000; 1114.000
464.217;  115.900; 1196.000; 1143.000
464.336;  121.175; 1068.000; 1130.000
464.455;  -44.900;  328.000;  659.000
464.575;   38.225;  597.000;  602.000
464.694;  145.925; 1204.000; 1179.000
464.814;  106.375; 1190.000; 1138.000
464.933;   73.100; 1095.000; 1027.000
465.052;   97.200; 1412.000; 1054.000
465.172;   68.975;  922.000;  799.000
465.291;  132.225; 1376.000; 1320.000
465.410;    5.075;  462.000;  735.000
465.530;   70.150; 1355.000; 1310.000
465.649;   55.675; 1209.000; 1273.000
465.768;  127.275; 1673.000; 1508.000
465.888;   45.150;  941.000; 1174.000
466.007;   92.825; 1335.000; 1440.000
466.126;  -14.900;  721.000;  641.000
466.245;   23.600; 1176.000; 1187.000
466.364;   10.350;  950.000; 1060.000
466.484;   56.825; 1024.000; 1213.000
466.603;   19.775; 1101.000; 1222.000
466.722;  113.625; 1490.000; 1769.000
466.841;   75.250; 1151.000; 1401.000
466.960;   32.000; 1069.000;  972.000
467.079;  109.650; 1971.000; 1786.000
467.198;   42.150; 1238.000; 1181.000
467.317;   76.425; 1768.000; 1162.000
467.436;   63.450; 1709.000; 1261.000
467.555;  112.300; 1796.000; 1746.000
467.674;   69.050; 1227.000; 1329.000
467.793;   41.975; 1376.000; 1374.000
467.912;   92.650; 1658.000; 1539.000
468.031;  124.350; 2038.000; 1930.000
468.150;  130.450; 1842.000; 1837.000
468.269;  173.325; 2313.000; 2090.000
468.388;  163.925; 2168.000; 2339.000
468.507;  238.675; 2884.000; 2903.000
468.626;  261.075; 2555.000; 2541.000
468.744;  125.000; 2018.000; 2174.000
468.863;  185.725; 2312.000; 2523.000
468.982;   85.600; 1503.000; 1555.000
469.101;  215.800; 2788.000; 2692.000
469.220;  134.450; 2333.000; 2176.000
469.338;  232.500; 2935.000; 3051.000
469.457;  187.000; 2719.000; 2545.000
469.576;  360.650; 3953.000; 3784.000
469.695;  226.200; 2877.000; 3066.000
469.813;  410.675; 4148.000; 4192.000
469.932;  388.200; 4255.000; 4485.000
470.051;  405.275; 4075.000; 4161.000
470.169;  852.375; 4470.000; 4338.000
470.288; 1505.250; 4700.000; 4809.000
470.406;  873.100; 5059.000; 5194.000
470.525;  620.875; 6101.000; 5787.000
470.644;  632.925; 6847.000; 6794.000
470.762;  800.750; 8397.000; 7873.000
470.881;  910.100; 8651.000; 8464.000
470.999; 1039.650; 9685.000; 9151.000
471.118; 1102.900;11174.000;10711.000

