
Integration time [ms]: 200.000
Averaging Nr. [scans]: 10
Smoothing Nr. [pixels]: 0
Data measured with spectrometer [name]: 2101012U2
Wave   ;Sample   ;Dark     ;Reference
[nm]   ;[counts] ;[counts] ;[counts] 

197.733;  151.700;  516.000;  404.000
197.879; -181.400; -610.000; -634.000
198.025; -105.600; -475.000; -420.000
198.171; -179.500; -602.000; -612.000
198.317;  -57.900; -401.000; -316.000
198.463; -128.800; -655.000; -404.000
198.609;   49.300;  181.000; -137.000
198.755; -180.800; -644.000; -410.000
198.901; -168.100; -505.000; -424.000
199.047; -143.700; -615.000; -488.000
199.193;  -86.000; -230.000; -468.000
199.339;  -82.500; -222.000; -369.000
199.485;   74.900;  330.000;  271.000
199.631;   23.800;  227.000;  310.000
199.777;  -77.700; -466.000; -398.000
199.923; -132.700; -610.000; -424.000
200.069;   -1.100; -141.000;  -58.000
200.215;  125.500;  128.000;  453.000
200.361;  107.300;  243.000;  477.000
200.507; -144.600; -600.000; -373.000
200.653;  -67.300; -371.000; -194.000
200.798;  -64.200; -215.000; -125.000
200.944;  -20.300; -146.000;  -41.000
201.090;  106.500;   61.000;  222.000
201.236;   17.800; -116.000; -158.000
201.382;  301.700;  874.000;  903.000
201.528;   23.000;  -58.000;  -48.000
201.674; -116.900; -386.000; -293.000
201.819; -135.100; -540.000; -439.000
201.965; -219.000; -699.000; -447.000
202.111;  -40.400; -273.000; -226.000
202.257;  -60.100; -250.000; -238.000
202.402;   12.300;   13.000;  -36.000
202.548;  -47.300; -169.000; -116.000
202.694;  202.100;  410.000; -183.000
202.840; -164.900; -603.000; -531.000
202.985; -169.500; -681.000; -639.000
203.131; -206.700; -832.000; -666.000
203.277;  -57.400; -199.000; -262.000
203.423;  -87.300; -434.000; -520.000
203.568;  -90.300; -462.000; -237.000
203.714; -142.600; -535.000; -542.000
203.860; -154.300; -682.000; -641.000
204.005;   13.400;  112.000;  167.000
204.151;  163.800;  561.000;  556.000
204.296;  -78.300; -354.000; -221.000
204.442; -150.700; -600.000; -547.000
204.588; -170.100; -592.000; -579.000
204.733;   10.600;  178.000;  168.000
204.879; -275.000;-1018.000; -822.000
205.025;   10.100;  -99.000;  126.000
205.170;   20.500;  -17.000;   94.000
205.316;  185.600;  438.000;  661.000
205.461; -200.500; -698.000; -554.000
205.607;  210.400;  609.000;  665.000
205.752; -149.600; -626.000; -551.000
205.898; -142.100; -501.000; -391.000
206.043; -123.300; -578.000; -506.000
206.189;  -76.300; -243.000; -285.000
206.334;  189.900;  554.000;  606.000
206.480;  202.400;  409.000;  239.000
206.625; -168.100; -529.000; -552.000
206.771; -108.100; -451.000; -373.000
206.916;  -61.500; -210.000; -537.000
207.062; -151.900; -545.000; -591.000
207.207; -149.200; -546.000; -443.000
207.353;  134.500;  185.000;  460.000
207.498;   31.700;  196.000;   85.000
207.643; -114.600; -501.000; -370.000
207.789; -307.800;-1069.000; -910.000
207.934; -174.600; -665.000; -713.000
208.080;  -50.200; -154.000;   66.000
208.225;  -21.100;  -22.000;  -57.000
208.370; -163.800; -727.000; -619.000
208.516; -143.300; -741.000; -487.000
208.661;  -45.500; -127.000;  -69.000
208.806;  -45.400; -165.000; -171.000
208.952; -258.900;-1044.000; -731.000
209.097;  173.100;  378.000;  349.000
209.242;  -82.400; -307.000; -382.000
209.387;  150.000;  392.000;  350.000
209.533; -112.900; -321.000; -350.000
209.678;  183.400;  472.000;  543.000
209.823; -105.900; -408.000; -310.000
209.969; -233.500; -860.000; -757.000
210.114; -227.600; -907.000; -719.000
210.259; -231.700; -939.000; -889.000
210.404;  -39.400; -171.000;  103.000
210.549;   34.300;  108.000;    3.000
210.695;  -56.700;   -3.000;  -95.000
210.840;   77.500;   94.000;   67.000
210.985; -122.200; -484.000; -303.000
211.130;  155.200;  268.000;  406.000
211.275;   27.500;  207.000;  199.000
211.420; -123.400; -300.000; -289.000
211.566; -130.900; -536.000; -489.000
211.711;   65.600;  218.000;  157.000
211.856; -127.300; -545.000; -519.000
212.001;   18.100;  151.000;   44.000
212.146;    3.500;  153.000;   49.000
212.291;  -55.100; -210.000; -186.000
212.436;  -66.700; -280.000;   -6.000
212.581; -163.000; -685.000; -653.000
212.726; -156.100; -487.000; -538.000
212.871;  -93.300; -552.000; -217.000
213.016; -337.600;-1172.000;-1029.000
213.161;  137.500;  406.000;  291.000
213.306; -147.300; -435.000; -577.000
213.451; -178.700; -778.000; -689.000
213.596; -101.400; -455.000; -347.000
213.741;  -89.000; -448.000; -538.000
213.886; -153.900; -498.000; -517.000
214.031;  -51.600; -294.000; -124.000
214.176;  -93.000; -408.000; -341.000
214.321;  -31.200; -296.000; -157.000
214.466;  -60.700; -163.000;  -43.000
214.611;  -10.500;  -61.000;  -10.000
214.756; -245.200; -948.000; -858.000
214.901;  -25.600; -388.000; -226.000
215.046; -269.000; -797.000; -825.000
215.191;   60.300;  128.000;   35.000
215.336;  -26.200; -157.000;  -19.000
215.480; -120.300; -684.000; -505.000
215.625;  -37.900; -175.000;  -19.000
215.770; -172.200; -757.000; -662.000
215.915;   -4.900;   -5.000;  -97.000
216.060;    5.100; -113.000;  -21.000
216.205; -222.700; -731.000; -779.000
216.349; -143.700; -470.000; -533.000
216.494; -284.900; -939.000; -867.000
216.639; -236.800; -823.000; -888.000
216.784; -169.400; -577.000; -525.000
216.929;  125.200;  392.000;  281.000
217.073;  -18.300; -244.000;  -31.000
217.218;   13.700;   78.000;  -47.000
217.363; -177.900; -656.000; -618.000
217.507; -152.200; -623.000; -588.000
217.652; -249.200; -845.000; -874.000
217.797; -183.200; -708.000; -659.000
217.942; -255.100; -856.000; -720.000
218.086;  152.800;  608.000;  539.000
218.231;   -2.200; -174.000;  -26.000
218.376;  -53.200; -337.000; -229.000
218.520;   -6.100;  -41.000;   96.000
218.665;  -53.400; -338.000; -204.000
218.810;  -97.100; -275.000; -233.000
218.954;   60.500;  201.000;   35.000
219.099; -239.300; -713.000; -963.000
219.243; -136.100; -589.000; -554.000
219.388;  -61.400; -264.000; -136.000
219.532;  -12.100; -116.000; -116.000
219.677; -160.100; -564.000; -521.000
219.822;  -10.200;   33.000;   89.000
219.966;   13.000;   17.000;  -99.000
220.111;  -53.400; -328.000;  -40.000
220.255; -185.200; -797.000; -750.000
220.400;  -62.000; -180.000; -146.000
220.544; -142.000; -516.000; -450.000
220.689;  -69.800; -422.000; -451.000
220.833;  -50.800; -123.000;  -58.000
220.978; -106.800; -393.000; -563.000
221.122;   68.800;  319.000;  307.000
221.267; -201.100; -906.000; -837.000
221.411; -119.300; -478.000; -394.000
221.555;    8.800; -104.000;  -23.000
221.700;  -92.800; -329.000; -222.000
221.844;   91.100;  255.000;  272.000
221.989;  -68.800; -328.000; -311.000
222.133;  -87.900; -289.000; -307.000
222.277;   10.000;    5.000;   78.000
222.422;   52.900;  227.000;  113.000
222.566;  -60.800; -381.000; -214.000
222.711; -101.500; -414.000; -479.000
222.855; -154.300; -643.000; -586.000
222.999; -164.500; -642.000; -717.000
223.144;  -48.600; -195.000; -194.000
223.288;  116.000;  423.000;  251.000
223.432;   43.500;  184.000;  230.000
223.576;   17.300;  152.000;  -21.000
223.721;   96.300;  364.000;  273.000
223.865; -109.700; -472.000; -475.000
224.009;  536.700; 1673.000; 1631.000
224.153; -176.300; -660.000; -671.000
224.298; -146.700; -531.000; -489.000
224.442;    4.400;  -74.000;  -33.000
224.586;  -27.000; -169.000; -106.000
224.730; -191.700; -858.000; -670.000
224.875; -211.400; -739.000; -688.000
225.019;   27.300;  102.000;  188.000
225.163;  136.900;  208.000;  341.000
225.307;   50.200;   97.000;  -91.000
225.451;  100.400;  360.000;  481.000
225.595;   76.200;  264.000;  176.000
225.739;   -7.000; -170.000;  -94.000
225.884;   29.400;   86.000;    5.000
226.028; -195.300; -760.000; -626.000
226.172;  -87.800; -260.000; -273.000
226.316; -245.000; -941.000; -902.000
226.460; -128.200; -645.000; -493.000
226.604; -119.700; -406.000; -400.000
226.748; -183.200; -836.000; -733.000
226.892;  -62.200; -227.000; -181.000
227.036;  -65.500; -537.000; -447.000
227.180;  -86.500; -551.000; -375.000
227.324; -113.500; -561.000; -580.000
227.468; -233.300; -819.000; -717.000
227.612;   56.600;  242.000;  -28.000
227.756; -218.200; -845.000; -698.000
227.900;  130.500;  342.000;  441.000
228.044; -111.700; -509.000; -290.000
228.188;  139.200;  448.000;  568.000
228.332; -193.100; -546.000; -472.000
228.476;  -75.100; -223.000; -149.000
228.620;  -55.800; -210.000; -150.000
228.764;  175.400;  431.000;  349.000
228.908;  -23.300; -155.000;   30.000
229.052; -123.100; -615.000; -528.000
229.195;  -26.800; -172.000;   13.000
229.339;  -42.500; -235.000; -305.000
229.483;  -59.900;    5.000; -162.000
229.627;   61.000; -156.000;  139.000
229.771;  -91.200; -218.000; -294.000
229.915;   26.700;  230.000;   79.000
230.059; -151.900; -648.000; -663.000
230.202;  -46.300; -370.000; -317.000
230.346;  -37.400; -107.000;  107.000
230.490; -136.400; -489.000; -521.000
230.634; -239.300; -736.000; -553.000
230.777;  173.800;  478.000;  509.000
230.921; -100.800; -450.000; -359.000
231.065;  -95.700; -246.000; -286.000
231.209;   84.000;  261.000;  265.000
231.352;   59.700;   54.000;   40.000
231.496;   54.300;  568.000;  188.000
231.640; -164.300; -693.000; -621.000
231.783;  143.100;  546.000;  525.000
231.927;  -93.800; -294.000; -365.000
232.071; -252.100; -962.000; -736.000
232.214; -224.800; -980.000; -764.000
232.358; -195.900; -683.000; -599.000
232.502;   14.100;  -19.000;    7.000
232.645; -287.300;-1090.000; -927.000
232.789;  -11.500; -257.000; -218.000
232.933;  -63.200; -407.000; -224.000
233.076; -267.900;-1038.000; -897.000
233.220; -221.600; -752.000; -777.000
233.363; -129.400; -669.000; -477.000
233.507;  133.600;  371.000;  129.000
233.650; -177.600; -764.000; -834.000
233.794;  115.300;  438.000;  461.000
233.938; -105.300; -530.000; -362.000
234.081;  -29.100;  -93.000;   31.000
234.225; -122.700; -631.000; -539.000
234.368; -229.700; -773.000; -723.000
234.512;  -79.800; -385.000; -299.000
234.655; -175.500; -582.000; -555.000
234.798; -129.200; -493.000; -466.000
234.942; -275.900; -884.000;-1002.000
235.085; -156.800; -651.000; -443.000
235.229; -135.500; -405.000; -410.000
235.372;  -78.800; -247.000; -191.000
235.516; -116.000; -397.000; -321.000
235.659;   53.900;   92.000;  121.000
235.802;  -35.200;  -38.000;  -22.000
235.946;   79.300;  335.000;  215.000
236.089;   72.600;  126.000;  250.000
236.233;  129.300;  275.000;  298.000
236.376;  -94.800; -235.000; -378.000
236.519;  -66.100; -297.000; -319.000
236.663;  -43.000; -215.000; -117.000
236.806; -272.700;-1029.000; -999.000
236.949;   98.800;  543.000;  431.000
237.092;  164.800;  412.000;  391.000
237.236; -169.600; -589.000; -502.000
237.379;  179.700;  352.000;  428.000
237.522; -235.100; -879.000; -768.000
237.666;  -17.600; -271.000;   18.000
237.809; -273.300; -851.000; -823.000
237.952;   97.800;  469.000;  271.000
238.095; -126.000; -447.000; -442.000
238.238;  213.400;  688.000;  700.000
238.382;   47.800;  166.000;  103.000
238.525; -159.600; -598.000; -511.000
238.668; -286.300;-1060.000; -985.000
238.811; -144.900; -638.000; -643.000
238.954; -133.500; -483.000; -334.000
239.097;  238.400;  617.000;  664.000
239.241;   55.800;  394.000;  326.000
239.384;  -56.200; -254.000; -214.000
239.527; -112.200; -424.000; -224.000
239.670; -302.000; -994.000;-1091.000
239.813; -230.200; -696.000; -658.000
239.956;  193.000;  579.000;  473.000
240.099; -229.800; -778.000; -725.000
240.242;  156.900;  428.000;  432.000
240.385;  100.200;  466.000;  450.000
240.528; -162.600; -706.000; -473.000
240.671;   40.600;  189.000;  134.000
240.814;  -58.100; -441.000; -158.000
240.957; -200.300; -767.000; -578.000
241.100; -192.200; -779.000; -755.000
241.243; -281.900;-1234.000; -893.000
241.386; -153.400; -508.000; -379.000
241.529; -178.900; -735.000; -547.000
241.672;  -96.700; -566.000; -495.000
241.815; -228.600; -832.000; -808.000
241.958;  -54.800; -125.000; -182.000
242.101; -145.600; -545.000; -390.000
242.244;  -71.000; -270.000; -325.000
242.387;  -68.400; -304.000; -246.000
242.530;  176.200;  470.000;  134.000
242.673;  -76.500; -381.000; -309.000
242.815; -237.700; -925.000; -899.000
242.958; -155.500; -482.000; -381.000
243.101;   59.100;  132.000;  187.000
243.244; -143.900; -564.000; -521.000
243.387; -118.200; -313.000; -316.000
243.530; -176.500; -657.000; -674.000
243.672;   35.300;   43.000;  -92.000
243.815;  -79.400; -355.000; -283.000
243.958;   30.000;   98.000;  -26.000
244.101;    2.200;   59.000;  -16.000
244.243;  -51.500;  -47.000;  101.000
244.386; -240.300; -761.000; -630.000
244.529;  -36.400; -132.000; -139.000
244.672; -307.400;-1154.000; -951.000
244.814; -212.300; -621.000; -794.000
244.957; -110.300; -380.000; -304.000
245.100; -123.400; -489.000; -489.000
245.242;  -98.600; -387.000; -374.000
245.385;   25.100;  -59.000;  -39.000
245.528; -217.500; -871.000; -705.000
245.670;  207.900;  612.000;  634.000
245.813; -185.800; -599.000; -547.000
245.956;  -55.400; -324.000; -275.000
246.098; -152.800; -508.000; -650.000
246.241;   38.900;  194.000;   48.000
246.383;  -35.100; -119.000;  -73.000
246.526; -134.200; -454.000; -525.000
246.669; -230.500; -889.000; -780.000
246.811;   48.900;  172.000;   -1.000
246.954; -155.100; -512.000; -426.000
247.096;  -55.000;  -84.000;   -6.000
247.239; -138.000; -482.000; -445.000
247.381; -156.000; -647.000; -488.000
247.524;  199.600;  645.000;  679.000
247.666;   -7.700;   58.000;   11.000
247.809; -262.600; -887.000; -691.000
247.951;  -22.700;  -75.000;  138.000
248.094;   31.800;  432.000;  308.000
248.236; -337.300;-1262.000;-1238.000
248.378;  -77.600; -356.000;  -81.000
248.521;  -65.300; -334.000; -337.000
248.663;  -88.200; -236.000; -267.000
248.806;  -53.400; -300.000; -266.000
248.948; -268.400; -886.000; -763.000
249.090; -123.200; -428.000; -398.000
249.233; -135.000; -344.000; -381.000
249.375; -126.800; -474.000; -451.000
249.518;  -18.200;  -83.000; -133.000
249.660;    2.700; -103.000;    3.000
249.802; -378.700;-1303.000;-1189.000
249.945; -153.700; -612.000; -540.000
250.087; -249.800; -834.000; -768.000
250.229;  -98.600; -362.000; -480.000
250.371; -130.000; -494.000; -439.000
250.514;  -80.400; -310.000; -244.000
250.656;   11.100;   69.000;  102.000
250.798; -225.200; -849.000; -800.000
250.940; -145.500; -322.000; -322.000
251.083;  -36.800; -335.000; -111.000
251.225;  103.600;  338.000;  310.000
251.367;  -95.400; -274.000; -373.000
251.509;  -97.200; -265.000; -210.000
251.651; -190.000; -731.000; -671.000
251.794;  146.200;  538.000;  632.000
251.936; -219.500; -821.000; -747.000
252.078; -168.200; -540.000; -461.000
252.220; -157.900; -645.000; -477.000
252.362;   96.700;  344.000;  462.000
252.504; -189.100; -677.000; -584.000
252.646; -236.900; -875.000; -722.000
252.788;  -15.600;   14.000; -128.000
252.931; -110.400; -257.000; -253.000
253.073;  -96.000; -376.000; -317.000
253.215;  -12.800;  141.000;  122.000
253.357;   -5.800;   82.000; -153.000
253.499; -113.800; -374.000; -234.000
253.641; -165.900; -749.000; -594.000
253.783; -187.800; -609.000; -527.000
253.925; -183.900; -586.000; -591.000
254.067; -232.800; -744.000; -667.000
254.209;  -45.600; -391.000; -259.000
254.351; -283.300; -865.000; -883.000
254.493; -114.400; -441.000; -417.000
254.635; -246.100; -936.000; -818.000
254.777; -206.500; -752.000; -687.000
254.918; -170.900; -512.000; -430.000
255.060; -111.800; -551.000; -395.000
255.202; -117.700; -473.000; -261.000
255.344; -151.400; -658.000; -455.000
255.486; -129.900; -471.000; -406.000
255.628; -217.800; -780.000; -781.000
255.770; -189.700; -676.000; -536.000
255.912; -122.400; -559.000; -468.000
256.053; -182.200; -730.000; -508.000
256.195;  340.000; 1008.000;  903.000
256.337; -188.900; -861.000; -595.000
256.479;  125.900;  532.000;  416.000
256.621; -102.300; -394.000; -212.000
256.762; -215.200; -789.000; -742.000
256.904;  120.300;  485.000;  487.000
257.046;  -72.800; -381.000; -271.000
257.188; -125.600; -351.000; -264.000
257.329; -153.700; -525.000; -464.000
257.471; -245.300; -939.000; -807.000
257.613; -136.300; -584.000; -498.000
257.755; -313.400;-1073.000; -982.000
257.896;   75.900;  286.000;  392.000
258.038; -133.200; -403.000; -352.000
258.180;  -56.800; -354.000; -279.000
258.321; -159.100; -581.000; -457.000
258.463;   10.800;  -71.000;  133.000
258.605; -202.800; -562.000; -570.000
258.746; -205.000; -886.000; -772.000
258.888; -302.000;-1026.000;-1020.000
259.029;   86.000;  121.000;   -8.000
259.171; -178.700; -614.000; -550.000
259.313;   -8.800;  -49.000;  -47.000
259.454; -158.000; -536.000; -414.000
259.596; -111.800; -483.000; -390.000
259.737; -131.200; -590.000; -474.000
259.879;   91.200;  217.000;  311.000
260.020;  216.700;  901.000;  636.000
260.162;  -80.000; -146.000; -253.000
260.303; -236.300; -768.000; -687.000
260.445; -160.500; -609.000; -613.000
260.586;   51.400;  392.000;  157.000
260.728;  -91.400; -360.000; -248.000
260.869; -102.800; -350.000; -343.000
261.011;  178.500;  706.000;  537.000
261.152; -122.000; -479.000; -319.000
261.293; -149.100; -576.000; -595.000
261.435;  -48.300; -219.000; -184.000
261.576;  -72.500; -455.000; -325.000
261.718;  141.700;  420.000;  470.000
261.859; -244.400; -940.000; -949.000
262.000; -278.900; -951.000;-1016.000
262.142;  -47.700;  -52.000;  -60.000
262.283; -224.000; -808.000; -691.000
262.424; -180.500; -666.000; -625.000
262.566; -303.300;-1161.000; -983.000
262.707; -227.000; -840.000; -830.000
262.848; -261.100; -769.000; -726.000
262.990;  -73.700; -362.000; -345.000
263.131;  150.800;  650.000;  681.000
263.272;  -30.700;  -61.000;  -41.000
263.413; -195.400; -589.000; -561.000
263.555; -111.500; -669.000; -143.000
263.696; -184.700; -550.000; -641.000
263.837; -100.000; -449.000; -551.000
263.978;   13.600;   -5.000;  -77.000
264.119;  -45.200; -283.000; -264.000
264.261; -220.500; -847.000; -630.000
264.402;   25.600;   33.000;   40.000
264.543; -155.100; -509.000; -524.000
264.684;   16.200;   61.000;  -50.000
264.825; -170.700; -816.000; -538.000
264.966;   28.600;  -84.000;  -67.000
265.107; -224.900; -646.000; -670.000
265.248; -256.700; -825.000; -812.000
265.390;    8.900;  152.000;   -9.000
265.531;  -13.500; -238.000; -107.000
265.672; -182.500; -557.000; -630.000
265.813;  154.100;  563.000;  439.000
265.954; -334.500; -959.000; -940.000
266.095;  -29.700; -372.000; -322.000
266.236; -198.100; -686.000; -548.000
266.377;  -57.900; -243.000; -297.000
266.518; -156.400; -619.000; -547.000
266.659;   73.600;  170.000;  268.000
266.800;   -8.300;   83.000;   85.000
266.941; -165.100; -487.000; -478.000
267.082;   56.600;  354.000;   99.000
267.223;  -65.400; -344.000; -273.000
267.364; -273.600; -892.000; -686.000
267.504;  -41.500;    3.000;  135.000
267.645;   33.200;  160.000;   67.000
267.786;  -58.000; -147.000;  -86.000
267.927; -156.600; -473.000; -379.000
268.068;  -18.600; -186.000;  -61.000
268.209;  -94.200; -175.000; -413.000
268.350; -104.300; -388.000; -532.000
268.490; -171.600; -648.000; -521.000
268.631;   73.300;  127.000;  225.000
268.772; -237.900; -874.000; -647.000
268.913;  -98.500; -328.000; -476.000
269.054;  -46.700; -117.000;   12.000
269.194;  -40.900; -418.000; -402.000
269.335; -340.100;-1137.000;-1074.000
269.476;  -25.300;   33.000;  -35.000
269.617; -110.000; -347.000; -392.000
269.757; -182.000; -713.000; -646.000
269.898; -226.700; -856.000; -613.000
270.039; -150.400; -415.000; -405.000
270.180; -265.100; -952.000; -816.000
270.320;  -37.800; -190.000; -250.000
270.461;  -91.200; -277.000; -249.000
270.602;   -4.400; -186.000; -156.000
270.742; -256.100; -868.000; -943.000
270.883; -104.900; -442.000; -390.000
271.023; -122.800; -358.000; -357.000
271.164; -153.100; -607.000; -528.000
271.305; -213.300; -666.000; -654.000
271.445; -167.400; -722.000; -683.000
271.586; -139.500; -462.000; -283.000
271.726;  -67.200; -397.000; -322.000
271.867; -188.500; -594.000; -534.000
272.008;  -62.800; -473.000; -285.000
272.148;  124.100;  462.000;  468.000
272.289;  -53.900; -113.000; -181.000
272.429;   -6.500;   19.000;  185.000
272.570; -197.100; -633.000; -737.000
272.710; -214.000; -825.000; -775.000
272.851;  -41.800;  113.000; -130.000
272.991; -344.700;-1173.000;-1077.000
273.131; -110.100; -419.000; -459.000
273.272; -202.800; -683.000; -723.000
273.412;  -46.600; -143.000;  -31.000
273.553; -146.100; -488.000; -507.000
273.693;  271.600;  913.000;  858.000
273.834; -269.600; -894.000; -692.000
273.974; -167.600; -664.000; -615.000
274.114; -198.300; -772.000; -560.000
274.255;  132.700;  414.000;  373.000
274.395;  -75.100; -180.000; -125.000
274.535;   83.900;  199.000;  350.000
274.676;   62.100;  225.000;   94.000
274.816;  -19.000;  110.000;   34.000
274.956; -185.200; -624.000; -690.000
275.097; -260.200;-1014.000; -922.000
275.237; -270.800; -913.000; -803.000
275.377; -210.500; -778.000; -689.000
275.517; -321.000; -878.000; -937.000
275.658; -171.900; -590.000; -555.000
275.798; -199.200; -606.000; -413.000
275.938;   70.600;  215.000;  323.000
276.078; -153.100; -626.000; -395.000
276.218;   47.800;   99.000;  104.000
276.359; -292.700;-1026.000;-1024.000
276.499; -129.200; -605.000; -446.000
276.639;  -67.900; -305.000; -151.000
276.779;  -96.500; -475.000; -357.000
276.919; -238.700; -783.000; -624.000
277.059;  -37.600; -261.000; -212.000
277.199; -113.000; -357.000; -259.000
277.340;   56.800;  287.000;  175.000
277.480; -221.400; -840.000; -693.000
277.620;   69.100;  192.000;   16.000
277.760; -423.500;-1533.000;-1294.000
277.900;    4.600;  113.000;   33.000
278.040;   -1.600;  137.000;  159.000
278.180;   83.400;  270.000;  170.000
278.320;   10.100;   21.000;   56.000
278.460; -114.800; -443.000; -469.000
278.600; -180.300; -708.000; -598.000
278.740;  104.000;  448.000;  224.000
278.880; -257.200; -768.000; -791.000
279.020;   -6.900; -194.000; -144.000
279.160; -191.700; -672.000; -595.000
279.300; -251.100; -926.000; -873.000
279.440; -233.400; -709.000; -622.000
279.579; -271.400;-1014.000; -929.000
279.719; -143.000; -410.000; -394.000
279.859;   29.700;   -4.000;   41.000
279.999;  -47.600; -208.000;  101.000
280.139; -112.800; -435.000; -387.000
280.279; -202.200; -708.000; -745.000
280.419;  -18.600; -229.000; -147.000
280.559;  -67.100; -259.000; -180.000
280.698; -184.400; -790.000; -639.000
280.838; -231.200; -778.000; -800.000
280.978; -235.700; -846.000; -790.000
281.118; -236.200; -811.000; -704.000
281.257;    2.400;   24.000;    6.000
281.397; -327.200;-1094.000; -960.000
281.537; -182.900; -599.000; -712.000
281.677;  -24.800; -150.000; -101.000
281.816; -191.400; -700.000; -630.000
281.956;  -55.900; -193.000; -257.000
282.096; -130.900; -539.000; -396.000
282.235; -233.800; -672.000; -638.000
282.375;  -55.600; -243.000;  -98.000
282.515; -237.600; -715.000; -707.000
282.654;   29.400;   29.000;  106.000
282.794;   55.600;  388.000;  244.000
282.934; -134.200; -530.000; -491.000
283.073; -285.500;-1030.000; -857.000
283.213; -102.700; -460.000; -467.000
283.353; -130.400; -408.000; -349.000
283.492;  -85.900; -264.000; -296.000
283.632;  -96.000; -254.000; -168.000
283.771; -201.700; -859.000; -730.000
283.911; -101.100; -369.000; -260.000
284.050; -218.500; -794.000; -748.000
284.190; -320.700;-1229.000;-1096.000
284.329; -323.100;-1055.000; -964.000
284.469; -224.600; -516.000; -591.000
284.608; -126.800; -559.000; -598.000
284.748; -193.300; -614.000; -570.000
284.887;   12.900;  -87.000;  -20.000
285.027; -273.500; -844.000; -892.000
285.166;  -70.000; -192.000; -249.000
285.306;  -24.500; -116.000;  -33.000
285.445;  -72.200; -229.000; -343.000
285.584; -175.800; -630.000; -494.000
285.724;  -81.700; -282.000; -322.000
285.863; -217.700; -857.000; -507.000
286.002; -106.500; -366.000; -276.000
286.142; -203.800; -715.000; -622.000
286.281; -132.000; -525.000; -493.000
286.420; -171.300; -554.000; -417.000
286.560;  212.100;  653.000;  623.000
286.699; -285.600; -958.000; -912.000
286.838; -206.000; -590.000; -591.000
286.978; -199.700; -533.000; -537.000
287.117; -286.400;-1085.000; -950.000
287.256;  -53.900; -228.000; -211.000
287.395; -108.900; -197.000; -378.000
287.535; -106.000; -370.000; -298.000
287.674; -179.600; -509.000; -484.000
287.813;  131.500;  661.000;  533.000
287.952; -269.800;-1010.000; -871.000
288.091; -336.800;-1049.000; -915.000
288.231;   26.400;   13.000;   15.000
288.370; -381.700;-1217.000;-1200.000
288.509; -201.800; -728.000; -645.000
288.648; -183.500; -770.000; -548.000
288.787;  -52.500; -243.000;  -87.000
288.926; -122.000; -454.000; -475.000
289.065;  266.000;  859.000;  672.000
289.204;  -91.800; -377.000; -217.000
289.344; -190.200; -791.000; -690.000
289.483;   41.100;  416.000;  304.000
289.622;  -31.800; -291.000; -149.000
289.761;  -32.100; -309.000; -166.000
289.900; -215.000; -785.000; -626.000
290.039;  -30.300;  -12.000;  -95.000
290.178;  -52.900; -274.000; -180.000
290.317; -171.800; -618.000; -479.000
290.456; -151.900; -463.000; -451.000
290.595; -299.700; -961.000; -833.000
290.734; -271.600; -904.000; -891.000
290.873; -120.900; -456.000; -420.000
291.011; -223.500; -833.000; -843.000
291.150; -213.500; -770.000; -682.000
291.289;  -65.200; -343.000; -110.000
291.428; -209.800; -599.000; -480.000
291.567;  -86.100; -370.000; -442.000
291.706;   15.800;  109.000;  154.000
291.845; -200.300; -597.000; -505.000
291.984; -350.300;-1234.000;-1061.000
292.122;  161.800;  602.000;  582.000
292.261;  116.200;  620.000;  463.000
292.400;  -31.100; -144.000;  211.000
292.539; -249.000; -959.000; -813.000
292.678;  -67.300; -325.000; -300.000
292.816; -334.200;-1136.000; -965.000
292.955; -212.800; -844.000; -684.000
293.094;  -80.600; -173.000; -337.000
293.233;  -95.900; -556.000; -400.000
293.371;  -92.100; -225.000;  -84.000
293.510; -228.500; -866.000; -780.000
293.649; -287.300; -959.000; -924.000
293.787; -292.700;-1083.000;-1012.000
293.926;  -54.300; -113.000;  -32.000
294.065;  -71.300; -379.000; -290.000
294.203;  114.800;  298.000;  406.000
294.342;   22.000;   74.000;  156.000
294.481;14932.200;51180.000; -836.000
294.619;  -58.700; -425.000; -582.000
294.758; -347.100;-1230.000;-1137.000
294.896;  -24.400; -125.000;    5.000
295.035; -325.300;-1040.000;-1006.000
295.174; -284.100;-1082.000; -954.000
295.312;  -89.600; -323.000; -203.000
295.451; -113.700; -307.000; -428.000
295.589; -163.900; -389.000; -518.000
295.728;   23.200; -292.000; -165.000
295.866;  -56.000;  -36.000;  -51.000
296.005; -175.500; -584.000; -341.000
296.143; -208.200; -558.000; -596.000
296.282; -219.000; -957.000; -881.000
296.420; -201.800; -657.000; -557.000
296.559; -219.800; -892.000; -633.000
296.697; -200.700; -847.000; -665.000
296.835; -309.100;-1141.000;-1002.000
296.974;    6.100;  -23.000;   39.000
297.112; -130.900; -443.000; -504.000
297.251; -219.000; -815.000; -755.000
297.389; -161.600; -576.000; -438.000
297.527;  -29.000; -145.000;  -83.000
297.666; -171.400; -486.000; -438.000
297.804; -138.400; -404.000; -264.000
297.942;  -28.700; -136.000; -161.000
298.081;  -31.300; -183.000;   63.000
298.219;  -44.500;  -17.000;  -19.000
298.357;  -84.300; -144.000;  -71.000
298.495; -211.900; -810.000; -812.000
298.634;   -5.300;  245.000;  219.000
298.772;  -70.500; -220.000; -338.000
298.910; -118.800; -309.000; -182.000
299.048;  -29.900; -130.000; -153.000
299.187;  -76.100; -350.000; -250.000
299.325;   16.100;   52.000;  122.000
299.463;  -93.000; -389.000; -299.000
299.601;  -83.700; -327.000; -271.000
299.739; -259.600; -908.000; -883.000
299.877; -158.000; -791.000; -703.000
300.016; -297.600;-1095.000; -935.000
300.154;  -21.100;  -19.000; -161.000
300.292; -149.600; -428.000; -348.000
300.430;  -95.200; -408.000; -291.000
300.568; -266.200; -940.000; -874.000
300.706; -137.700; -366.000; -469.000
300.844; -332.900;-1108.000; -979.000
300.982;   94.800;  246.000;  282.000
301.120; -308.600; -965.000; -866.000
301.258; -208.400; -812.000; -705.000
301.396;    4.100;  104.000;  -41.000
301.534;  -66.900; -218.000; -293.000
301.672; -176.900; -664.000; -521.000
301.810; -156.500; -613.000; -545.000
301.948;   26.800;   53.000;  149.000
302.086;  -58.100; -250.000;  -32.000
302.224; -200.100; -610.000; -585.000
302.362; -185.800; -558.000; -622.000
302.500; -268.400; -923.000; -893.000
302.638;   23.700;  128.000;  245.000
302.776;  -87.000; -352.000; -408.000
302.913;   89.300;  447.000;  236.000
303.051;  -82.600;  -86.000;  -23.000
303.189;   40.200;   90.000;  118.000
303.327;  -85.900; -341.000; -256.000
303.465; -164.300; -832.000; -588.000
303.603; -209.200; -805.000; -604.000
303.740;   96.200;  417.000;  241.000
303.878; -202.800; -800.000; -759.000
304.016; -208.300; -915.000; -790.000
304.154; -331.800;-1123.000;-1152.000
304.291; -170.800; -505.000; -554.000
304.429;    5.600;  102.000;   74.000
304.567; -285.000; -908.000; -893.000
304.705; -135.200; -408.000; -515.000
304.842; -173.300; -616.000; -540.000
304.980;    0.400;  215.000;   35.000
305.118;  -66.300; -367.000; -365.000
305.255; -287.300; -945.000; -927.000
305.393;   96.100;  178.000;  239.000
305.531; -316.000;-1173.000; -956.000
305.668; -181.500; -663.000; -582.000
305.806; -110.700; -358.000; -439.000
305.943; -177.400; -629.000; -637.000
306.081;  -94.800; -378.000; -267.000
306.219; -254.100; -863.000; -748.000
306.356;   -1.100;  158.000;   27.000
306.494;  203.000;  981.000;  761.000
306.631;  -41.300;  -11.000;  -55.000
306.769; -112.600; -613.000; -485.000
306.906; -154.400; -284.000; -258.000
307.044; -149.800; -473.000; -488.000
307.181; -145.300; -410.000; -332.000
307.319;   87.700;  112.000;   87.000
307.456; -366.400;-1191.000;-1153.000
307.594; -239.500; -980.000; -727.000
307.731;  -92.300; -371.000; -164.000
307.868;  -13.000;  -15.000;   20.000
308.006; -298.100; -961.000; -847.000
308.143; -158.000; -618.000; -330.000
308.281;  -56.900;  -37.000; -254.000
308.418; -193.000; -748.000; -640.000
308.555; -162.600; -400.000; -250.000
308.693; -163.100; -577.000; -573.000
308.830; -239.500; -712.000; -657.000
308.967;  -18.300; -215.000;  -95.000
309.105; -120.200; -507.000; -396.000
309.242; -115.900; -468.000; -367.000
309.379; -170.600; -577.000; -655.000
309.517; -254.900; -936.000; -948.000
309.654; -275.500; -910.000; -734.000
309.791; -171.800; -662.000; -580.000
309.928; -279.100; -977.000; -914.000
310.065;  165.200;  819.000;  697.000
310.203; -266.000; -825.000; -850.000
310.340; -121.600; -465.000; -321.000
310.477; -160.900; -412.000; -516.000
310.614; -169.100; -383.000; -473.000
310.751; -170.500; -427.000; -518.000
310.889;  -24.700;    1.000;   11.000
311.026; -340.100;-1161.000; -939.000
311.163; -119.000; -386.000; -380.000
311.300; -190.000; -512.000; -479.000
311.437; -118.400; -658.000; -619.000
311.574; -316.700;-1226.000; -985.000
311.711; -158.300; -595.000; -433.000
311.848; -110.200; -380.000; -388.000
311.985;   28.800;  270.000;   93.000
312.122; -273.000; -932.000; -762.000
312.259; -271.300; -941.000; -994.000
312.396; -209.000; -508.000; -551.000
312.533; -213.400; -812.000; -790.000
312.670; -309.500;-1070.000; -898.000
312.807; -108.700; -352.000; -367.000
312.944; -207.500; -513.000; -611.000
313.081;  -95.200; -150.000; -415.000
313.218; -299.900;-1111.000; -867.000
313.355; -138.200; -531.000; -449.000
313.492; -139.800; -455.000; -292.000
313.629;  198.000;  815.000;  735.000
313.766; -346.000;-1176.000;-1008.000
313.902;  -18.700; -186.000;   21.000
314.039; -109.500; -372.000; -289.000
314.176;   65.800;  286.000;  192.000
314.313; -153.600; -569.000; -473.000
314.450; -217.000; -788.000; -684.000
314.587; -165.600; -468.000; -480.000
314.723;  -14.000;  -78.000;  130.000
314.860;   27.900;  318.000;  332.000
314.997;   24.000;  223.000;  142.000
315.134; -150.200; -385.000; -368.000
315.270; -132.200; -480.000; -496.000
315.407; -351.700;-1094.000; -967.000
315.544; -168.500; -657.000; -538.000
315.681; -191.700; -681.000; -565.000
315.817;  -78.600; -133.000; -176.000
315.954; -181.000; -613.000; -392.000
316.091; -310.600;-1045.000;-1023.000
316.227;  -37.500;  -71.000; -179.000
316.364;   -1.000;   23.000;    6.000
316.500; -104.700; -113.000; -300.000
316.637;  -83.000; -181.000; -302.000
316.774; -194.100; -625.000; -358.000
316.910; -194.800; -598.000; -629.000
317.047; -194.400; -487.000; -351.000
317.183; -131.300; -435.000; -566.000
317.320; -105.200; -367.000; -321.000
317.456; -223.400; -733.000; -805.000
317.593; -215.900; -598.000; -641.000
317.729;   16.100;  168.000;  -67.000
317.866; -411.200;-1434.000;-1285.000
318.002; -185.500; -708.000; -948.000
318.139; -287.500; -883.000; -867.000
318.275; -263.600;-1003.000; -738.000
318.412; -148.600; -517.000; -336.000
318.548; -222.200; -751.000; -720.000
318.685; -269.400; -985.000; -888.000
318.821; -240.600; -762.000; -735.000
318.957;  -47.000;   34.000;  -23.000
319.094;   97.000;  297.000;  154.000
319.230; -269.200; -756.000; -742.000
319.367; -137.900; -471.000; -520.000
319.503; -118.000; -538.000; -436.000
319.639; -259.400; -877.000; -793.000
319.775; -212.600; -750.000; -685.000
319.912; -117.200; -424.000; -519.000
320.048; -314.500;-1184.000;-1184.000
320.184;   37.100;   59.000;   70.000
320.321; -143.500; -497.000; -467.000
320.457;  115.300;  475.000;  662.000
320.593; -179.700; -375.000; -382.000
320.729; -205.200; -732.000; -734.000
320.866; -188.900; -577.000; -635.000
321.002; -218.100; -759.000; -809.000
321.138; -103.500; -135.000; -211.000
321.274;  -18.700; -148.000; -115.000
321.410; -158.800; -585.000; -353.000
321.546; -287.800;-1011.000; -911.000
321.683;   73.300;  400.000;  185.000
321.819;  -17.100;  -48.000; -117.000
321.955; -274.500; -743.000; -722.000
322.091; -128.300; -585.000; -540.000
322.227;  -90.300; -382.000; -202.000
322.363;  -83.800; -320.000; -215.000
322.499; -134.700; -343.000; -331.000
322.635;  147.900;  636.000;  443.000
322.771;  -44.600; -139.000;   12.000
322.907;   56.500;  129.000;  327.000
323.043;  -99.400; -115.000; -206.000
323.179; -127.400; -394.000; -363.000
323.315; -172.600; -401.000; -371.000
323.451;  -95.900; -328.000; -236.000
323.587;  -81.900;  -60.000;  -77.000
323.723; -206.800; -682.000; -601.000
323.859;  -81.100; -258.000;  -76.000
323.995; -120.500; -467.000; -409.000
324.131; -307.200; -967.000; -892.000
324.267;  -73.300; -254.000; -276.000
324.402; -283.600; -960.000; -983.000
324.538;  -66.000; -279.000; -104.000
324.674;   -2.100;  164.000;   77.000
324.810;   41.000;  226.000;  308.000
324.946; -116.400; -810.000; -658.000
325.082; -160.900; -568.000; -475.000
325.217;  -51.300;  -62.000;   16.000
325.353; -247.400; -764.000; -659.000
325.489; -213.500; -540.000; -506.000
325.625; -154.300; -579.000; -525.000
325.760;   70.100;  517.000;  376.000
325.896; -164.300; -515.000; -702.000
326.032; -114.800; -403.000; -352.000
326.168; -132.700; -462.000; -369.000
326.303; -130.000; -352.000; -461.000
326.439;  -52.600; -336.000; -276.000
326.575;  -70.400; -190.000;  -29.000
326.710;  -57.900; -156.000;  -30.000
326.846;  -44.700;  146.000;  103.000
326.982; -191.500; -530.000; -548.000
327.117; -159.500; -481.000; -442.000
327.253; -189.300; -745.000; -742.000
327.388; -416.800;-1137.000;-1153.000
327.524; -192.900; -811.000; -578.000
327.659;  -55.700;  -58.000;  -22.000
327.795;  -18.900;   69.000;   45.000
327.931; -184.100; -723.000; -499.000
328.066;  -89.700; -417.000; -276.000
328.202;  -47.400;   12.000; -129.000
328.337;  222.100;  957.000;  713.000
328.473;  -52.700;  -12.000;  -74.000
328.608;  -55.500; -256.000; -267.000
328.743; -254.000; -799.000; -664.000
328.879;   41.300;  214.000;  114.000
329.014; -136.800; -102.000; -122.000
329.150; -167.700; -358.000; -483.000
329.285; -156.000; -465.000; -466.000
329.421;  -94.900; -548.000; -246.000
329.556;  -19.200;  -36.000;   85.000
329.691; -168.800; -633.000; -615.000
329.827; -154.200; -626.000; -480.000
329.962;  -51.200;  131.000; -301.000
330.097; -191.900; -673.000; -585.000
330.233;  -88.900; -410.000; -223.000
330.368; -283.000; -839.000; -628.000
330.503;  -24.300;    3.000;   98.000
330.638;  -24.300;  -93.000; -125.000
330.774; -189.200; -609.000; -530.000
330.909;  -69.100; -434.000; -244.000
331.044; -195.900; -714.000; -708.000
331.179; -383.400;-1217.000;-1109.000
331.315;   14.700;   77.000;   20.000
331.450;   15.700;  157.000;  285.000
331.585; -211.800; -805.000; -706.000
331.720; -190.600; -510.000; -460.000
331.855;  -36.100;  -35.000; -102.000
331.990;   -7.000;   62.000;  138.000
332.126;   -7.200; -110.000;   71.000
332.261; -148.800; -379.000; -265.000
332.396;  -85.600; -135.000; -242.000
332.531; -341.400;-1074.000;-1031.000
332.666; -108.900; -519.000; -363.000
332.801; -224.600; -726.000; -807.000
332.936;    0.300; -192.000; -122.000
333.071; -281.600; -870.000; -817.000
333.206;   69.400;  307.000;  379.000
333.341;   52.300;  344.000;  418.000
333.476; -176.300; -627.000; -623.000
333.611;  -93.500; -251.000; -173.000
333.746;  -86.100; -381.000; -464.000
333.881; -276.900; -973.000; -935.000
334.016; -278.500; -936.000; -917.000
334.151; -274.100; -746.000; -702.000
334.286;   -0.100;  152.000;  186.000
334.421;  -51.900; -125.000; -178.000
334.556; -166.500; -611.000; -567.000
334.690; -218.600; -631.000; -577.000
334.825;  100.500;  381.000;   83.000
334.960; -139.300; -285.000; -413.000
335.095;  -20.100;  135.000;  -91.000
335.230; -253.600; -722.000; -738.000
335.365; -287.700;-1084.000; -990.000
335.499; -359.300;-1108.000;-1037.000
335.634;  -19.800;    9.000;  534.000
335.769; -248.900; -755.000; -720.000
335.904; -181.200; -603.000; -561.000
336.038; -224.000; -735.000; -657.000
336.173; -335.100;-1206.000;-1194.000
336.308; -111.100; -116.000; -189.000
336.443; -123.200; -544.000; -634.000
336.577; -287.000; -936.000; -787.000
336.712;  -11.900;   -4.000;  -12.000
336.847; -220.700; -724.000; -607.000
336.981; -125.100; -272.000; -208.000
337.116;  128.300;  615.000;  501.000
337.250; -137.300; -434.000; -421.000
337.385; -133.900; -297.000; -208.000
337.520; -202.500; -632.000; -603.000
337.654;  -81.600; -215.000; -126.000
337.789; -262.500; -989.000; -933.000
337.923;  -81.100; -104.000; -205.000
338.058; -216.000; -673.000; -738.000
338.192; -194.400; -611.000; -488.000
338.327;  -35.500;  -18.000; -155.000
338.461; -163.300; -299.000; -469.000
338.596; -222.300; -780.000; -638.000
338.730; -247.700; -767.000; -803.000
338.865;  -30.200;  -46.000; -140.000
338.999; -301.700; -846.000; -702.000
339.134; -204.700; -634.000; -536.000
339.268; -214.800; -741.000; -603.000
339.403; -257.500; -740.000; -775.000
339.537; -237.200; -894.000; -820.000
339.671; -237.500; -829.000; -813.000
339.806; -213.200; -556.000; -512.000
339.940;  -77.200; -261.000; -235.000
340.074; -223.500; -685.000; -510.000
340.209;  -95.300; -351.000; -230.000
340.343; -198.500; -517.000; -573.000
340.477;  291.500;  998.000; 1036.000
340.612; -294.400;-1033.000; -900.000
340.746; -137.700; -199.000; -243.000
340.880; -276.100; -924.000; -785.000
341.014;  -19.300;  -45.000; -154.000
341.149; -222.800; -756.000; -718.000
341.283; -260.100; -839.000; -754.000
341.417; -331.200;-1124.000; -938.000
341.551; -207.400; -768.000; -708.000
341.685; -170.500; -633.000; -611.000
341.820; -167.200; -562.000; -493.000
341.954; -124.900; -218.000; -349.000
342.088; -301.900;-1102.000;-1019.000
342.222;   86.100;  565.000;  618.000
342.356; -162.500; -395.000; -335.000
342.490; -246.800; -880.000; -841.000
342.624;  -88.400; -339.000; -242.000
342.758; -108.600; -364.000; -312.000
342.892; -206.700; -710.000; -585.000
343.026;  -73.300;  -58.000; -116.000
343.160; -112.000; -426.000; -376.000
343.294; -162.000; -474.000; -337.000
343.428; -176.700; -488.000; -448.000
343.562;  -83.800; -172.000;  -23.000
343.696;  -95.700; -385.000; -314.000
343.830; -129.900; -362.000; -356.000
343.964;  -47.400; -231.000; -168.000
344.098;  -12.600;  199.000;   70.000
344.232;  -95.700; -266.000; -127.000
344.366; -194.000; -567.000; -453.000
344.500; -185.900; -665.000; -744.000
344.634; -106.700; -324.000; -164.000
344.768; -140.900; -531.000; -341.000
344.902;   39.200;  278.000;  256.000
345.035; -151.900; -556.000; -496.000
345.169; -293.200; -933.000; -656.000
345.303; -127.500; -308.000; -482.000
345.437; -249.600; -826.000; -717.000
345.571; -201.600; -675.000; -594.000
345.704; -137.200; -309.000; -532.000
345.838;  -81.000; -331.000; -284.000
345.972; -175.400; -543.000; -495.000
346.106;    5.900; -179.000; -190.000
346.239;  -91.800; -312.000; -243.000
346.373; -137.500; -343.000; -302.000
346.507; -281.100; -950.000; -962.000
346.640;  -31.000;  -30.000;   13.000
346.774; -222.100; -650.000; -797.000
346.908;  -21.100; -138.000;  -11.000
347.041; -194.200; -646.000; -593.000
347.175;   11.300;  259.000;   27.000
347.309; -229.700; -698.000; -628.000
347.442; -250.000; -883.000; -732.000
347.576;  164.300;  670.000;  668.000
347.709;  -67.800; -123.000;  -52.000
347.843; -287.600; -933.000; -825.000
347.976;   62.300;  235.000;  294.000
348.110; -366.800;-1268.000;-1186.000
348.243; -223.600; -679.000; -772.000
348.377;   -1.800;  -26.000;   60.000
348.510;   92.100;  403.000;  540.000
348.644;  -66.600;  -37.000; -159.000
348.777;   -4.700;  180.000;  191.000
348.911;  -66.500; -142.000; -112.000
349.044;  111.600;  471.000;  448.000
349.178; -330.300;-1069.000;-1006.000
349.311;   14.200;  141.000;  255.000
349.444; -255.300; -927.000; -813.000
349.578;  -85.300; -347.000; -200.000
349.711; -300.700; -959.000; -862.000
349.845; -221.300; -661.000; -591.000
349.978; -381.500;-1224.000;-1137.000
350.111; -171.900; -546.000; -612.000
350.244; -233.500; -596.000; -700.000
350.378; -148.500; -392.000; -393.000
350.511; -132.100; -393.000; -426.000
350.644; -263.800; -808.000; -806.000
350.778;  -35.700;  168.000;  104.000
350.911;   -3.100;  134.000;  140.000
351.044; -195.300; -685.000; -615.000
351.177; -109.900; -321.000; -281.000
351.310;  -34.800;    3.000; -131.000
351.444; -250.800; -888.000; -788.000
351.577;   23.900;  140.000;   90.000
351.710;  162.600;  593.000;  417.000
351.843;  -93.500; -165.000;  -77.000
351.976;    5.900;  149.000;  -79.000
352.109; -202.500; -621.000; -612.000
352.242; -108.600; -464.000; -419.000
352.376; -210.800; -580.000; -636.000
352.509; -111.500; -437.000; -356.000
352.642; -343.600; -654.000; -604.000
352.775;  -75.900; -141.000;  -98.000
352.908; -305.700; -933.000; -904.000
353.041; -251.500; -814.000; -824.000
353.174; -158.700; -551.000; -424.000
353.307; -210.500; -753.000; -764.000
353.440;   70.300;  541.000;  453.000
353.573; -307.200; -957.000;-1008.000
353.706; -197.300; -384.000; -558.000
353.839;  -84.300; -264.000; -220.000
353.971; -195.400; -657.000; -512.000
354.104; -244.900; -896.000; -835.000
354.237; -217.200; -627.000; -662.000
354.370; -245.800; -846.000; -879.000
354.503; -407.900;-1231.000;-1308.000
354.636; -126.700; -529.000; -348.000
354.769; -281.400; -937.000; -860.000
354.902;  -68.300; -230.000; -139.000
355.034;  -53.400; -164.000; -220.000
355.167;  -56.200; -262.000; -162.000
355.300; -302.800;-1061.000; -880.000
355.433;  -32.100;  -71.000;  -14.000
355.565; -144.700; -402.000; -384.000
355.698;  -76.800; -356.000; -296.000
355.831; -280.100; -882.000; -801.000
355.964;  -74.000; -285.000; -170.000
356.096; -294.700; -856.000; -843.000
356.229; -171.900; -523.000; -530.000
356.362; -118.900; -373.000; -266.000
356.494;  -78.600; -229.000; -162.000
356.627;   39.700;  269.000;  377.000
356.760;   35.700;  120.000;   53.000
356.892; -226.300; -286.000; -601.000
357.025;   96.700;  403.000;  389.000
357.157;  -92.400; -167.000; -179.000
357.290; -255.500; -856.000; -713.000
357.423; -218.100; -667.000; -556.000
357.555;  -39.800; -217.000; -228.000
357.688; -155.700; -483.000; -364.000
357.820; -234.500; -870.000; -877.000
357.953; -206.200; -563.000; -589.000
358.085; -238.500; -632.000; -612.000
358.218; -332.200;-1131.000; -932.000
358.350;  -23.600;  -58.000;  312.000
358.483; -403.400;-1300.000;-1187.000
358.615; -321.300;-1182.000;-1078.000
358.747; -394.900;-1187.000;-1058.000
358.880; -222.200; -810.000; -744.000
359.012; -135.600; -376.000; -202.000
359.145; -174.100; -480.000; -511.000
359.277; -337.400; -962.000; -913.000
359.409;  121.000;  536.000;  231.000
359.542; -228.300; -738.000; -688.000
359.674;    9.100;   46.000;   13.000
359.806; -178.000; -565.000; -438.000
359.939; -144.700; -617.000; -516.000
360.071; -219.400; -583.000; -579.000
360.203;  -99.300; -411.000; -364.000
360.335;  -39.900;  164.000;  -16.000
360.468;  -94.900; -249.000; -307.000
360.600; -194.700; -547.000; -454.000
360.732; -177.700; -546.000; -423.000
360.864; -358.700;-1216.000;-1044.000
360.996; -130.900; -516.000; -554.000
361.129; -152.000; -389.000; -598.000
361.261;  -15.900;  110.000; -113.000
361.393;  -87.600; -252.000; -214.000
361.525;    2.200;   94.000;  244.000
361.657; -247.600; -821.000; -703.000
361.789;  -27.700; -139.000; -155.000
361.921; -205.600; -642.000; -593.000
362.053;  126.100;  524.000;  541.000
362.185;   16.500;  288.000;   72.000
362.318; -232.900; -709.000; -705.000
362.450;   55.100;  294.000;  444.000
362.582; -264.600; -913.000; -870.000
362.714; -130.700; -353.000; -332.000
362.846; -161.900; -606.000; -490.000
362.978; -301.200; -941.000; -811.000
363.109; -117.000; -161.000; -260.000
363.241; -265.300; -739.000; -749.000
363.373; -189.600; -649.000; -564.000
363.505;  -45.300; -186.000;  -91.000
363.637; -192.700; -787.000; -601.000
363.769; -366.900;-1067.000;-1080.000
363.901; -191.300; -596.000; -654.000
364.033; -360.200;-1103.000;-1062.000
364.165;  -69.700; -283.000; -283.000
364.296; -106.400; -316.000; -177.000
364.428; -403.700;-1344.000;-1220.000
364.560; -185.800; -679.000; -661.000
364.692; -186.200; -738.000; -835.000
364.824; -185.300; -588.000; -456.000
364.955; -123.000; -402.000; -564.000
365.087; -337.300;-1097.000; -852.000
365.219; -215.200; -686.000; -816.000
365.351; -193.900; -526.000; -572.000
365.482;   26.600;  300.000;  240.000
365.614; -133.500; -402.000; -314.000
365.746; -223.100; -729.000; -752.000
365.877; -227.300; -706.000; -672.000
366.009;  -35.800;  -35.000;  -62.000
366.141; -380.300;-1249.000;-1134.000
366.272; -237.500; -803.000; -719.000
366.404; -263.400;-1005.000; -874.000
366.535;  -45.900; -139.000;  -12.000
366.667; -222.000; -644.000; -649.000
366.799;   85.700;  353.000;  203.000
366.930; -319.400; -862.000; -996.000
367.062; -173.300; -639.000; -613.000
367.193; -286.200; -872.000; -842.000
367.325; -190.000; -580.000; -684.000
367.456;  -89.800; -246.000;   31.000
367.588; -118.100; -371.000; -318.000
367.719;  -50.900;  -44.000;  -45.000
367.851;  -81.300; -222.000; -241.000
367.982; -275.800; -875.000; -732.000
368.113; -132.200; -475.000; -358.000
368.245; -309.200; -960.000; -841.000
368.376;  -86.600; -254.000; -302.000
368.508; -100.200; -188.000; -263.000
368.639; -322.700;-1166.000;-1034.000
368.770; -211.200; -670.000; -589.000
368.902; -227.000; -836.000; -926.000
369.033; -272.700; -906.000; -855.000
369.164; -235.100; -720.000; -653.000
369.296; -244.100; -452.000; -601.000
369.427;  -47.900; -209.000; -144.000
369.558; -156.400; -593.000; -377.000
369.689; -209.800; -721.000; -569.000
369.821; -298.000; -951.000; -845.000
369.952;  -24.000;   42.000; -108.000
370.083; -110.800; -229.000; -108.000
370.214; -196.900; -735.000; -650.000
370.345;  -12.600;   65.000;   81.000
370.477; -241.600; -810.000; -790.000
370.608; -102.400; -328.000; -264.000
370.739; -373.800;-1233.000;-1292.000
370.870; -313.800;-1102.000; -923.000
371.001; -159.200; -378.000; -467.000
371.132; -213.200; -754.000; -735.000
371.263;  -42.300;  -42.000; -148.000
371.394; -273.100; -841.000; -748.000
371.525;   51.600;  345.000;  225.000
371.657; -297.300; -808.000; -670.000
371.788;   53.700;  103.000;  199.000
371.919; -136.500; -384.000; -304.000
372.050;  -30.400;  -91.000; -156.000
372.181;  -52.000; -188.000; -294.000
372.311;  -12.500;   42.000; -127.000
372.442; -171.000; -457.000; -451.000
372.573; -106.800; -444.000; -340.000
372.704; -328.000;-1008.000; -980.000
372.835; -132.900; -228.000; -289.000
372.966; -193.500; -646.000; -554.000
373.097; -236.200; -575.000; -711.000
373.228; -227.100; -717.000; -542.000
373.359; -220.100; -824.000; -536.000
373.490; -276.200; -881.000; -727.000
373.620; -308.100;-1001.000; -803.000
373.751; -145.900; -332.000; -396.000
373.882; -188.700; -663.000; -733.000
374.013; -128.100; -449.000; -262.000
374.143; -215.600; -581.000; -659.000
374.274; -302.000; -987.000; -908.000
374.405;  -89.900; -388.000; -276.000
374.536; -199.500; -526.000; -387.000
374.666; -220.500; -759.000; -807.000
374.797; -275.000; -817.000; -868.000
374.928; -217.200; -710.000; -560.000
375.058; -183.200; -535.000; -500.000
375.189;  -43.700;  -59.000;  -93.000
375.320; -332.500; -928.000;-1034.000
375.450; -225.900; -625.000; -616.000
375.581; -182.800; -526.000; -436.000
375.712; -114.200; -574.000; -250.000
375.842; -187.200; -438.000; -415.000
375.973; -173.500; -554.000; -513.000
376.103; -216.500; -665.000; -648.000
376.234; -186.100; -531.000; -552.000
376.364; -320.900; -944.000; -867.000
376.495;  194.700;  925.000;  529.000
376.625; -175.700; -472.000; -485.000
376.756; -215.600; -709.000; -678.000
376.886; -373.300;-1178.000;-1026.000
377.017; -315.000;-1048.000;-1061.000
377.147; -303.200; -786.000; -782.000
377.278;   38.500;  174.000;  228.000
377.408; -312.000; -801.000; -815.000
377.538; -242.400; -707.000; -693.000
377.669; -197.800; -537.000; -613.000
377.799; -224.800; -645.000; -635.000
377.929; -199.000; -610.000; -428.000
378.060; -260.400; -781.000; -847.000
378.190; -210.200; -726.000; -531.000
378.320; -125.400; -401.000; -406.000
378.451;  -37.400; -131.000;  -22.000
378.581;  -40.000;  -67.000; -110.000
378.711;  188.800; 1035.000;  866.000
378.841; -184.800; -533.000; -675.000
378.972; -285.800; -871.000; -751.000
379.102; -195.200; -652.000; -579.000
379.232;  -91.100; -126.000;  -73.000
379.362; -296.700;-1001.000; -885.000
379.492; -175.900; -373.000; -424.000
379.623;   21.600;    0.000;  111.000
379.753; -320.100;-1107.000; -974.000
379.883;   11.200;   59.000;  156.000
380.013; -373.500;-1081.000;-1017.000
380.143; -352.700;-1097.000;-1056.000
380.273; -297.700; -985.000; -861.000
380.403;  -88.500; -344.000; -257.000
380.533; -250.000; -651.000; -664.000
380.663;   15.500;  173.000;  128.000
380.793; -345.500;-1027.000;-1074.000
380.923;  -67.900; -103.000;  -34.000
381.053; -225.100; -613.000; -623.000
381.183;  -91.500; -106.000; -248.000
381.313; -231.700; -656.000; -470.000
381.443; -178.100; -692.000; -473.000
381.573; -170.700; -402.000; -409.000
381.703; -396.700;-1249.000;-1095.000
381.833; -422.100;-1454.000;-1336.000
381.963;  -27.500; -134.000;  -87.000
382.093; -299.000; -925.000; -909.000
382.223; -202.400; -713.000; -602.000
382.353; -244.400; -801.000; -608.000
382.482; -317.200;-1091.000; -964.000
382.612; -230.300; -872.000; -644.000
382.742; -230.400; -695.000; -622.000
382.872; -166.800; -565.000; -551.000
383.002;   13.100;  347.000; -132.000
383.131; -126.200; -226.000; -160.000
383.261; -225.100; -706.000; -768.000
383.391; -209.800; -552.000; -377.000
383.521;   49.900;  451.000;  263.000
383.650; -306.500; -947.000; -904.000
383.780; -194.600; -783.000; -656.000
383.910;  140.500;  880.000;  802.000
384.039; -266.300; -794.000; -656.000
384.169; -373.900;-1205.000;-1017.000
384.299; -229.900; -650.000; -662.000
384.428; -224.900; -764.000; -680.000
384.558;  -94.700; -308.000; -275.000
384.687; -133.300; -414.000; -334.000
384.817;  -13.700;   75.000;   -2.000
384.947;  -63.200; -234.000; -141.000
385.076;  246.200;  982.000;  912.000
385.206;   49.200;  369.000;  480.000
385.335; -160.300; -549.000; -417.000
385.465; -227.200; -655.000; -663.000
385.594;  -40.500;  -53.000;  -44.000
385.724; -275.900; -868.000; -838.000
385.853; -130.900; -296.000; -270.000
385.982; -251.100; -743.000; -787.000
386.112; -267.400;-1052.000; -871.000
386.241; -147.400; -307.000; -312.000
386.371;  -90.400; -174.000;  -87.000
386.500; -309.300; -825.000; -789.000
386.629; -256.300; -874.000; -817.000
386.759;  -38.300;  -43.000;   68.000
386.888;  -60.700; -170.000; -250.000
387.017; -208.200; -648.000; -620.000
387.147; -257.500; -771.000; -798.000
387.276; -196.700; -410.000; -397.000
387.405;  -88.900; -398.000; -342.000
387.535; -170.500; -452.000; -361.000
387.664; -221.700; -692.000; -620.000
387.793;  -88.400; -198.000; -113.000
387.922;   13.400;  255.000;  200.000
388.052; -192.200; -576.000; -423.000
388.181; -151.000; -342.000; -472.000
388.310; -231.300; -889.000; -710.000
388.439; -288.200; -749.000; -742.000
388.568;   23.500;  365.000;  244.000
388.697; -233.200; -756.000; -653.000
388.826; -218.100; -768.000; -666.000
388.956; -110.600; -285.000; -307.000
389.085; -137.000; -347.000; -287.000
389.214; -273.200; -842.000; -872.000
389.343; -196.200; -645.000; -413.000
389.472;   36.600;  126.000;  149.000
389.601;  -27.800;   91.000;    0.000
389.730; -202.700; -568.000; -687.000
389.859;   23.800;  226.000;   46.000
389.988; -126.900; -423.000; -408.000
390.117; -111.100; -168.000; -146.000
390.246; -114.200; -331.000; -320.000
390.375; -238.500; -673.000; -626.000
390.504; -198.100; -703.000; -621.000
390.633; -252.000; -672.000; -726.000
390.761; -258.000; -732.000; -645.000
390.890;  -66.800;   -4.000; -130.000
391.019; -160.900; -421.000; -441.000
391.148; -274.200; -826.000; -855.000
391.277; -183.100; -576.000; -493.000
391.406; -273.000; -821.000; -805.000
391.534;   43.400;  574.000; -301.000
391.663; -166.000; -583.000; -645.000
391.792; -241.000; -673.000; -701.000
391.921;  -62.100;   -3.000;   15.000
392.050;  -91.200; -287.000; -228.000
392.178; -385.500;-1206.000;-1061.000
392.307; -237.100; -758.000; -712.000
392.436; -214.700; -427.000; -641.000
392.564;  -18.600;  166.000;   -6.000
392.693; -251.700; -860.000; -682.000
392.822; -179.600; -529.000; -534.000
392.950; -249.500; -880.000; -714.000
393.079; -117.700; -188.000; -328.000
393.208; -208.900; -488.000; -511.000
393.336;  -60.300; -170.000; -145.000
393.465; -108.700; -317.000; -199.000
393.593;   -8.200;   62.000;   79.000
393.722; -328.000;-1121.000; -916.000
393.850;  -42.800; -188.000;  -61.000
393.979; -327.700; -926.000; -805.000
394.107; -189.200; -517.000; -537.000
394.236; -207.600; -570.000; -507.000
394.364;   51.700;  383.000;  206.000
394.493; -292.600; -911.000; -767.000
394.621; -293.100; -955.000; -916.000
394.750; -312.600; -873.000; -923.000
394.878;  -78.900; -247.000; -149.000
395.007; -272.400; -721.000; -807.000
395.135; -245.700; -790.000; -721.000
395.263; -357.000;-1038.000;-1040.000
395.392;  -30.400;  -25.000; -107.000
395.520; -247.700; -818.000; -679.000
395.648; -293.000; -865.000; -915.000
395.777; -170.200; -366.000; -405.000
395.905; -195.100; -449.000; -564.000
396.033;  -29.400;  217.000;  172.000
396.162; -152.900; -399.000; -453.000
396.290;  -50.700;  -17.000;   -2.000
396.418; -149.000; -555.000; -514.000
396.546; -301.000; -571.000; -466.000
396.674; -268.200; -850.000; -878.000
396.803;  -54.600;  -72.000;  -23.000
396.931;  -97.100; -179.000; -199.000
397.059; -341.500;-1026.000; -989.000
397.187; -323.500;-1026.000; -975.000
397.315; -290.300; -884.000; -649.000
397.443; -192.400; -592.000; -443.000
397.572; -176.200; -578.000; -424.000
397.700; -245.400; -607.000; -614.000
397.828;  -81.600;  120.000;  -90.000
397.956; -175.200; -508.000; -478.000
398.084; -266.600; -767.000; -626.000
398.212;   14.700;  137.000;  124.000
398.340;  -15.300;  -56.000;  159.000
398.468; -130.700; -390.000; -169.000
398.596; -316.900; -993.000; -953.000
398.724; -265.100; -762.000; -767.000
398.852; -331.100;-1024.000; -976.000
398.980; -174.600; -560.000; -560.000
399.108; -225.700; -982.000; -735.000
399.236;   -7.900;   13.000;    8.000
399.363;  -12.600;  222.000;  196.000
399.491; -145.600; -404.000; -398.000
399.619; -269.900; -829.000; -800.000
399.747; -264.400; -859.000; -771.000
399.875;   47.400;  220.000;  234.000
400.003; -110.000; -359.000; -284.000
400.130; -164.700; -421.000; -341.000
400.258;  -34.200;  -83.000;   38.000
400.386; -109.800; -352.000; -168.000
400.514; -175.000; -526.000; -587.000
400.641; -296.700; -928.000; -802.000
400.769; -303.500; -979.000; -888.000
400.897; -282.300; -838.000; -793.000
401.025;  -76.000; -166.000; -152.000
401.152;   28.400;  220.000;   38.000
401.280; -134.800; -430.000; -429.000
401.408; -244.100; -712.000; -576.000
401.535; -227.700; -735.000; -758.000
401.663; -407.300;-1134.000;-1054.000
401.790; -200.600; -514.000; -525.000
401.918;   82.500;  436.000;  405.000
402.046;  -19.900;  134.000;  122.000
402.173;  -69.700;  -18.000;    7.000
402.301; -151.600; -519.000; -397.000
402.428;   71.300;  528.000;  383.000
402.556; -341.900;-1188.000; -913.000
402.683;  -62.300;  -20.000;   -1.000
402.811;  -36.800;  -37.000; -206.000
402.938;  -49.400;   20.000;   27.000
403.066; -188.700; -574.000; -558.000
403.193;  -20.500;  299.000;  239.000
403.321; -143.200; -396.000; -574.000
403.448;   19.400;   83.000;   27.000
403.575;  -26.000;  -90.000;  -46.000
403.703; -261.000; -732.000; -557.000
403.830; -156.200; -531.000; -496.000
403.957; -333.000;-1117.000;-1023.000
404.085;  -72.600;  -61.000; -172.000
404.212;   -9.600;  -50.000;   63.000
404.339; -151.200; -566.000; -306.000
404.467; -179.200; -612.000; -524.000
404.594; -127.600; -287.000; -227.000
404.721; -253.900; -869.000; -764.000
404.848;  -70.100; -113.000; -202.000
404.976; -297.400; -856.000; -783.000
405.103;  -40.600;  -14.000;  -82.000
405.230;  -23.500;  190.000;  226.000
405.357;  -16.900;  117.000;   44.000
405.484;  -74.800;  -49.000;    5.000
405.612; -156.000; -548.000; -563.000
405.739; -158.400; -488.000; -243.000
405.866;  138.700;  669.000;  385.000
405.993; -138.200; -398.000; -102.000
406.120; -280.700; -801.000; -887.000
406.247; -153.200; -323.000; -342.000
406.374;  150.000;  540.000;  629.000
406.501; -234.700; -632.000; -702.000
406.628; -195.100; -621.000; -589.000
406.755; -259.900; -803.000; -620.000
406.882;  -90.900; -228.000; -277.000
407.009; -216.900; -719.000; -628.000
407.136; -123.100; -480.000; -401.000
407.263; -298.900; -939.000; -829.000
407.390; -209.300; -692.000; -614.000
407.517; -379.800;-1139.000;-1187.000
407.644; -146.400; -332.000; -256.000
407.771; -151.100; -249.000; -287.000
407.898;   35.200;  168.000;  328.000
408.025; -180.500; -421.000; -313.000
408.151;  -13.600;   82.000;  153.000
408.278; -157.900; -267.000; -216.000
408.405; -275.600; -931.000; -899.000
408.532; -200.000; -549.000; -542.000
408.659; -220.400; -677.000; -648.000
408.785; -384.500;-1298.000;-1170.000
408.912; -111.200; -412.000; -296.000
409.039; -210.400; -610.000; -686.000
409.166; -194.300; -591.000; -555.000
409.292; -199.700; -571.000; -534.000
409.419; -192.600; -665.000; -649.000
409.546; -131.200; -431.000; -192.000
409.672; -199.700; -713.000; -545.000
409.799;  -68.100;  -36.000;   34.000
409.926;  -82.900; -180.000; -179.000
410.052; -379.100;-1127.000;-1091.000
410.179; -174.700; -368.000; -392.000
410.305; -159.800; -375.000; -493.000
410.432;  -83.800; -220.000; -333.000
410.558; -183.900; -305.000; -380.000
410.685; -179.300; -688.000; -431.000
410.812; -191.400; -409.000; -588.000
410.938; -275.000; -964.000; -808.000
411.065; -224.600; -671.000; -645.000
411.191;  -70.600; -189.000; -174.000
411.317; -252.900; -823.000; -742.000
411.444; -138.200; -317.000; -246.000
411.570; -143.000; -339.000; -294.000
411.697; -227.700; -758.000; -752.000
411.823; -365.100; -989.000; -999.000
411.949;  -81.300;  -56.000;   17.000
412.076; -226.800; -539.000; -519.000
412.202; -245.100; -758.000; -757.000
412.329; -308.400; -798.000; -752.000
412.455; -238.300; -821.000; -657.000
412.581;  -53.200;  -15.000;  172.000
412.707; -169.000; -540.000; -457.000
412.834;    0.500;  156.000;  219.000
412.960; -252.300; -785.000; -784.000
413.086; -262.600; -743.000; -701.000
413.212;  120.600;  604.000;  578.000
413.339; -270.900; -685.000; -701.000
413.465; -153.400; -364.000; -310.000
413.591; -270.700; -757.000; -474.000
413.717; -118.200; -358.000; -366.000
413.843; -318.600; -839.000; -861.000
413.969; -137.500;  -47.000; -292.000
414.096; -268.800; -679.000; -679.000
414.222;  -21.300;  -33.000;   85.000
414.348; -252.900; -652.000; -385.000
414.474;  -55.700;   38.000;  -52.000
414.600;  -78.400; -126.000; -144.000
414.726;  -72.200;  -96.000;  -55.000
414.852; -193.000; -365.000; -342.000
414.978;  -13.700;  104.000;  -18.000
415.104;  -10.600;   38.000;   80.000
415.230; -119.800; -329.000; -330.000
415.356; -205.800; -409.000; -514.000
415.482;  -69.300;   13.000;  -35.000
415.608; -100.700; -247.000; -323.000
415.734;  -20.000;   67.000;   38.000
415.860; -293.300; -875.000; -767.000
415.986; -244.400; -685.000; -607.000
416.111; -282.900; -798.000; -652.000
416.237; -152.500; -424.000; -571.000
416.363; -274.200; -765.000; -733.000
416.489; -125.000; -324.000; -251.000
416.615; -279.100; -707.000; -742.000
416.741; -225.500; -677.000; -784.000
416.866; -269.700; -673.000; -736.000
416.992; -320.200; -801.000; -818.000
417.118; -141.100;  -41.000;  -80.000
417.244; -242.200; -798.000; -531.000
417.369; -278.400; -801.000; -612.000
417.495; -145.600; -325.000; -254.000
417.621; -325.200;-1015.000; -803.000
417.746; -163.000; -579.000; -572.000
417.872;  -70.300; -254.000; -144.000
417.998; -183.100; -515.000; -530.000
418.123; -336.200;-1073.000; -845.000
418.249; -172.400; -512.000; -601.000
418.374; -314.800; -916.000; -824.000
418.500; -173.700; -383.000; -482.000
418.626;  -44.700;   70.000;  -59.000
418.751; -184.600; -549.000; -448.000
418.877; -229.800; -637.000; -643.000
419.002; -155.700; -688.000; -560.000
419.128; -285.500; -930.000; -721.000
419.253; -295.400; -967.000; -837.000
419.379; -203.500; -391.000; -338.000
419.504;   87.000;  325.000;  415.000
419.629; -116.600; -393.000; -212.000
419.755; -107.800; -317.000; -254.000
419.880; -126.900;  -98.000;   67.000
420.006;  -99.800; -280.000; -221.000
420.131; -277.700; -662.000; -775.000
420.256; -139.200; -315.000; -316.000
420.382; -229.700; -665.000; -687.000
420.507; -234.500; -649.000; -778.000
420.632; -181.000; -337.000; -339.000
420.758; -111.800; -251.000; -425.000
420.883; -275.500; -876.000; -672.000
421.008; -228.400; -775.000; -619.000
421.133; -206.800; -509.000; -467.000
421.259; -110.000; -325.000; -259.000
421.384; -275.800; -834.000; -693.000
421.509; -292.900;-1052.000; -862.000
421.634; -328.600; -936.000; -820.000
421.759; -194.300; -359.000; -327.000
421.885; -232.600; -717.000; -656.000
422.010; -197.100; -673.000; -542.000
422.135; -302.500; -695.000; -727.000
422.260;   57.200;  340.000;  280.000
422.385;  -83.500;   12.000;  -98.000
422.510;    8.200;  151.000;  -26.000
422.635;  -69.600;  -87.000;  -43.000
422.760; -239.500; -766.000; -791.000
422.885;  -44.800;  -57.000;  -80.000
423.010;  -59.200; -112.000; -169.000
423.135; -208.800; -481.000; -561.000
423.260;  -63.500; -150.000; -245.000
423.385;   44.100;  476.000;  222.000
423.510;    4.200;   71.000;  -22.000
423.635;  -54.900;  133.000;   45.000
423.760;   67.100;  383.000;  328.000
423.885;   38.500;  336.000;  391.000
424.010;  -49.400;  -68.000;  -13.000
424.135;  -83.500;    5.000;  -33.000
424.259; -160.600; -654.000; -457.000
424.384; -186.100; -279.000; -272.000
424.509;  -94.000; -260.000; -186.000
424.634; -261.600; -761.000; -623.000
424.759; -199.000; -688.000; -544.000
424.883; -186.100; -506.000; -527.000
425.008; -197.900; -502.000; -410.000
425.133; -260.700; -679.000; -653.000
425.258; -206.600; -517.000; -381.000
425.382; -269.700; -867.000; -774.000
425.507; -216.500; -487.000; -543.000
425.632; -254.100; -802.000; -663.000
425.756; -104.100; -256.000; -146.000
425.881; -238.000; -831.000; -857.000
426.006; -133.400; -604.000; -355.000
426.130; -241.600; -696.000; -508.000
426.255; -200.100; -611.000; -491.000
426.379; -109.100; -189.000; -577.000
426.504;  123.900;  660.000;  544.000
426.629; -203.000; -519.000; -466.000
426.753;  -40.600;   64.000;  -46.000
426.878;  -97.300; -252.000; -288.000
427.002; -178.200; -651.000; -668.000
427.127; -131.800;  -35.000; -158.000
427.251;   68.400;  372.000;  401.000
427.375; -149.500; -191.000; -173.000
427.500; -217.000; -616.000; -610.000
427.624; -166.800; -234.000; -400.000
427.749; -135.000; -216.000; -225.000
427.873; -184.600; -499.000; -412.000
427.997;  -95.400; -222.000; -230.000
428.122;  130.900;  795.000;  703.000
428.246;   66.500;  433.000;  434.000
428.371; -307.400; -869.000; -773.000
428.495; -254.700; -624.000; -646.000
428.619; -125.600; -186.000; -117.000
428.743;   -3.200;   65.000;  132.000
428.868; -270.600; -732.000; -643.000
428.992; -129.200; -219.000; -326.000
429.116; -164.000; -329.000; -357.000
429.240;   43.600;  419.000;  426.000
429.365; -185.000; -454.000; -574.000
429.489; -245.000; -638.000; -647.000
429.613; -115.500; -236.000; -177.000
429.737; -185.700; -563.000; -432.000
429.861; -128.700; -247.000; -133.000
429.985; -175.800; -425.000; -305.000
430.109; -338.600; -770.000; -908.000
430.234;  -13.900;   76.000;  -50.000
430.358; -116.900; -250.000; -160.000
430.482; -257.000; -672.000; -564.000
430.606; -209.900; -655.000; -375.000
430.730; -161.700; -437.000; -388.000
430.854; -296.400; -909.000; -835.000
430.978; -274.600; -795.000; -764.000
431.102; -197.100; -499.000; -422.000
431.226; -271.100; -874.000; -815.000
431.350;   46.000;  345.000;  422.000
431.474; -180.100; -661.000; -373.000
431.597; -327.600;-1060.000; -848.000
431.721; -159.100; -276.000; -267.000
431.845; -246.700; -704.000; -472.000
431.969; -127.700; -304.000; -349.000
432.093; -202.500; -395.000; -317.000
432.217;  -14.900;   32.000;   82.000
432.341; -213.400; -523.000; -518.000
432.464;  -31.600;   96.000;   40.000
432.588; -209.000; -401.000; -329.000
432.712;  -53.200;  -52.000;  -52.000
432.836;   29.600;  213.000;  263.000
432.959; -144.100; -372.000; -311.000
433.083;  -66.000;   11.000;    2.000
433.207;  110.300;  285.000;  930.000
433.330; -128.700; -391.000; -200.000
433.454; -219.900; -654.000; -638.000
433.578;  106.900;  583.000;  278.000
433.701; -253.000; -623.000; -675.000
433.825; -175.100; -292.000; -299.000
433.949;  -48.800;   28.000;  -72.000
434.072; -171.300; -410.000; -323.000
434.196; -108.900; -309.000; -117.000
434.319; 7874.800;25482.000;25124.000
434.443; -194.200; -656.000; -603.000
434.566;  -18.300;  281.000;   62.000
434.690; -178.800; -637.000; -383.000
434.813; -114.100; -251.000; -173.000
434.937; -201.700; -569.000; -696.000
435.060; -177.800; -423.000; -332.000
435.184; -137.000; -492.000; -217.000
435.307;  -52.400;  159.000;  102.000
435.431;  -26.900;  -40.000;   24.000
435.554; -119.900; -399.000; -240.000
435.677; -110.800; -350.000; -258.000
435.801;  -37.700;  -25.000;   49.000
435.924;  -49.800;    1.000;  -67.000
436.048; -337.500;-1019.000; -732.000
436.171; -129.600; -240.000;  -66.000
436.294; -142.900; -248.000; -229.000
436.417; -310.000; -963.000; -849.000
436.541; -293.500; -814.000; -840.000
436.664;  -91.400; -242.000; -316.000
436.787;  -23.200;   13.000;  113.000
436.910; -218.300; -792.000; -422.000
437.034;  -20.300;  142.000;  143.000
437.157;   -1.600;  -11.000;    0.000
437.280; -198.300; -392.000; -292.000
437.403; -291.500; -982.000; -869.000
437.526; -329.600; -903.000; -865.000
437.649; -194.500; -505.000; -332.000
437.772; -231.500; -692.000; -540.000
437.896;  132.600;  700.000;  544.000
438.019; -262.200; -758.000; -503.000
438.142; -184.200; -596.000; -506.000
438.265; -266.600; -639.000; -670.000
438.388; -152.300; -520.000; -410.000
438.511; -204.100; -597.000; -394.000
438.634; -170.400; -247.000; -125.000
438.757; -290.200; -693.000; -619.000
438.880; -103.000;  -34.000;  -57.000
439.003; -189.400; -417.000; -437.000
439.126; -120.800; -287.000; -167.000
439.248; -105.400;  -98.000; -139.000
439.371;  -30.000;    9.000;  -53.000
439.494;   87.500;  510.000;  439.000
439.617;  -72.500;   65.000;  -88.000
439.740; -355.000; -968.000; -816.000
439.863; -235.700; -755.000; -595.000
439.986; -222.900; -476.000; -431.000
440.108;  -92.500; -161.000; -112.000
440.231; -324.300; -950.000; -836.000
440.354;  -86.500;  -64.000; -150.000
440.477; -220.300; -566.000; -542.000
440.599; -173.100; -200.000; -225.000
440.722; -223.400; -709.000; -586.000
440.845;  196.200;  751.000;  928.000
440.968; -166.700; -415.000; -311.000
441.090; -100.400; -199.000;  -33.000
441.213; -299.200;-1021.000; -825.000
441.336;  -68.900; -159.000;   -5.000
441.458; -168.200; -549.000; -396.000
441.581; -239.600; -628.000; -629.000
441.703; -116.900; -152.000;   13.000
441.826; -165.700; -557.000; -400.000
441.948;  -66.100;   56.000;   51.000
442.071;  114.300;  555.000;  424.000
442.193; -243.800; -531.000; -485.000
442.316;  -10.000;  152.000;   97.000
442.438; -134.500; -233.000;  -10.000
442.561;   22.500;  272.000;  262.000
442.683; -247.700; -809.000; -522.000
442.806;  -36.000;   -8.000;   74.000
442.928; -277.700; -859.000; -604.000
443.051; -206.100; -577.000; -373.000
443.173; -181.100; -341.000; -339.000
443.295; -150.500; -263.000; -371.000
443.418; -156.200; -321.000;  -29.000
443.540;  -78.400; -106.000;   -4.000
443.662; -233.900; -563.000; -465.000
443.785;   50.900;  335.000;  199.000
443.907; -176.300; -362.000; -208.000
444.029; -240.900; -767.000; -494.000
444.152; -302.500; -644.000; -554.000
444.274;  -48.100;  -18.000;  -24.000
444.396; -183.500; -461.000; -221.000
444.518; -225.200; -691.000; -454.000
444.640; -181.200; -268.000; -111.000
444.763;   25.300;  388.000;  249.000
444.885; -220.200; -432.000; -392.000
445.007;  -43.800;   35.000;   86.000
445.129; -235.500; -610.000; -515.000
445.251; -196.000; -372.000; -439.000
445.373; -265.200; -537.000; -386.000
445.495;   62.600;  242.000;  350.000
445.617;  132.300;  853.000;  753.000
445.739; -116.900; -215.000;  -97.000
445.861; -101.400; -245.000; -112.000
445.984; -107.100; -267.000; -101.000
446.105; -186.800; -418.000; -251.000
446.227;  -98.800; -176.000;  -19.000
446.349; -228.500; -358.000; -249.000
446.471; -221.400; -615.000; -448.000
446.593; -167.200; -316.000;   19.000
446.715;  -67.100;  -67.000;   41.000
446.837;  123.100;  697.000;  832.000
446.959; -197.100; -457.000; -478.000
447.081; -241.700; -628.000; -518.000
447.203;  160.400;  862.000;  834.000
447.325; -144.800; -270.000;   42.000
447.446;  -10.100;  286.000;  530.000
447.568; -317.300; -921.000; -803.000
447.690; -154.500; -236.000; -245.000
447.812; -278.900; -798.000; -519.000
447.933;   -1.700;  155.000;  127.000
448.055; -129.900; -306.000; -261.000
448.177;  -26.800;   31.000;   79.000
448.299; -368.800; -935.000; -727.000
448.420;  -15.600;  -25.000;  159.000
448.542; -104.700;   -3.000;   33.000
448.664;  -27.100;  109.000;  322.000
448.785;  -43.400;  265.000;   83.000
448.907; -185.700; -614.000; -353.000
449.028; -277.100; -771.000; -471.000
449.150;  138.100;  492.000;  589.000
449.272; -344.700;-1044.000; -913.000
449.393;  125.700;  612.000;  694.000
449.515; -300.800; -634.000; -581.000
449.636; -153.400; -264.000; -155.000
449.758;   91.300;  763.000;  622.000
449.879; -195.200; -498.000; -396.000
450.001; -144.400; -149.000;  -49.000
450.122;  -42.900;  -95.000;  162.000
450.244;  -36.600;   37.000;  364.000
450.365; -182.600; -495.000; -301.000
450.486; -108.300;   80.000;  268.000
450.608;   29.100;  393.000;  326.000
450.729;   93.500;  578.000;  645.000
450.850; -221.200; -574.000; -466.000
450.972; -246.400; -552.000; -389.000
451.093;   18.800;  190.000;  588.000
451.214; -207.200; -516.000; -337.000
451.336;   72.000;  773.000;  579.000
451.457;   22.300;  264.000;  393.000
451.578; -113.300; -118.000;  -74.000
451.699; -229.300; -546.000; -540.000
451.821; -102.400; -284.000;  -50.000
451.942;  -25.300;  278.000;  285.000
452.063;   31.700;  228.000;  419.000
452.184; -116.800;  -54.000;  -49.000
452.305;  -33.200;  103.000;  170.000
452.427; -196.700; -549.000; -301.000
452.548;  -75.100;   23.000;   79.000
452.669; -136.100; -257.000;  -89.000
452.790;  -93.300;    3.000;  -18.000
452.911;  -37.100;  195.000;  259.000
453.032; -126.900; -289.000;  -60.000
453.153;  -83.100;  -29.000;   81.000
453.274;  169.000;  737.000;  868.000
453.395;  -86.400;  -51.000;  175.000
453.516;  260.400; 1317.000; 1388.000
453.637; -143.200; -205.000; -150.000
453.758;  -92.600;   15.000;   69.000
453.879; -201.900; -462.000; -250.000
454.000;  208.300; 1086.000;  948.000
454.121; -265.000; -554.000; -326.000
454.242; -218.600; -599.000; -383.000
454.362;  -95.000;  -99.000;  114.000
454.483; -145.600; -309.000; -229.000
454.604;   51.100;  512.000;  580.000
454.725; -264.700; -627.000; -555.000
454.846; -235.300; -474.000; -406.000
454.967;   17.600;  230.000;  539.000
455.087;  -61.700;  179.000;  153.000
455.208;   66.000;  554.000;  856.000
455.329;  -96.200;  -22.000;   82.000
455.450;   43.100;  473.000;  633.000
455.570; -157.300; -234.000; -211.000
455.691;  -43.900;  201.000;  407.000
455.812; -155.700; -270.000;  -92.000
455.932;  -77.000;  107.000;  -97.000
456.053; -124.600;   36.000;   24.000
456.173; -183.200; -433.000; -355.000
456.294; -252.300; -476.000; -303.000
456.415;  -82.900;  -73.000;   70.000
456.535;    0.800;  297.000;  273.000
456.656;  -49.600;  132.000;  240.000
456.776; -103.100;    3.000;  298.000
456.897;   41.600;  308.000;  513.000
457.017; -149.600; -153.000;   -3.000
457.138; -193.500; -402.000; -249.000
457.258;  -46.400;  263.000;  224.000
457.379;   47.800;  509.000;  521.000
457.499;  -10.800;  443.000;  432.000
457.620; -218.800; -407.000; -231.000
457.740; -144.100; -132.000;  -11.000
457.860;  -89.000;   87.000;   44.000
457.981; -121.700;  132.000;  124.000
458.101; -142.900;  -89.000;   40.000
458.221;  -10.200;  336.000;  402.000
458.342;  -59.200;   -4.000;  -37.000
458.462;  -18.300;  617.000;  352.000
458.582; -163.600; -302.000; -294.000
458.703;  -79.400;  303.000;  154.000
458.823; -121.400;   22.000;  163.000
458.943;  -21.800;  341.000;  467.000
459.063; -109.800; 1124.000;  192.000
459.183;  -68.900;  328.000;  313.000
459.304;   47.800;  315.000;  517.000
459.424; -161.700; -246.000;  -89.000
459.544;   77.700;  388.000;  764.000
459.664;   29.300;  499.000;  506.000
459.784;  157.300; 1004.000; 1175.000
459.904;   87.700;  867.000;  744.000
460.024;  141.900;  867.000;  684.000
460.144;   36.200;  449.000;  554.000
460.264;   53.300;  515.000;  327.000
460.385; -148.600; -145.000; -119.000
460.505;  139.700;  905.000;  858.000
460.625; -122.200;  -17.000;  -68.000
460.745;    7.900;  396.000;  541.000
460.864;  -63.100;  153.000;  469.000
460.984;   31.800;  499.000;  573.000
461.104;  324.300; 1656.000; 1775.000
461.224;   90.300;  657.000;  650.000
461.344;  -30.500;  431.000;  360.000
461.464;  -24.400;  258.000;  513.000
461.584;  -10.100;  283.000;  466.000
461.704;  -65.900;   58.000;  108.000
461.824;  -73.600;  238.000;  259.000
461.943;  -30.500;  191.000;  130.000
462.063; -114.800;    2.000;  324.000
462.183;  103.500;  639.000;  717.000
462.303;  214.600; 1678.000; 1230.000
462.422;   95.900;  781.000;  840.000
462.542;  -71.100;  271.000;  391.000
462.662;   59.500;  353.000;  380.000
462.782;   47.600;  833.000;  572.000
462.901;    0.500;  545.000;  717.000
463.021;  334.800; 1702.000; 1638.000
463.141;    7.200;  337.000;  770.000
463.260;   -4.600;  614.000;  474.000
463.380;   70.200;  902.000;  884.000
463.499;  -78.900;  342.000;  332.000
463.619;  -16.300;  581.000;  559.000
463.738;  265.100; 1644.000;  903.000
463.858;   60.900;  657.000;  811.000
463.978;  -60.400;  542.000;  396.000
464.097;  136.800;  921.000; 1114.000
464.217;  176.500; 1196.000; 1143.000
464.336;  201.700; 1068.000; 1130.000
464.455;  -65.100;  328.000;  659.000
464.575;   54.300;  597.000;  602.000
464.694;  192.400; 1204.000; 1179.000
464.814;  109.800; 1190.000; 1138.000
464.933;  144.400; 1095.000; 1027.000
465.052;  248.400; 1412.000; 1054.000
465.172;   66.700;  922.000;  799.000
465.291;  246.000; 1376.000; 1320.000
465.410;    7.600;  462.000;  735.000
465.530;  209.700; 1355.000; 1310.000
465.649;  179.200; 1209.000; 1273.000
465.768;  270.100; 1673.000; 1508.000
465.888;  115.200;  941.000; 1174.000
466.007;  226.900; 1335.000; 1440.000
466.126;   36.600;  721.000;  641.000
466.245;  160.400; 1176.000; 1187.000
466.364;   45.200;  950.000; 1060.000
466.484;  173.300; 1024.000; 1213.000
466.603;  156.800; 1101.000; 1222.000
466.722;  260.800; 1490.000; 1769.000
466.841;  193.100; 1151.000; 1401.000
466.960;  100.600; 1069.000;  972.000
467.079;  359.400; 1971.000; 1786.000
467.198;  152.100; 1238.000; 1181.000
467.317;  242.000; 1768.000; 1162.000
467.436;  188.400; 1709.000; 1261.000
467.555;  322.800; 1796.000; 1746.000
467.674;  204.300; 1227.000; 1329.000
467.793;  166.600; 1376.000; 1374.000
467.912;  209.100; 1658.000; 1539.000
468.031;  322.100; 2038.000; 1930.000
468.150;  317.100; 1842.000; 1837.000
468.269;  411.500; 2313.000; 2090.000
468.388;  454.200; 2168.000; 2339.000
468.507;  582.400; 2884.000; 2903.000
468.626;  622.200; 2555.000; 2541.000
468.744;  327.800; 2018.000; 2174.000
468.863;  428.100; 2312.000; 2523.000
468.982;  243.600; 1503.000; 1555.000
469.101;  521.000; 2788.000; 2692.000
469.220;  342.700; 2333.000; 2176.000
469.338;  594.700; 2935.000; 3051.000
469.457;  423.900; 2719.000; 2545.000
469.576;  808.300; 3953.000; 3784.000
469.695;  513.500; 2877.000; 3066.000
469.813;  929.500; 4148.000; 4192.000
469.932;  837.700; 4255.000; 4485.000
470.051;  821.300; 4075.000; 4161.000
470.169;  867.200; 4470.000; 4338.000
470.288;  911.000; 4700.000; 4809.000
470.406;  976.300; 5059.000; 5194.000
470.525; 1228.600; 6101.000; 5787.000
470.644; 1343.500; 6847.000; 6794.000
470.762; 1688.800; 8397.000; 7873.000
470.881; 1773.100; 8651.000; 8464.000
470.999; 2046.200; 9685.000; 9151.000
471.118; 2238.000;11174.000;10711.000

