
Integration time [ms]: 200.000
Averaging Nr. [scans]: 10
Smoothing Nr. [pixels]: 0
Data measured with spectrometer [name]: 2101012U2
Wave   ;Sample   ;Dark     ;Reference
[nm]   ;[counts] ;[counts] ;[counts] 

197.733;  106.100;  516.000;  404.000
197.879; -178.400; -610.000; -634.000
198.025; -111.900; -475.000; -420.000
198.171; -136.200; -602.000; -612.000
198.317;  -87.700; -401.000; -316.000
198.463; -120.000; -655.000; -404.000
198.609;   49.400;  181.000; -137.000
198.755; -177.200; -644.000; -410.000
198.901; -162.600; -505.000; -424.000
199.047; -150.800; -615.000; -488.000
199.193;  -85.500; -230.000; -468.000
199.339;  -88.700; -222.000; -369.000
199.485;  103.500;  330.000;  271.000
199.631;   38.500;  227.000;  310.000
199.777; -127.200; -466.000; -398.000
199.923; -127.400; -610.000; -424.000
200.069;  -12.200; -141.000;  -58.000
200.215;  106.200;  128.000;  453.000
200.361;   85.000;  243.000;  477.000
200.507;  -98.100; -600.000; -373.000
200.653;  -73.100; -371.000; -194.000
200.798;  -69.100; -215.000; -125.000
200.944;   -4.800; -146.000;  -41.000
201.090;   67.500;   61.000;  222.000
201.236;    6.500; -116.000; -158.000
201.382;  279.900;  874.000;  903.000
201.528;   -8.100;  -58.000;  -48.000
201.674;  -54.300; -386.000; -293.000
201.819; -138.600; -540.000; -439.000
201.965; -171.900; -699.000; -447.000
202.111;  -39.600; -273.000; -226.000
202.257;  -54.200; -250.000; -238.000
202.402;   38.300;   13.000;  -36.000
202.548;  -67.700; -169.000; -116.000
202.694;  170.100;  410.000; -183.000
202.840; -170.800; -603.000; -531.000
202.985; -182.700; -681.000; -639.000
203.131; -231.500; -832.000; -666.000
203.277;  -58.700; -199.000; -262.000
203.423; -107.000; -434.000; -520.000
203.568;  -80.200; -462.000; -237.000
203.714; -119.100; -535.000; -542.000
203.860; -186.500; -682.000; -641.000
204.005;   36.100;  112.000;  167.000
204.151;  158.100;  561.000;  556.000
204.296;  -75.400; -354.000; -221.000
204.442; -149.600; -600.000; -547.000
204.588; -139.100; -592.000; -579.000
204.733;   18.400;  178.000;  168.000
204.879; -251.800;-1018.000; -822.000
205.025;   30.900;  -99.000;  126.000
205.170;    9.400;  -17.000;   94.000
205.316;  149.700;  438.000;  661.000
205.461; -170.000; -698.000; -554.000
205.607;  207.200;  609.000;  665.000
205.752; -150.500; -626.000; -551.000
205.898; -134.900; -501.000; -391.000
206.043; -114.100; -578.000; -506.000
206.189; -116.200; -243.000; -285.000
206.334;  142.400;  554.000;  606.000
206.480;  115.900;  409.000;  239.000
206.625; -123.900; -529.000; -552.000
206.771; -102.900; -451.000; -373.000
206.916;  -54.200; -210.000; -537.000
207.062; -156.700; -545.000; -591.000
207.207;  -96.300; -546.000; -443.000
207.353;  127.000;  185.000;  460.000
207.498;   21.100;  196.000;   85.000
207.643; -125.500; -501.000; -370.000
207.789; -247.200;-1069.000; -910.000
207.934; -173.000; -665.000; -713.000
208.080;  -35.200; -154.000;   66.000
208.225;  -22.000;  -22.000;  -57.000
208.370; -187.200; -727.000; -619.000
208.516; -166.500; -741.000; -487.000
208.661;  -57.300; -127.000;  -69.000
208.806;  -48.600; -165.000; -171.000
208.952; -266.800;-1044.000; -731.000
209.097;  138.100;  378.000;  349.000
209.242; -116.100; -307.000; -382.000
209.387;  114.700;  392.000;  350.000
209.533; -120.100; -321.000; -350.000
209.678;  200.600;  472.000;  543.000
209.823; -113.100; -408.000; -310.000
209.969; -209.100; -860.000; -757.000
210.114; -206.900; -907.000; -719.000
210.259; -267.000; -939.000; -889.000
210.404;    9.600; -171.000;  103.000
210.549;   28.800;  108.000;    3.000
210.695;  -36.800;   -3.000;  -95.000
210.840;   75.400;   94.000;   67.000
210.985; -124.600; -484.000; -303.000
211.130;  164.500;  268.000;  406.000
211.275;   72.300;  207.000;  199.000
211.420;  -99.000; -300.000; -289.000
211.566; -146.600; -536.000; -489.000
211.711;   45.900;  218.000;  157.000
211.856; -114.700; -545.000; -519.000
212.001;    2.600;  151.000;   44.000
212.146;   34.900;  153.000;   49.000
212.291;  -16.400; -210.000; -186.000
212.436;  -29.500; -280.000;   -6.000
212.581; -174.100; -685.000; -653.000
212.726; -148.600; -487.000; -538.000
212.871; -112.900; -552.000; -217.000
213.016; -328.400;-1172.000;-1029.000
213.161;  124.400;  406.000;  291.000
213.306; -169.100; -435.000; -577.000
213.451; -204.300; -778.000; -689.000
213.596;  -61.100; -455.000; -347.000
213.741; -140.300; -448.000; -538.000
213.886; -158.800; -498.000; -517.000
214.031;  -66.200; -294.000; -124.000
214.176;  -85.800; -408.000; -341.000
214.321;  -38.100; -296.000; -157.000
214.466;  -38.100; -163.000;  -43.000
214.611;   -8.400;  -61.000;  -10.000
214.756; -251.500; -948.000; -858.000
214.901;  -61.200; -388.000; -226.000
215.046; -250.900; -797.000; -825.000
215.191;   39.400;  128.000;   35.000
215.336;  -23.800; -157.000;  -19.000
215.480; -146.300; -684.000; -505.000
215.625;  -18.100; -175.000;  -19.000
215.770; -184.400; -757.000; -662.000
215.915;  -30.200;   -5.000;  -97.000
216.060;    6.000; -113.000;  -21.000
216.205; -228.900; -731.000; -779.000
216.349; -139.200; -470.000; -533.000
216.494; -268.600; -939.000; -867.000
216.639; -252.300; -823.000; -888.000
216.784; -156.300; -577.000; -525.000
216.929;  121.000;  392.000;  281.000
217.073;   19.100; -244.000;  -31.000
217.218;   13.100;   78.000;  -47.000
217.363; -183.700; -656.000; -618.000
217.507; -176.700; -623.000; -588.000
217.652; -273.100; -845.000; -874.000
217.797; -204.200; -708.000; -659.000
217.942; -228.800; -856.000; -720.000
218.086;  152.900;  608.000;  539.000
218.231;  -31.900; -174.000;  -26.000
218.376;  -82.700; -337.000; -229.000
218.520;   38.200;  -41.000;   96.000
218.665;  -76.400; -338.000; -204.000
218.810;  -62.300; -275.000; -233.000
218.954;   11.600;  201.000;   35.000
219.099; -213.900; -713.000; -963.000
219.243; -129.900; -589.000; -554.000
219.388;  -59.300; -264.000; -136.000
219.532;  -25.400; -116.000; -116.000
219.677; -132.200; -564.000; -521.000
219.822;   10.000;   33.000;   89.000
219.966;   37.100;   17.000;  -99.000
220.111;  -62.000; -328.000;  -40.000
220.255; -183.600; -797.000; -750.000
220.400;  -34.600; -180.000; -146.000
220.544; -129.500; -516.000; -450.000
220.689; -112.600; -422.000; -451.000
220.833;  -36.600; -123.000;  -58.000
220.978;  -78.900; -393.000; -563.000
221.122;   57.700;  319.000;  307.000
221.267; -244.000; -906.000; -837.000
221.411; -111.100; -478.000; -394.000
221.555;   -9.300; -104.000;  -23.000
221.700; -102.100; -329.000; -222.000
221.844;   94.900;  255.000;  272.000
221.989;  -69.600; -328.000; -311.000
222.133;  -79.400; -289.000; -307.000
222.277;   18.700;    5.000;   78.000
222.422;   33.400;  227.000;  113.000
222.566;  -95.100; -381.000; -214.000
222.711; -111.700; -414.000; -479.000
222.855; -157.100; -643.000; -586.000
222.999; -189.900; -642.000; -717.000
223.144;  -28.300; -195.000; -194.000
223.288;  152.200;  423.000;  251.000
223.432;   33.000;  184.000;  230.000
223.576;   35.500;  152.000;  -21.000
223.721;  118.300;  364.000;  273.000
223.865; -139.600; -472.000; -475.000
224.009;  524.000; 1673.000; 1631.000
224.153; -158.200; -660.000; -671.000
224.298; -137.300; -531.000; -489.000
224.442;  -10.600;  -74.000;  -33.000
224.586;  -23.600; -169.000; -106.000
224.730; -214.200; -858.000; -670.000
224.875; -218.500; -739.000; -688.000
225.019;   23.400;  102.000;  188.000
225.163;  128.100;  208.000;  341.000
225.307;   18.500;   97.000;  -91.000
225.451;  128.200;  360.000;  481.000
225.595;   95.200;  264.000;  176.000
225.739;  -36.300; -170.000;  -94.000
225.884;    3.600;   86.000;    5.000
226.028; -197.100; -760.000; -626.000
226.172;  -64.600; -260.000; -273.000
226.316; -226.800; -941.000; -902.000
226.460; -144.900; -645.000; -493.000
226.604; -104.900; -406.000; -400.000
226.748; -226.000; -836.000; -733.000
226.892;  -72.100; -227.000; -181.000
227.036;  -82.800; -537.000; -447.000
227.180; -104.100; -551.000; -375.000
227.324; -158.300; -561.000; -580.000
227.468; -246.100; -819.000; -717.000
227.612;   25.800;  242.000;  -28.000
227.756; -195.000; -845.000; -698.000
227.900;  113.500;  342.000;  441.000
228.044; -109.500; -509.000; -290.000
228.188;  144.800;  448.000;  568.000
228.332; -202.900; -546.000; -472.000
228.476;  -31.000; -223.000; -149.000
228.620;  -49.200; -210.000; -150.000
228.764;  170.900;  431.000;  349.000
228.908;  -24.200; -155.000;   30.000
229.052; -106.800; -615.000; -528.000
229.195;   -8.900; -172.000;   13.000
229.339;  -55.900; -235.000; -305.000
229.483;  -45.000;    5.000; -162.000
229.627;   -4.400; -156.000;  139.000
229.771;  -67.700; -218.000; -294.000
229.915;   43.400;  230.000;   79.000
230.059; -167.600; -648.000; -663.000
230.202;  -95.500; -370.000; -317.000
230.346;  -13.700; -107.000;  107.000
230.490; -129.000; -489.000; -521.000
230.634; -218.700; -736.000; -553.000
230.777;  156.100;  478.000;  509.000
230.921; -101.700; -450.000; -359.000
231.065;  -48.200; -246.000; -286.000
231.209;   69.700;  261.000;  265.000
231.352;   23.200;   54.000;   40.000
231.496;   54.400;  568.000;  188.000
231.640; -162.500; -693.000; -621.000
231.783;  183.800;  546.000;  525.000
231.927;  -79.200; -294.000; -365.000
232.071; -251.800; -962.000; -736.000
232.214; -226.200; -980.000; -764.000
232.358; -157.200; -683.000; -599.000
232.502;  -32.700;  -19.000;    7.000
232.645; -300.600;-1090.000; -927.000
232.789;  -85.700; -257.000; -218.000
232.933;  -69.200; -407.000; -224.000
233.076; -259.400;-1038.000; -897.000
233.220; -206.000; -752.000; -777.000
233.363; -139.800; -669.000; -477.000
233.507;  161.900;  371.000;  129.000
233.650; -212.800; -764.000; -834.000
233.794;  100.200;  438.000;  461.000
233.938; -133.200; -530.000; -362.000
234.081;    2.300;  -93.000;   31.000
234.225; -166.300; -631.000; -539.000
234.368; -247.800; -773.000; -723.000
234.512;  -98.300; -385.000; -299.000
234.655; -189.200; -582.000; -555.000
234.798; -131.600; -493.000; -466.000
234.942; -237.400; -884.000;-1002.000
235.085; -129.800; -651.000; -443.000
235.229; -119.700; -405.000; -410.000
235.372;  -88.800; -247.000; -191.000
235.516; -134.200; -397.000; -321.000
235.659;   56.900;   92.000;  121.000
235.802;   -8.200;  -38.000;  -22.000
235.946;   58.300;  335.000;  215.000
236.089;   55.900;  126.000;  250.000
236.233;  110.400;  275.000;  298.000
236.376;  -88.700; -235.000; -378.000
236.519;  -94.400; -297.000; -319.000
236.663;  -37.700; -215.000; -117.000
236.806; -289.600;-1029.000; -999.000
236.949;  158.400;  543.000;  431.000
237.092;  130.100;  412.000;  391.000
237.236; -145.300; -589.000; -502.000
237.379;  178.500;  352.000;  428.000
237.522; -224.200; -879.000; -768.000
237.666;  -28.800; -271.000;   18.000
237.809; -255.100; -851.000; -823.000
237.952;   92.800;  469.000;  271.000
238.095; -116.900; -447.000; -442.000
238.238;  172.800;  688.000;  700.000
238.382;    0.700;  166.000;  103.000
238.525; -143.400; -598.000; -511.000
238.668; -280.000;-1060.000; -985.000
238.811; -174.000; -638.000; -643.000
238.954; -104.400; -483.000; -334.000
239.097;  197.500;  617.000;  664.000
239.241;   53.000;  394.000;  326.000
239.384;  -55.400; -254.000; -214.000
239.527; -103.400; -424.000; -224.000
239.670; -316.700; -994.000;-1091.000
239.813; -211.100; -696.000; -658.000
239.956;  191.100;  579.000;  473.000
240.099; -192.400; -778.000; -725.000
240.242;  150.000;  428.000;  432.000
240.385;  132.300;  466.000;  450.000
240.528; -136.700; -706.000; -473.000
240.671;   41.500;  189.000;  134.000
240.814;  -82.900; -441.000; -158.000
240.957; -220.000; -767.000; -578.000
241.100; -185.600; -779.000; -755.000
241.243; -286.300;-1234.000; -893.000
241.386; -115.900; -508.000; -379.000
241.529; -175.300; -735.000; -547.000
241.672; -145.700; -566.000; -495.000
241.815; -228.200; -832.000; -808.000
241.958;  -47.100; -125.000; -182.000
242.101; -154.000; -545.000; -390.000
242.244; -105.500; -270.000; -325.000
242.387;  -93.000; -304.000; -246.000
242.530;  141.000;  470.000;  134.000
242.673;  -83.300; -381.000; -309.000
242.815; -253.700; -925.000; -899.000
242.958; -137.900; -482.000; -381.000
243.101;   41.900;  132.000;  187.000
243.244; -145.900; -564.000; -521.000
243.387; -119.900; -313.000; -316.000
243.530; -185.600; -657.000; -674.000
243.672;   31.900;   43.000;  -92.000
243.815;  -96.700; -355.000; -283.000
243.958;   -1.800;   98.000;  -26.000
244.101;   32.100;   59.000;  -16.000
244.243;  -40.300;  -47.000;  101.000
244.386; -215.400; -761.000; -630.000
244.529;  -74.500; -132.000; -139.000
244.672; -292.500;-1154.000; -951.000
244.814; -198.200; -621.000; -794.000
244.957;  -69.700; -380.000; -304.000
245.100; -175.800; -489.000; -489.000
245.242;  -84.300; -387.000; -374.000
245.385;   -4.700;  -59.000;  -39.000
245.528; -231.300; -871.000; -705.000
245.670;  160.200;  612.000;  634.000
245.813; -172.800; -599.000; -547.000
245.956;  -70.900; -324.000; -275.000
246.098; -159.500; -508.000; -650.000
246.241;   27.600;  194.000;   48.000
246.383;  -18.800; -119.000;  -73.000
246.526; -150.000; -454.000; -525.000
246.669; -238.100; -889.000; -780.000
246.811;   52.000;  172.000;   -1.000
246.954; -139.800; -512.000; -426.000
247.096;  -42.000;  -84.000;   -6.000
247.239; -111.400; -482.000; -445.000
247.381; -141.400; -647.000; -488.000
247.524;  208.400;  645.000;  679.000
247.666;    0.400;   58.000;   11.000
247.809; -211.800; -887.000; -691.000
247.951;  -14.200;  -75.000;  138.000
248.094;   86.600;  432.000;  308.000
248.236; -354.700;-1262.000;-1238.000
248.378;   30.500; -356.000;  -81.000
248.521;  -65.800; -334.000; -337.000
248.663;  -22.500; -236.000; -267.000
248.806;  -11.700; -300.000; -266.000
248.948; -198.100; -886.000; -763.000
249.090;  -95.000; -428.000; -398.000
249.233;  -86.100; -344.000; -381.000
249.375; -135.600; -474.000; -451.000
249.518;  -29.900;  -83.000; -133.000
249.660;   -6.900; -103.000;    3.000
249.802; -357.500;-1303.000;-1189.000
249.945; -145.000; -612.000; -540.000
250.087; -211.200; -834.000; -768.000
250.229; -114.300; -362.000; -480.000
250.371; -114.600; -494.000; -439.000
250.514;  -91.200; -310.000; -244.000
250.656; -133.400;   69.000;  102.000
250.798; -245.400; -849.000; -800.000
250.940; -120.000; -322.000; -322.000
251.083;  -37.200; -335.000; -111.000
251.225;  148.400;  338.000;  310.000
251.367; -109.700; -274.000; -373.000
251.509;  -60.300; -265.000; -210.000
251.651; -217.200; -731.000; -671.000
251.794;  147.600;  538.000;  632.000
251.936; -252.000; -821.000; -747.000
252.078; -135.300; -540.000; -461.000
252.220; -142.300; -645.000; -477.000
252.362;  195.200;  344.000;  462.000
252.504; -134.300; -677.000; -584.000
252.646; -205.700; -875.000; -722.000
252.788;  -11.400;   14.000; -128.000
252.931;  -29.300; -257.000; -253.000
253.073;  -78.300; -376.000; -317.000
253.215;   14.500;  141.000;  122.000
253.357;  -23.600;   82.000; -153.000
253.499;  -81.200; -374.000; -234.000
253.641; -184.400; -749.000; -594.000
253.783; -166.300; -609.000; -527.000
253.925; -176.600; -586.000; -591.000
254.067; -218.800; -744.000; -667.000
254.209;  -70.800; -391.000; -259.000
254.351; -281.200; -865.000; -883.000
254.493; -105.900; -441.000; -417.000
254.635; -211.900; -936.000; -818.000
254.777; -162.600; -752.000; -687.000
254.918; -130.900; -512.000; -430.000
255.060; -123.100; -551.000; -395.000
255.202; -104.300; -473.000; -261.000
255.344; -178.900; -658.000; -455.000
255.486; -124.400; -471.000; -406.000
255.628; -233.200; -780.000; -781.000
255.770; -156.400; -676.000; -536.000
255.912; -128.000; -559.000; -468.000
256.053; -177.400; -730.000; -508.000
256.195;  331.800; 1008.000;  903.000
256.337; -184.900; -861.000; -595.000
256.479;  140.900;  532.000;  416.000
256.621;  -71.500; -394.000; -212.000
256.762; -197.500; -789.000; -742.000
256.904;  148.100;  485.000;  487.000
257.046;  -99.800; -381.000; -271.000
257.188;  -73.000; -351.000; -264.000
257.329; -155.900; -525.000; -464.000
257.471; -229.600; -939.000; -807.000
257.613; -135.900; -584.000; -498.000
257.755; -280.900;-1073.000; -982.000
257.896;   87.000;  286.000;  392.000
258.038; -136.200; -403.000; -352.000
258.180;  -84.200; -354.000; -279.000
258.321; -167.900; -581.000; -457.000
258.463;  -22.600;  -71.000;  133.000
258.605; -163.300; -562.000; -570.000
258.746; -236.900; -886.000; -772.000
258.888; -315.900;-1026.000;-1020.000
259.029;   34.200;  121.000;   -8.000
259.171; -175.000; -614.000; -550.000
259.313;   13.600;  -49.000;  -47.000
259.454; -138.700; -536.000; -414.000
259.596; -103.100; -483.000; -390.000
259.737; -139.900; -590.000; -474.000
259.879;   80.200;  217.000;  311.000
260.020;  220.200;  901.000;  636.000
260.162;  -62.900; -146.000; -253.000
260.303; -223.700; -768.000; -687.000
260.445; -161.000; -609.000; -613.000
260.586;   95.600;  392.000;  157.000
260.728;  -78.900; -360.000; -248.000
260.869; -105.600; -350.000; -343.000
261.011;  175.200;  706.000;  537.000
261.152; -113.900; -479.000; -319.000
261.293; -153.300; -576.000; -595.000
261.435;  -54.300; -219.000; -184.000
261.576;  -91.000; -455.000; -325.000
261.718;  134.900;  420.000;  470.000
261.859; -292.400; -940.000; -949.000
262.000; -248.900; -951.000;-1016.000
262.142;  -20.700;  -52.000;  -60.000
262.283; -228.100; -808.000; -691.000
262.424; -184.900; -666.000; -625.000
262.566; -293.900;-1161.000; -983.000
262.707; -224.900; -840.000; -830.000
262.848; -234.700; -769.000; -726.000
262.990;  -82.500; -362.000; -345.000
263.131;  197.700;  650.000;  681.000
263.272;   19.600;  -61.000;  -41.000
263.413; -189.300; -589.000; -561.000
263.555; -133.200; -669.000; -143.000
263.696; -176.100; -550.000; -641.000
263.837; -107.200; -449.000; -551.000
263.978;   25.800;   -5.000;  -77.000
264.119;  -59.000; -283.000; -264.000
264.261; -203.800; -847.000; -630.000
264.402;  -10.900;   33.000;   40.000
264.543; -135.500; -509.000; -524.000
264.684;  -45.300;   61.000;  -50.000
264.825; -129.400; -816.000; -538.000
264.966;    6.300;  -84.000;  -67.000
265.107; -191.500; -646.000; -670.000
265.248; -244.000; -825.000; -812.000
265.390;   29.500;  152.000;   -9.000
265.531;  -16.400; -238.000; -107.000
265.672; -152.400; -557.000; -630.000
265.813;  135.400;  563.000;  439.000
265.954; -289.200; -959.000; -940.000
266.095;  -50.000; -372.000; -322.000
266.236; -167.600; -686.000; -548.000
266.377;  -83.300; -243.000; -297.000
266.518; -137.200; -619.000; -547.000
266.659;   86.100;  170.000;  268.000
266.800;   59.500;   83.000;   85.000
266.941; -147.300; -487.000; -478.000
267.082;   43.200;  354.000;   99.000
267.223; -159.100; -344.000; -273.000
267.364; -246.200; -892.000; -686.000
267.504;  -21.100;    3.000;  135.000
267.645;    9.300;  160.000;   67.000
267.786;  -74.900; -147.000;  -86.000
267.927; -129.700; -473.000; -379.000
268.068;   16.400; -186.000;  -61.000
268.209;  -55.600; -175.000; -413.000
268.350; -119.000; -388.000; -532.000
268.490; -152.600; -648.000; -521.000
268.631;   75.900;  127.000;  225.000
268.772; -195.600; -874.000; -647.000
268.913; -128.500; -328.000; -476.000
269.054;  -21.400; -117.000;   12.000
269.194;  -75.800; -418.000; -402.000
269.335; -313.800;-1137.000;-1074.000
269.476;  -21.300;   33.000;  -35.000
269.617;  -70.800; -347.000; -392.000
269.757; -176.300; -713.000; -646.000
269.898; -211.600; -856.000; -613.000
270.039; -115.300; -415.000; -405.000
270.180; -267.100; -952.000; -816.000
270.320;  -25.000; -190.000; -250.000
270.461;  -51.100; -277.000; -249.000
270.602;  -31.500; -186.000; -156.000
270.742; -217.600; -868.000; -943.000
270.883;  -98.700; -442.000; -390.000
271.023; -134.200; -358.000; -357.000
271.164; -151.100; -607.000; -528.000
271.305; -179.700; -666.000; -654.000
271.445; -186.100; -722.000; -683.000
271.586; -127.000; -462.000; -283.000
271.726;  -98.300; -397.000; -322.000
271.867; -120.800; -594.000; -534.000
272.008;  357.700; -473.000; -285.000
272.148;  298.300;  462.000;  468.000
272.289;   49.000; -113.000; -181.000
272.429;   89.100;   19.000;  185.000
272.570; -209.900; -633.000; -737.000
272.710; -173.000; -825.000; -775.000
272.851;  -27.100;  113.000; -130.000
272.991; -302.500;-1173.000;-1077.000
273.131;  -99.700; -419.000; -459.000
273.272; -190.400; -683.000; -723.000
273.412;   44.000; -143.000;  -31.000
273.553;  -95.200; -488.000; -507.000
273.693;  304.400;  913.000;  858.000
273.834; -154.200; -894.000; -692.000
273.974; -151.200; -664.000; -615.000
274.114; -156.500; -772.000; -560.000
274.255;  169.700;  414.000;  373.000
274.395;   26.400; -180.000; -125.000
274.535;   99.700;  199.000;  350.000
274.676;  117.300;  225.000;   94.000
274.816;   40.200;  110.000;   34.000
274.956; -134.500; -624.000; -690.000
275.097; -134.900;-1014.000; -922.000
275.237; -198.400; -913.000; -803.000
275.377; -167.600; -778.000; -689.000
275.517; -275.200; -878.000; -937.000
275.658; -122.200; -590.000; -555.000
275.798; -118.000; -606.000; -413.000
275.938;   50.200;  215.000;  323.000
276.078; -153.800; -626.000; -395.000
276.218;   19.500;   99.000;  104.000
276.359; -247.500;-1026.000;-1024.000
276.499; -139.300; -605.000; -446.000
276.639;  -38.900; -305.000; -151.000
276.779;  -80.200; -475.000; -357.000
276.919; -177.600; -783.000; -624.000
277.059;  -32.000; -261.000; -212.000
277.199;  -81.300; -357.000; -259.000
277.340;  126.900;  287.000;  175.000
277.480; -194.000; -840.000; -693.000
277.620;   74.600;  192.000;   16.000
277.760; -402.400;-1533.000;-1294.000
277.900;   61.600;  113.000;   33.000
278.040;   83.000;  137.000;  159.000
278.180;   82.800;  270.000;  170.000
278.320;   42.800;   21.000;   56.000
278.460;  -95.700; -443.000; -469.000
278.600; -160.300; -708.000; -598.000
278.740;  131.200;  448.000;  224.000
278.880;  -54.200; -768.000; -791.000
279.020;   57.800; -194.000; -144.000
279.160; -149.400; -672.000; -595.000
279.300; -237.300; -926.000; -873.000
279.440; -167.300; -709.000; -622.000
279.579;  -61.500;-1014.000; -929.000
279.719;  -99.400; -410.000; -394.000
279.859;  130.900;   -4.000;   41.000
279.999;   75.100; -208.000;  101.000
280.139;  -43.700; -435.000; -387.000
280.279;  -83.100; -708.000; -745.000
280.419;  -49.700; -229.000; -147.000
280.559;  -31.800; -259.000; -180.000
280.698; -184.100; -790.000; -639.000
280.838; -191.700; -778.000; -800.000
280.978; -195.800; -846.000; -790.000
281.118; -233.400; -811.000; -704.000
281.257;   58.200;   24.000;    6.000
281.397; -200.600;-1094.000; -960.000
281.537; -158.500; -599.000; -712.000
281.677;  -21.900; -150.000; -101.000
281.816; -190.000; -700.000; -630.000
281.956;   -9.100; -193.000; -257.000
282.096;  -91.900; -539.000; -396.000
282.235; -180.800; -672.000; -638.000
282.375;   -5.900; -243.000;  -98.000
282.515; -161.300; -715.000; -707.000
282.654;   71.900;   29.000;  106.000
282.794;  107.900;  388.000;  244.000
282.934; -110.400; -530.000; -491.000
283.073; -260.800;-1030.000; -857.000
283.213;  -53.100; -460.000; -467.000
283.353;  -30.800; -408.000; -349.000
283.492;  -52.600; -264.000; -296.000
283.632;  -54.100; -254.000; -168.000
283.771; -180.600; -859.000; -730.000
283.911;  -97.800; -369.000; -260.000
284.050; -182.800; -794.000; -748.000
284.190; -294.300;-1229.000;-1096.000
284.329; -295.900;-1055.000; -964.000
284.469;  -87.600; -516.000; -591.000
284.608;  -72.500; -559.000; -598.000
284.748; -139.700; -614.000; -570.000
284.887;   33.800;  -87.000;  -20.000
285.027; -239.000; -844.000; -892.000
285.166;  -38.400; -192.000; -249.000
285.306;   74.200; -116.000;  -33.000
285.445;  -55.400; -229.000; -343.000
285.584; -161.000; -630.000; -494.000
285.724;  -84.100; -282.000; -322.000
285.863; -189.600; -857.000; -507.000
286.002;  -89.900; -366.000; -276.000
286.142; -220.100; -715.000; -622.000
286.281; -135.400; -525.000; -493.000
286.420; -114.800; -554.000; -417.000
286.560;  220.600;  653.000;  623.000
286.699; -259.200; -958.000; -912.000
286.838; -144.000; -590.000; -591.000
286.978; -147.400; -533.000; -537.000
287.117; -276.300;-1085.000; -950.000
287.256;  -30.100; -228.000; -211.000
287.395;  -82.500; -197.000; -378.000
287.535;  -70.400; -370.000; -298.000
287.674; -103.600; -509.000; -484.000
287.813;  145.800;  661.000;  533.000
287.952; -224.000;-1010.000; -871.000
288.091; -254.500;-1049.000; -915.000
288.231;   28.700;   13.000;   15.000
288.370; -337.600;-1217.000;-1200.000
288.509; -166.400; -728.000; -645.000
288.648; -172.200; -770.000; -548.000
288.787;  -21.500; -243.000;  -87.000
288.926; -118.200; -454.000; -475.000
289.065;  315.700;  859.000;  672.000
289.204;  -61.800; -377.000; -217.000
289.344; -173.000; -791.000; -690.000
289.483;   67.100;  416.000;  304.000
289.622;   -2.300; -291.000; -149.000
289.761;  -18.800; -309.000; -166.000
289.900; -196.200; -785.000; -626.000
290.039;   31.800;  -12.000;  -95.000
290.178;  -50.500; -274.000; -180.000
290.317; -161.700; -618.000; -479.000
290.456; -102.500; -463.000; -451.000
290.595; -259.700; -961.000; -833.000
290.734; -276.300; -904.000; -891.000
290.873; -104.500; -456.000; -420.000
291.011; -227.600; -833.000; -843.000
291.150; -149.300; -770.000; -682.000
291.289;  -37.300; -343.000; -110.000
291.428; -154.800; -599.000; -480.000
291.567;  -98.100; -370.000; -442.000
291.706;   24.700;  109.000;  154.000
291.845; -166.700; -597.000; -505.000
291.984; -326.800;-1234.000;-1061.000
292.122;  193.900;  602.000;  582.000
292.261;  155.100;  620.000;  463.000
292.400;   38.600; -144.000;  211.000
292.539; -250.000; -959.000; -813.000
292.678;  -52.100; -325.000; -300.000
292.816; -279.600;-1136.000; -965.000
292.955; -152.700; -844.000; -684.000
293.094;  -13.300; -173.000; -337.000
293.233; -119.900; -556.000; -400.000
293.371;  -31.300; -225.000;  -84.000
293.510; -208.300; -866.000; -780.000
293.649; -223.400; -959.000; -924.000
293.787; -126.600;-1083.000;-1012.000
293.926;   51.000; -113.000;  -32.000
294.065;  -64.500; -379.000; -290.000
294.203;  184.400;  298.000;  406.000
294.342;   80.400;   74.000;  156.000
294.481;15010.600;51180.000; -836.000
294.619;  -23.800; -425.000; -582.000
294.758; -262.600;-1230.000;-1137.000
294.896;  197.900; -125.000;    5.000
295.035; -232.700;-1040.000;-1006.000
295.174; -230.200;-1082.000; -954.000
295.312;  -48.600; -323.000; -203.000
295.451;  -21.600; -307.000; -428.000
295.589;  -91.700; -389.000; -518.000
295.728;   57.400; -292.000; -165.000
295.866;   64.800;  -36.000;  -51.000
296.005; -145.900; -584.000; -341.000
296.143; -119.200; -558.000; -596.000
296.282; -185.500; -957.000; -881.000
296.420; -129.800; -657.000; -557.000
296.559; -156.800; -892.000; -633.000
296.697;   80.300; -847.000; -665.000
296.835;  164.900;-1141.000;-1002.000
296.974;  120.700;  -23.000;   39.000
297.112;   45.900; -443.000; -504.000
297.251; -100.800; -815.000; -755.000
297.389;  217.000; -576.000; -438.000
297.527;  147.100; -145.000;  -83.000
297.666;  -79.400; -486.000; -438.000
297.804;  -54.000; -404.000; -264.000
297.942;   25.300; -136.000; -161.000
298.081;   55.900; -183.000;   63.000
298.219;  205.600;  -17.000;  -19.000
298.357;  135.700; -144.000;  -71.000
298.495;   92.700; -810.000; -812.000
298.634;  222.300;  245.000;  219.000
298.772;  179.000; -220.000; -338.000
298.910;  -34.600; -309.000; -182.000
299.048;    2.200; -130.000; -153.000
299.187;  -28.000; -350.000; -250.000
299.325;  101.500;   52.000;  122.000
299.463;  149.100; -389.000; -299.000
299.601;  256.200; -327.000; -271.000
299.739; -193.400; -908.000; -883.000
299.877; -164.500; -791.000; -703.000
300.016;  -74.700;-1095.000; -935.000
300.154;  353.400;  -19.000; -161.000
300.292;  142.300; -428.000; -348.000
300.430;  121.300; -408.000; -291.000
300.568; -198.800; -940.000; -874.000
300.706;  -54.400; -366.000; -469.000
300.844; -125.600;-1108.000; -979.000
300.982;  299.400;  246.000;  282.000
301.120; -199.500; -965.000; -866.000
301.258; -127.600; -812.000; -705.000
301.396;  147.000;  104.000;  -41.000
301.534;  202.600; -218.000; -293.000
301.672;   18.900; -664.000; -521.000
301.810;  125.300; -613.000; -545.000
301.948;  350.900;   53.000;  149.000
302.086; 1251.500; -250.000;  -32.000
302.224; 2007.800; -610.000; -585.000
302.362;  125.100; -558.000; -622.000
302.500;  -11.700; -923.000; -893.000
302.638;  257.000;  128.000;  245.000
302.776;   64.900; -352.000; -408.000
302.913;  116.200;  447.000;  236.000
303.051;   46.100;  -86.000;  -23.000
303.189;  125.200;   90.000;  118.000
303.327;  -41.800; -341.000; -256.000
303.465; -141.600; -832.000; -588.000
303.603; -137.200; -805.000; -604.000
303.740;  213.300;  417.000;  241.000
303.878;   83.300; -800.000; -759.000
304.016; -177.400; -915.000; -790.000
304.154; -207.700;-1123.000;-1152.000
304.291;  -10.600; -505.000; -554.000
304.429;   72.000;  102.000;   74.000
304.567; -244.100; -908.000; -893.000
304.705;  -37.500; -408.000; -515.000
304.842;  209.500; -616.000; -540.000
304.980;  178.900;  215.000;   35.000
305.118;  156.400; -367.000; -365.000
305.255;  -82.500; -945.000; -927.000
305.393;  161.200;  178.000;  239.000
305.531; -166.800;-1173.000; -956.000
305.668;  -93.000; -663.000; -582.000
305.806;  238.600; -358.000; -439.000
305.943;  246.700; -629.000; -637.000
306.081;  167.300; -378.000; -267.000
306.219; -180.700; -863.000; -748.000
306.356;   64.800;  158.000;   27.000
306.494;  273.300;  981.000;  761.000
306.631;   70.200;  -11.000;  -55.000
306.769;   37.100; -613.000; -485.000
306.906;   28.300; -284.000; -258.000
307.044;  -95.400; -473.000; -488.000
307.181;  -65.000; -410.000; -332.000
307.319;  105.500;  112.000;   87.000
307.456; -321.600;-1191.000;-1153.000
307.594; -182.200; -980.000; -727.000
307.731;   11.700; -371.000; -164.000
307.868;   45.900;  -15.000;   20.000
308.006; -255.400; -961.000; -847.000
308.143; -100.100; -618.000; -330.000
308.281;  532.400;  -37.000; -254.000
308.418;   94.900; -748.000; -640.000
308.555;  -78.600; -400.000; -250.000
308.693;  -87.100; -577.000; -573.000
308.830; -163.600; -712.000; -657.000
308.967;   44.100; -215.000;  -95.000
309.105;  -36.500; -507.000; -396.000
309.242;  197.900; -468.000; -367.000
309.379; 1045.700; -577.000; -655.000
309.517;  -42.800; -936.000; -948.000
309.654; -148.100; -910.000; -734.000
309.791; -106.500; -662.000; -580.000
309.928; -182.400; -977.000; -914.000
310.065;  413.800;  819.000;  697.000
310.203;   14.900; -825.000; -850.000
310.340;   18.400; -465.000; -321.000
310.477;  -90.000; -412.000; -516.000
310.614; -110.600; -383.000; -473.000
310.751;  -85.200; -427.000; -518.000
310.889;   -4.900;    1.000;   11.000
311.026; -272.000;-1161.000; -939.000
311.163;  -62.600; -386.000; -380.000
311.300;  -95.900; -512.000; -479.000
311.437; -146.300; -658.000; -619.000
311.574; -275.300;-1226.000; -985.000
311.711;  -77.500; -595.000; -433.000
311.848;  -27.500; -380.000; -388.000
311.985;   56.100;  270.000;   93.000
312.122; -188.200; -932.000; -762.000
312.259; -192.300; -941.000; -994.000
312.396; -125.600; -508.000; -551.000
312.533; -158.300; -812.000; -790.000
312.670; -228.400;-1070.000; -898.000
312.807;  -20.200; -352.000; -367.000
312.944;  -98.400; -513.000; -611.000
313.081;  -44.100; -150.000; -415.000
313.218; -182.000;-1111.000; -867.000
313.355;   57.000; -531.000; -449.000
313.492;   81.600; -455.000; -292.000
313.629;  322.500;  815.000;  735.000
313.766; -260.600;-1176.000;-1008.000
313.902;   24.900; -186.000;   21.000
314.039;  -72.600; -372.000; -289.000
314.176;  113.800;  286.000;  192.000
314.313; -110.800; -569.000; -473.000
314.450; -121.100; -788.000; -684.000
314.587;  -89.700; -468.000; -480.000
314.723;   39.400;  -78.000;  130.000
314.860;  109.000;  318.000;  332.000
314.997;  113.800;  223.000;  142.000
315.134;    2.300; -385.000; -368.000
315.270;    1.600; -480.000; -496.000
315.407; -205.300;-1094.000; -967.000
315.544;  -79.100; -657.000; -538.000
315.681;  -75.700; -681.000; -565.000
315.817;   96.800; -133.000; -176.000
315.954;   76.100; -613.000; -392.000
316.091; -203.300;-1045.000;-1023.000
316.227;   17.000;  -71.000; -179.000
316.364;   58.600;   23.000;    6.000
316.500;  -26.300; -113.000; -300.000
316.637;  -65.700; -181.000; -302.000
316.774; -137.200; -625.000; -358.000
316.910; -162.500; -598.000; -629.000
317.047;  -49.700; -487.000; -351.000
317.183;  -75.200; -435.000; -566.000
317.320;  -16.500; -367.000; -321.000
317.456; -103.500; -733.000; -805.000
317.593; -141.100; -598.000; -641.000
317.729;   39.200;  168.000;  -67.000
317.866; -386.500;-1434.000;-1285.000
318.002; -155.100; -708.000; -948.000
318.139; -157.900; -883.000; -867.000
318.275; -172.800;-1003.000; -738.000
318.412;  -91.700; -517.000; -336.000
318.548;  -23.000; -751.000; -720.000
318.685; -139.100; -985.000; -888.000
318.821; -156.100; -762.000; -735.000
318.957;   10.800;   34.000;  -23.000
319.094;  108.800;  297.000;  154.000
319.230;  -95.600; -756.000; -742.000
319.367;  266.100; -471.000; -520.000
319.503;  162.600; -538.000; -436.000
319.639; -142.900; -877.000; -793.000
319.775;  -66.400; -750.000; -685.000
319.912;  -76.000; -424.000; -519.000
320.048; -174.600;-1184.000;-1184.000
320.184;  203.200;   59.000;   70.000
320.321;  -97.000; -497.000; -467.000
320.457;  206.000;  475.000;  662.000
320.593;  -69.300; -375.000; -382.000
320.729; -170.900; -732.000; -734.000
320.866; -111.400; -577.000; -635.000
321.002; -125.200; -759.000; -809.000
321.138;   24.100; -135.000; -211.000
321.274;  201.500; -148.000; -115.000
321.410;    4.200; -585.000; -353.000
321.546;  -23.700;-1011.000; -911.000
321.683;  186.900;  400.000;  185.000
321.819;   81.400;  -48.000; -117.000
321.955; -196.200; -743.000; -722.000
322.091;  -57.700; -585.000; -540.000
322.227;   15.100; -382.000; -202.000
322.363;   -1.900; -320.000; -215.000
322.499;  -19.000; -343.000; -331.000
322.635;  331.900;  636.000;  443.000
322.771;  150.500; -139.000;   12.000
322.907;  274.400;  129.000;  327.000
323.043;   -9.300; -115.000; -206.000
323.179;   -1.400; -394.000; -363.000
323.315;  116.000; -401.000; -371.000
323.451;  265.600; -328.000; -236.000
323.587;  180.900;  -60.000;  -77.000
323.723;   51.500; -682.000; -601.000
323.859;   33.600; -258.000;  -76.000
323.995;  -50.300; -467.000; -409.000
324.131; -246.000; -967.000; -892.000
324.267;  -61.900; -254.000; -276.000
324.402; -222.400; -960.000; -983.000
324.538;   -7.600; -279.000; -104.000
324.674;   96.400;  164.000;   77.000
324.810;  363.000;  226.000;  308.000
324.946;   94.100; -810.000; -658.000
325.082; -112.800; -568.000; -475.000
325.217;   55.100;  -62.000;   16.000
325.353; -169.300; -764.000; -659.000
325.489; -115.500; -540.000; -506.000
325.625; -119.200; -579.000; -525.000
325.760;  163.600;  517.000;  376.000
325.896;  -26.800; -515.000; -702.000
326.032;  -78.000; -403.000; -352.000
326.168; -102.300; -462.000; -369.000
326.303;  -55.800; -352.000; -461.000
326.439;  -11.100; -336.000; -276.000
326.575;   58.100; -190.000;  -29.000
326.710;   27.500; -156.000;  -30.000
326.846;   60.000;  146.000;  103.000
326.982; -163.400; -530.000; -548.000
327.117;  -91.900; -481.000; -442.000
327.253; -201.300; -745.000; -742.000
327.388; -207.100;-1137.000;-1153.000
327.524;  -48.400; -811.000; -578.000
327.659;   11.500;  -58.000;  -22.000
327.795;  -15.400;   69.000;   45.000
327.931; -154.300; -723.000; -499.000
328.066;   -3.000; -417.000; -276.000
328.202;   10.300;   12.000; -129.000
328.337;  227.800;  957.000;  713.000
328.473;   44.500;  -12.000;  -74.000
328.608;   21.700; -256.000; -267.000
328.743; -102.300; -799.000; -664.000
328.879;  102.100;  214.000;  114.000
329.014;  -73.600; -102.000; -122.000
329.150; -168.300; -358.000; -483.000
329.285;  -65.000; -465.000; -466.000
329.421;  -72.300; -548.000; -246.000
329.556;   -2.600;  -36.000;   85.000
329.691; -150.700; -633.000; -615.000
329.827; -138.900; -626.000; -480.000
329.962;  -64.100;  131.000; -301.000
330.097; -150.600; -673.000; -585.000
330.233;  -57.900; -410.000; -223.000
330.368; -234.900; -839.000; -628.000
330.503;   16.300;    3.000;   98.000
330.638;   67.600;  -93.000; -125.000
330.774;  -58.100; -609.000; -530.000
330.909;  -43.500; -434.000; -244.000
331.044; -159.100; -714.000; -708.000
331.179; -304.900;-1217.000;-1109.000
331.315;   48.300;   77.000;   20.000
331.450;  103.700;  157.000;  285.000
331.585; -118.200; -805.000; -706.000
331.720; -127.900; -510.000; -460.000
331.855;   -1.000;  -35.000; -102.000
331.990;  485.500;   62.000;  138.000
332.126;  242.600; -110.000;   71.000
332.261;    3.900; -379.000; -265.000
332.396;    7.100; -135.000; -242.000
332.531; -153.700;-1074.000;-1031.000
332.666;  114.100; -519.000; -363.000
332.801; -183.000; -726.000; -807.000
332.936;   -0.700; -192.000; -122.000
333.071; -200.300; -870.000; -817.000
333.206;   67.600;  307.000;  379.000
333.341;  116.400;  344.000;  418.000
333.476; -145.300; -627.000; -623.000
333.611;  -42.100; -251.000; -173.000
333.746;  -57.200; -381.000; -464.000
333.881; -165.600; -973.000; -935.000
334.016; -232.100; -936.000; -917.000
334.151; -207.000; -746.000; -702.000
334.286;   92.800;  152.000;  186.000
334.421;   10.600; -125.000; -178.000
334.556; -107.100; -611.000; -567.000
334.690; -126.000; -631.000; -577.000
334.825;  152.500;  381.000;   83.000
334.960;  -47.100; -285.000; -413.000
335.095;   49.300;  135.000;  -91.000
335.230; -143.500; -722.000; -738.000
335.365; -256.000;-1084.000; -990.000
335.499; -214.100;-1108.000;-1037.000
335.634;   79.600;    9.000;  534.000
335.769; -127.300; -755.000; -720.000
335.904;  -75.600; -603.000; -561.000
336.038;  -38.600; -735.000; -657.000
336.173; -202.400;-1206.000;-1194.000
336.308;   73.300; -116.000; -189.000
336.443;   80.800; -544.000; -634.000
336.577;  -97.500; -936.000; -787.000
336.712;  184.200;   -4.000;  -12.000
336.847;  -11.500; -724.000; -607.000
336.981;  204.000; -272.000; -208.000
337.116;  642.600;  615.000;  501.000
337.250;  349.200; -434.000; -421.000
337.385;  467.900; -297.000; -208.000
337.520;  149.500; -632.000; -603.000
337.654;  -39.400; -215.000; -126.000
337.789; -240.300; -989.000; -933.000
337.923;   12.200; -104.000; -205.000
338.058; -138.700; -673.000; -738.000
338.192;  -12.000; -611.000; -488.000
338.327;   29.100;  -18.000; -155.000
338.461;  -60.200; -299.000; -469.000
338.596; -155.100; -780.000; -638.000
338.730; -186.500; -767.000; -803.000
338.865;  201.500;  -46.000; -140.000
338.999; -106.200; -846.000; -702.000
339.134;  -29.900; -634.000; -536.000
339.268;   63.900; -741.000; -603.000
339.403;  701.600; -740.000; -775.000
339.537;  225.300; -894.000; -820.000
339.671; -185.100; -829.000; -813.000
339.806; -106.300; -556.000; -512.000
339.940;   61.500; -261.000; -235.000
340.074; -152.800; -685.000; -510.000
340.209;  -60.300; -351.000; -230.000
340.343; -142.100; -517.000; -573.000
340.477;  379.300;  998.000; 1036.000
340.612;  -97.200;-1033.000; -900.000
340.746;  270.600; -199.000; -243.000
340.880;  -90.700; -924.000; -785.000
341.014;    3.300;  -45.000; -154.000
341.149; -195.100; -756.000; -718.000
341.283; -190.900; -839.000; -754.000
341.417; -135.900;-1124.000; -938.000
341.551;  367.900; -768.000; -708.000
341.685;    1.400; -633.000; -611.000
341.820;  -95.900; -562.000; -493.000
341.954;  -71.300; -218.000; -349.000
342.088; -269.000;-1102.000;-1019.000
342.222;  127.000;  565.000;  618.000
342.356;  -56.200; -395.000; -335.000
342.490; -149.200; -880.000; -841.000
342.624;  -79.800; -339.000; -242.000
342.758;   58.900; -364.000; -312.000
342.892;  -95.400; -710.000; -585.000
343.026;  -46.100;  -58.000; -116.000
343.160;  -74.200; -426.000; -376.000
343.294; -101.800; -474.000; -337.000
343.428;  -13.700; -488.000; -448.000
343.562;   12.300; -172.000;  -23.000
343.696;   -3.900; -385.000; -314.000
343.830;    2.800; -362.000; -356.000
343.964;   69.500; -231.000; -168.000
344.098; 1889.500;  199.000;   70.000
344.232; 1664.000; -266.000; -127.000
344.366;  206.800; -567.000; -453.000
344.500;  194.600; -665.000; -744.000
344.634;  139.300; -324.000; -164.000
344.768;   52.400; -531.000; -341.000
344.902;  127.800;  278.000;  256.000
345.035;  -98.800; -556.000; -496.000
345.169; -247.500; -933.000; -656.000
345.303;  -27.300; -308.000; -482.000
345.437;  -88.200; -826.000; -717.000
345.571; -103.200; -675.000; -594.000
345.704; -103.700; -309.000; -532.000
345.838;    7.400; -331.000; -284.000
345.972;  -15.500; -543.000; -495.000
346.106;  323.700; -179.000; -190.000
346.239;  875.800; -312.000; -243.000
346.373;   59.600; -343.000; -302.000
346.507; -259.700; -950.000; -962.000
346.640;  347.100;  -30.000;   13.000
346.774;  -38.700; -650.000; -797.000
346.908;   14.000; -138.000;  -11.000
347.041; -164.600; -646.000; -593.000
347.175;   45.400;  259.000;   27.000
347.309; -105.100; -698.000; -628.000
347.442; -150.300; -883.000; -732.000
347.576;  643.500;  670.000;  668.000
347.709;  490.600; -123.000;  -52.000
347.843; -152.800; -933.000; -825.000
347.976;  139.500;  235.000;  294.000
348.110; -324.900;-1268.000;-1186.000
348.243; -180.500; -679.000; -772.000
348.377;   76.400;  -26.000;   60.000
348.510;  139.300;  403.000;  540.000
348.644;    9.800;  -37.000; -159.000
348.777;   56.000;  180.000;  191.000
348.911;  -28.900; -142.000; -112.000
349.044;  401.600;  471.000;  448.000
349.178;  352.200;-1069.000;-1006.000
349.311;  273.500;  141.000;  255.000
349.444;   21.200; -927.000; -813.000
349.578;   17.900; -347.000; -200.000
349.711; -172.700; -959.000; -862.000
349.845;   48.900; -661.000; -591.000
349.978; -236.300;-1224.000;-1137.000
350.111; -123.900; -546.000; -612.000
350.244;  -84.300; -596.000; -700.000
350.378;   47.900; -392.000; -393.000
350.511; -110.900; -393.000; -426.000
350.644; -187.900; -808.000; -806.000
350.778;   97.100;  168.000;  104.000
350.911;   54.800;  134.000;  140.000
351.044; -140.300; -685.000; -615.000
351.177;  -16.300; -321.000; -281.000
351.310;   34.500;    3.000; -131.000
351.444; -120.200; -888.000; -788.000
351.577;  315.900;  140.000;   90.000
351.710;  274.800;  593.000;  417.000
351.843;  -11.400; -165.000;  -77.000
351.976;   42.800;  149.000;  -79.000
352.109; -125.400; -621.000; -612.000
352.242;   -9.200; -464.000; -419.000
352.376;  -34.800; -580.000; -636.000
352.509;  427.700; -437.000; -356.000
352.642;   93.000; -654.000; -604.000
352.775;  151.300; -141.000;  -98.000
352.908; -191.000; -933.000; -904.000
353.041; -157.200; -814.000; -824.000
353.174;  -53.200; -551.000; -424.000
353.307; -118.200; -753.000; -764.000
353.440;  218.800;  541.000;  453.000
353.573; -189.200; -957.000;-1008.000
353.706;  -54.000; -384.000; -558.000
353.839;    4.100; -264.000; -220.000
353.971; -141.000; -657.000; -512.000
354.104; -152.200; -896.000; -835.000
354.237;  -26.100; -627.000; -662.000
354.370; -141.900; -846.000; -879.000
354.503; -306.000;-1231.000;-1308.000
354.636;    4.300; -529.000; -348.000
354.769; -202.600; -937.000; -860.000
354.902;   -1.900; -230.000; -139.000
355.034;   29.600; -164.000; -220.000
355.167;  -49.400; -262.000; -162.000
355.300; -176.000;-1061.000; -880.000
355.433; 1851.700;  -71.000;  -14.000
355.565; 2870.600; -402.000; -384.000
355.698;  741.100; -356.000; -296.000
355.831;   20.700; -882.000; -801.000
355.964;  246.200; -285.000; -170.000
356.096; -116.300; -856.000; -843.000
356.229;   68.800; -523.000; -530.000
356.362;  639.000; -373.000; -266.000
356.494; 1165.600; -229.000; -162.000
356.627; 1088.000;  269.000;  377.000
356.760; 1320.500;  120.000;   53.000
356.892; 1782.800; -286.000; -601.000
357.025; 1439.400;  403.000;  389.000
357.157; 1285.800; -167.000; -179.000
357.290; 1227.100; -856.000; -713.000
357.423;  395.800; -667.000; -556.000
357.555;  246.200; -217.000; -228.000
357.688;  270.700; -483.000; -364.000
357.820;  921.700; -870.000; -877.000
357.953; 7287.100; -563.000; -589.000
358.085; 1604.800; -632.000; -612.000
358.218; 2631.100;-1131.000; -932.000
358.350;  486.100;  -58.000;  312.000
358.483; -204.000;-1300.000;-1187.000
358.615;   11.100;-1182.000;-1078.000
358.747;  -45.000;-1187.000;-1058.000
358.880;  115.600; -810.000; -744.000
359.012;   72.400; -376.000; -202.000
359.145;  -36.300; -480.000; -511.000
359.277;  146.400; -962.000; -913.000
359.409; 6078.900;  536.000;  231.000
359.542; 1559.400; -738.000; -688.000
359.674;  196.100;   46.000;   13.000
359.806;  -77.400; -565.000; -438.000
359.939;  -27.400; -617.000; -516.000
360.071;   -2.500; -583.000; -579.000
360.203;  -18.700; -411.000; -364.000
360.335;  161.200;  164.000;  -16.000
360.468;  399.200; -249.000; -307.000
360.600; 4908.400; -547.000; -454.000
360.732; 5194.900; -546.000; -423.000
360.864;  715.100;-1216.000;-1044.000
360.996;  633.700; -516.000; -554.000
361.129;  158.200; -389.000; -598.000
361.261;   79.800;  110.000; -113.000
361.393;    2.000; -252.000; -214.000
361.525;   98.000;   94.000;  244.000
361.657;  -37.300; -821.000; -703.000
361.789;   76.000; -139.000; -155.000
361.921;  638.900; -642.000; -593.000
362.053;  619.100;  524.000;  541.000
362.185;  151.800;  288.000;   72.000
362.318; -143.700; -709.000; -705.000
362.450;  343.100;  294.000;  444.000
362.582;  309.700; -913.000; -870.000
362.714;   -2.900; -353.000; -332.000
362.846; -139.600; -606.000; -490.000
362.978; -220.400; -941.000; -811.000
363.109;  182.300; -161.000; -260.000
363.241;  975.000; -739.000; -749.000
363.373;  840.100; -649.000; -564.000
363.505; 1278.700; -186.000;  -91.000
363.637;  352.900; -787.000; -601.000
363.769; -190.500;-1067.000;-1080.000
363.901; -102.900; -596.000; -654.000
364.033; -200.500;-1103.000;-1062.000
364.165;   60.300; -283.000; -283.000
364.296;  202.300; -316.000; -177.000
364.428;  133.600;-1344.000;-1220.000
364.560;  -84.700; -679.000; -661.000
364.692;  -97.400; -738.000; -835.000
364.824;  651.900; -588.000; -456.000
364.955;  897.000; -402.000; -564.000
365.087; 1662.000;-1097.000; -852.000
365.219;   56.000; -686.000; -816.000
365.351;  -92.800; -526.000; -572.000
365.482;  143.700;  300.000;  240.000
365.614;  -34.200; -402.000; -314.000
365.746; -131.300; -729.000; -752.000
365.877; -145.100; -706.000; -672.000
366.009;  549.400;  -35.000;  -62.000
366.141; -124.800;-1249.000;-1134.000
366.272; -167.100; -803.000; -719.000
366.404; -176.400;-1005.000; -874.000
366.535;   51.700; -139.000;  -12.000
366.667; -146.800; -644.000; -649.000
366.799;  139.200;  353.000;  203.000
366.930; -179.200; -862.000; -996.000
367.062;  253.600; -639.000; -613.000
367.193;  286.200; -872.000; -842.000
367.325;  -52.500; -580.000; -684.000
367.456;  210.600; -246.000;   31.000
367.588;  341.100; -371.000; -318.000
367.719;  112.500;  -44.000;  -45.000
367.851;   12.500; -222.000; -241.000
367.982;  -38.600; -875.000; -732.000
368.113;  277.900; -475.000; -358.000
368.245; -200.600; -960.000; -841.000
368.376;    8.900; -254.000; -302.000
368.508;   -2.600; -188.000; -263.000
368.639; -221.900;-1166.000;-1034.000
368.770;   24.200; -670.000; -589.000
368.902; -121.600; -836.000; -926.000
369.033; -162.100; -906.000; -855.000
369.164;  -62.600; -720.000; -653.000
369.296; -176.800; -452.000; -601.000
369.427;   65.700; -209.000; -144.000
369.558;  -21.300; -593.000; -377.000
369.689; -132.800; -721.000; -569.000
369.821; -197.900; -951.000; -845.000
369.952;   51.200;   42.000; -108.000
370.083;  -21.400; -229.000; -108.000
370.214; -145.300; -735.000; -650.000
370.345;   70.200;   65.000;   81.000
370.477; -126.900; -810.000; -790.000
370.608;  604.200; -328.000; -264.000
370.739;  -63.300;-1233.000;-1292.000
370.870;    1.300;-1102.000; -923.000
371.001;  235.800; -378.000; -467.000
371.132;  -98.100; -754.000; -735.000
371.263;    5.500;  -42.000; -148.000
371.394; -219.100; -841.000; -748.000
371.525;  126.700;  345.000;  225.000
371.657; -119.700; -808.000; -670.000
371.788;  197.200;  103.000;  199.000
371.919;  416.200; -384.000; -304.000
372.050; 7556.400;  -91.000; -156.000
372.181; 2170.200; -188.000; -294.000
372.311;  845.200;   42.000; -127.000
372.442;  113.300; -457.000; -451.000
372.573;   -2.800; -444.000; -340.000
372.704; -199.000;-1008.000; -980.000
372.835;  180.300; -228.000; -289.000
372.966;  -33.000; -646.000; -554.000
373.097;  -75.400; -575.000; -711.000
373.228;   11.000; -717.000; -542.000
373.359;  315.500; -824.000; -536.000
373.490; 2090.700; -881.000; -727.000
373.620; 2494.100;-1001.000; -803.000
373.751; 3851.800; -332.000; -396.000
373.882; 1693.400; -663.000; -733.000
374.013;  196.200; -449.000; -262.000
374.143;  -17.000; -581.000; -659.000
374.274; -152.900; -987.000; -908.000
374.405;  405.200; -388.000; -276.000
374.536; 1026.400; -526.000; -387.000
374.666; 2430.500; -759.000; -807.000
374.797;  549.100; -817.000; -868.000
374.928; 1936.900; -710.000; -560.000
375.058; 1938.600; -535.000; -500.000
375.189;  164.200;  -59.000;  -93.000
375.320; -133.300; -928.000;-1034.000
375.450;  -10.000; -625.000; -616.000
375.581;  -42.400; -526.000; -436.000
375.712;  -10.600; -574.000; -250.000
375.842;  750.600; -438.000; -415.000
375.973;  523.600; -554.000; -513.000
376.103;  -12.500; -665.000; -648.000
376.234; -123.700; -531.000; -552.000
376.364;   -2.300; -944.000; -867.000
376.495;  728.500;  925.000;  529.000
376.625;   64.300; -472.000; -485.000
376.756;  142.300; -709.000; -678.000
376.886;  -75.700;-1178.000;-1026.000
377.017;  112.800;-1048.000;-1061.000
377.147;  665.300; -786.000; -782.000
377.278;  161.600;  174.000;  228.000
377.408; -209.200; -801.000; -815.000
377.538; -153.600; -707.000; -693.000
377.669; -128.100; -537.000; -613.000
377.799; -114.700; -645.000; -635.000
377.929;  -28.300; -610.000; -428.000
378.060; -212.700; -781.000; -847.000
378.190;  -74.800; -726.000; -531.000
378.320;  -60.600; -401.000; -406.000
378.451;   38.800; -131.000;  -22.000
378.581;   66.500;  -67.000; -110.000
378.711;  430.600; 1035.000;  866.000
378.841;   32.200; -533.000; -675.000
378.972;  -76.300; -871.000; -751.000
379.102;   49.300; -652.000; -579.000
379.232;   65.100; -126.000;  -73.000
379.362; -174.600;-1001.000; -885.000
379.492;   85.000; -373.000; -424.000
379.623;  270.200;    0.000;  111.000
379.753; -128.800;-1107.000; -974.000
379.883;  485.100;   59.000;  156.000
380.013;  100.800;-1081.000;-1017.000
380.143; -172.700;-1097.000;-1056.000
380.273; -122.000; -985.000; -861.000
380.403;   74.500; -344.000; -257.000
380.533;   29.700; -651.000; -664.000
380.663;  253.100;  173.000;  128.000
380.793; -121.500;-1027.000;-1074.000
380.923;   27.000; -103.000;  -34.000
381.053; -104.300; -613.000; -623.000
381.183;   -5.700; -106.000; -248.000
381.313;  184.700; -656.000; -470.000
381.443;  157.900; -692.000; -473.000
381.573;  545.600; -402.000; -409.000
381.703;  660.400;-1249.000;-1095.000
381.833; -190.400;-1454.000;-1336.000
381.963;  286.900; -134.000;  -87.000
382.093; 3005.500; -925.000; -909.000
382.223;  813.900; -713.000; -602.000
382.353;   44.700; -801.000; -608.000
382.482;  847.700;-1091.000; -964.000
382.612; 1656.400; -872.000; -644.000
382.742;  929.700; -695.000; -622.000
382.872;  642.000; -565.000; -551.000
383.002;  201.700;  347.000; -132.000
383.131;   59.900; -226.000; -160.000
383.261;  -11.100; -706.000; -768.000
383.391;  660.800; -552.000; -377.000
383.521; 5985.700;  451.000;  263.000
383.650; 1315.800; -947.000; -904.000
383.780;   -7.500; -783.000; -656.000
383.910;  294.600;  880.000;  802.000
384.039;  113.400; -794.000; -656.000
384.169;  493.500;-1205.000;-1017.000
384.299;    2.600; -650.000; -662.000
384.428; -131.500; -764.000; -680.000
384.558;   -7.500; -308.000; -275.000
384.687;    2.300; -414.000; -334.000
384.817;   96.100;   75.000;   -2.000
384.947;  133.500; -234.000; -141.000
385.076;  662.500;  982.000;  912.000
385.206;  291.200;  369.000;  480.000
385.335;    3.400; -549.000; -417.000
385.465;  -94.700; -655.000; -663.000
385.594;  391.000;  -53.000;  -44.000
385.724;  992.500; -868.000; -838.000
385.853;  291.700; -296.000; -270.000
385.982; 3100.400; -743.000; -787.000
386.112; 4370.900;-1052.000; -871.000
386.241;  339.500; -307.000; -312.000
386.371;  100.400; -174.000;  -87.000
386.500;  115.500; -825.000; -789.000
386.629;  112.500; -874.000; -817.000
386.759;  194.100;  -43.000;   68.000
386.888;   82.400; -170.000; -250.000
387.017;  -59.200; -648.000; -620.000
387.147;  -94.200; -771.000; -798.000
387.276;   61.300; -410.000; -397.000
387.405;   92.000; -398.000; -342.000
387.535;    1.900; -452.000; -361.000
387.664;  -73.000; -692.000; -620.000
387.793;  207.400; -198.000; -113.000
387.922; 1202.600;  255.000;  200.000
388.052;  107.500; -576.000; -423.000
388.181;  158.700; -342.000; -472.000
388.310;  117.800; -889.000; -710.000
388.439;  -29.400; -749.000; -742.000
388.568;  469.900;  365.000;  244.000
388.697; 2367.800; -756.000; -653.000
388.826;  469.600; -768.000; -666.000
388.956;  180.600; -285.000; -307.000
389.085;   22.200; -347.000; -287.000
389.214; -156.600; -842.000; -872.000
389.343;  -45.400; -645.000; -413.000
389.472;  871.800;  126.000;  149.000
389.601; 1102.100;   91.000;    0.000
389.730;   99.900; -568.000; -687.000
389.859;  232.700;  226.000;   46.000
389.988;  508.300; -423.000; -408.000
390.117;  387.500; -168.000; -146.000
390.246;   71.600; -331.000; -320.000
390.375;  321.700; -673.000; -626.000
390.504;  -72.700; -703.000; -621.000
390.633; -132.800; -672.000; -726.000
390.761;  -52.700; -732.000; -645.000
390.890;  106.500;   -4.000; -130.000
391.019;  -36.500; -421.000; -441.000
391.148; -176.600; -826.000; -855.000
391.277;  -80.700; -576.000; -493.000
391.406;  -63.200; -821.000; -805.000
391.534;  126.800;  574.000; -301.000
391.663;  -57.600; -583.000; -645.000
391.792;  -99.500; -673.000; -701.000
391.921;  293.800;   -3.000;   15.000
392.050;  461.400; -287.000; -228.000
392.178;  -16.600;-1206.000;-1061.000
392.307;  422.600; -758.000; -712.000
392.436;  210.500; -427.000; -641.000
392.564;  109.100;  166.000;   -6.000
392.693; -132.900; -860.000; -682.000
392.822;  490.600; -529.000; -534.000
392.950;  274.200; -880.000; -714.000
393.079;  753.500; -188.000; -328.000
393.208;   94.400; -488.000; -511.000
393.336;   18.400; -170.000; -145.000
393.465;   -7.000; -317.000; -199.000
393.593;   63.400;   62.000;   79.000
393.722; -235.600;-1121.000; -916.000
393.850;   -5.700; -188.000;  -61.000
393.979; -250.900; -926.000; -805.000
394.107;  -62.400; -517.000; -537.000
394.236;   12.900; -570.000; -507.000
394.364;  695.600;  383.000;  206.000
394.493; 1176.300; -911.000; -767.000
394.621;   47.100; -955.000; -916.000
394.750; 1494.400; -873.000; -923.000
394.878; 5865.000; -247.000; -149.000
395.007; 7546.100; -721.000; -807.000
395.135;  499.000; -790.000; -721.000
395.263; -151.700;-1038.000;-1040.000
395.392;   80.700;  -25.000; -107.000
395.520; -215.300; -818.000; -679.000
395.648; -143.900; -865.000; -915.000
395.777;   74.700; -366.000; -405.000
395.905;  -23.200; -449.000; -564.000
396.033;  140.800;  217.000;  172.000
396.162; 1916.400; -399.000; -453.000
396.290; 1603.700;  -17.000;   -2.000
396.418;  330.800; -555.000; -514.000
396.546; -108.200; -571.000; -466.000
396.674; -155.500; -850.000; -878.000
396.803;   98.900;  -72.000;  -23.000
396.931;  272.800; -179.000; -199.000
397.059;  182.400;-1026.000; -989.000
397.187; -188.900;-1026.000; -975.000
397.315; -194.100; -884.000; -649.000
397.443; -121.200; -592.000; -443.000
397.572; -125.400; -578.000; -424.000
397.700;   49.300; -607.000; -614.000
397.828;  117.600;  120.000;  -90.000
397.956;  -58.200; -508.000; -478.000
398.084;  -87.300; -767.000; -626.000
398.212;  134.600;  137.000;  124.000
398.340;  105.900;  -56.000;  159.000
398.468;  142.200; -390.000; -169.000
398.596; -199.800; -993.000; -953.000
398.724; -153.900; -762.000; -767.000
398.852; -255.900;-1024.000; -976.000
398.980;  -75.500; -560.000; -560.000
399.108;  -55.100; -982.000; -735.000
399.236;  130.800;   13.000;    8.000
399.363;   92.200;  222.000;  196.000
399.491;  -49.400; -404.000; -398.000
399.619; -225.500; -829.000; -800.000
399.747; -138.200; -859.000; -771.000
399.875;  292.500;  220.000;  234.000
400.003;  -67.800; -359.000; -284.000
400.130; -102.300; -421.000; -341.000
400.258;  -13.600;  -83.000;   38.000
400.386;  -83.300; -352.000; -168.000
400.514;  -50.400; -526.000; -587.000
400.641; -134.400; -928.000; -802.000
400.769; -219.800; -979.000; -888.000
400.897;  -98.000; -838.000; -793.000
401.025;   53.800; -166.000; -152.000
401.152;  100.300;  220.000;   38.000
401.280;  -81.900; -430.000; -429.000
401.408; -188.800; -712.000; -576.000
401.535; -154.800; -735.000; -758.000
401.663; -327.500;-1134.000;-1054.000
401.790; -109.300; -514.000; -525.000
401.918;  222.000;  436.000;  405.000
402.046;   38.300;  134.000;  122.000
402.173;  -10.500;  -18.000;    7.000
402.301;  -92.500; -519.000; -397.000
402.428;  141.100;  528.000;  383.000
402.556; -213.600;-1188.000; -913.000
402.683;   43.900;  -20.000;   -1.000
402.811;   52.500;  -37.000; -206.000
402.938;   41.900;   20.000;   27.000
403.066;  438.700; -574.000; -558.000
403.193;  717.900;  299.000;  239.000
403.321;  594.700; -396.000; -574.000
403.448;  757.800;   83.000;   27.000
403.575;  337.500;  -90.000;  -46.000
403.703; -143.200; -732.000; -557.000
403.830;  -94.200; -531.000; -496.000
403.957; -228.100;-1117.000;-1023.000
404.085;   71.500;  -61.000; -172.000
404.212;  331.600;  -50.000;   63.000
404.339;  601.100; -566.000; -306.000
404.467;11459.000; -612.000; -524.000
404.594; 7322.500; -287.000; -227.000
404.721; 1805.600; -869.000; -764.000
404.848;  223.400; -113.000; -202.000
404.976; -166.600; -856.000; -783.000
405.103;   38.700;  -14.000;  -82.000
405.230;   82.000;  190.000;  226.000
405.357;  156.500;  117.000;   44.000
405.484;  604.400;  -49.000;    5.000
405.612;  160.600; -548.000; -563.000
405.739;  -67.100; -488.000; -243.000
405.866;  229.000;  669.000;  385.000
405.993;   -3.800; -398.000; -102.000
406.120; -230.600; -801.000; -887.000
406.247;  -37.500; -323.000; -342.000
406.374; 1075.200;  540.000;  629.000
406.501;  305.100; -632.000; -702.000
406.628; -109.800; -621.000; -589.000
406.755; -141.000; -803.000; -620.000
406.882;  -31.900; -228.000; -277.000
407.009; -140.800; -719.000; -628.000
407.136;  236.600; -480.000; -401.000
407.263;  413.100; -939.000; -829.000
407.390;  -56.100; -692.000; -614.000
407.517; -260.300;-1139.000;-1187.000
407.644;  -48.600; -332.000; -256.000
407.771;  -44.700; -249.000; -287.000
407.898;  113.900;  168.000;  328.000
408.025;  -50.800; -421.000; -313.000
408.151;   58.100;   82.000;  153.000
408.278;  -75.300; -267.000; -216.000
408.405; -149.000; -931.000; -899.000
408.532;  -47.200; -549.000; -542.000
408.659; -179.600; -677.000; -648.000
408.785; -345.600;-1298.000;-1170.000
408.912;  -67.900; -412.000; -296.000
409.039; -173.300; -610.000; -686.000
409.166; -162.000; -591.000; -555.000
409.292; -157.300; -571.000; -534.000
409.419; -216.900; -665.000; -649.000
409.546;  -82.200; -431.000; -192.000
409.672; -185.800; -713.000; -545.000
409.799;   35.000;  -36.000;   34.000
409.926;  -26.600; -180.000; -179.000
410.052; -305.400;-1127.000;-1091.000
410.179;  -53.700; -368.000; -392.000
410.305;  -90.300; -375.000; -493.000
410.432;  -45.300; -220.000; -333.000
410.558;  -89.600; -305.000; -380.000
410.685; -149.400; -688.000; -431.000
410.812; -149.400; -409.000; -588.000
410.938; -235.400; -964.000; -808.000
411.065; -126.200; -671.000; -645.000
411.191;   34.200; -189.000; -174.000
411.317; -140.100; -823.000; -742.000
411.444;  -77.900; -317.000; -246.000
411.570;  -67.600; -339.000; -294.000
411.697; -218.300; -758.000; -752.000
411.823; -301.300; -989.000; -999.000
411.949;   -3.600;  -56.000;   17.000
412.076; -174.800; -539.000; -519.000
412.202; -214.200; -758.000; -757.000
412.329; -185.200; -798.000; -752.000
412.455; -191.900; -821.000; -657.000
412.581;   43.300;  -15.000;  172.000
412.707;  -38.600; -540.000; -457.000
412.834;   95.600;  156.000;  219.000
412.960; -115.500; -785.000; -784.000
413.086; -128.500; -743.000; -701.000
413.212;  414.300;  604.000;  578.000
413.339;  -74.300; -685.000; -701.000
413.465;   89.300; -364.000; -310.000
413.591;  -92.700; -757.000; -474.000
413.717;  -47.600; -358.000; -366.000
413.843; -196.400; -839.000; -861.000
413.969;  -69.200;  -47.000; -292.000
414.096; -160.700; -679.000; -679.000
414.222;   43.100;  -33.000;   85.000
414.348;   23.000; -652.000; -385.000
414.474;  273.000;   38.000;  -52.000
414.600;   62.400; -126.000; -144.000
414.726;   28.200;  -96.000;  -55.000
414.852;  -48.900; -365.000; -342.000
414.978;  153.500;  104.000;  -18.000
415.104;  168.200;   38.000;   80.000
415.230;   92.100; -329.000; -330.000
415.356;  144.700; -409.000; -514.000
415.482;  475.600;   13.000;  -35.000
415.608;  614.500; -247.000; -323.000
415.734; 2046.200;   67.000;   38.000
415.860;40947.900; -875.000; -767.000
415.986;26576.500; -685.000; -607.000
416.111; 2237.800; -798.000; -652.000
416.237;  498.600; -424.000; -571.000
416.363; 2465.400; -765.000; -733.000
416.489; 7941.500; -324.000; -251.000
416.615;  829.100; -707.000; -742.000
416.741;   -1.900; -677.000; -784.000
416.866; -135.700; -673.000; -736.000
416.992; -233.900; -801.000; -818.000
417.118;   -1.000;  -41.000;  -80.000
417.244;  -65.500; -798.000; -531.000
417.369;  -93.300; -801.000; -612.000
417.495;   57.600; -325.000; -254.000
417.621; -111.700;-1015.000; -803.000
417.746;   74.900; -579.000; -572.000
417.872;  165.400; -254.000; -144.000
417.998;  118.400; -515.000; -530.000
418.123; 2386.600;-1073.000; -845.000
418.249;10472.000; -512.000; -601.000
418.374; 1363.000; -916.000; -824.000
418.500;  280.500; -383.000; -482.000
418.626;  286.700;   70.000;  -59.000
418.751;  276.000; -549.000; -448.000
418.877;  449.000; -637.000; -643.000
419.002; 3901.700; -688.000; -560.000
419.128;24531.900; -930.000; -721.000
419.253; 5313.700; -967.000; -837.000
419.379;  785.700; -391.000; -338.000
419.504;  811.700;  325.000;  415.000
419.629; 1073.200; -393.000; -212.000
419.755; 7582.400; -317.000; -254.000
419.880;39898.300;  -98.000;   67.000
420.006;22749.200; -280.000; -221.000
420.131;54625.400; -662.000; -775.000
420.256; 7064.600; -315.000; -316.000
420.382;  998.200; -665.000; -687.000
420.507;  131.400; -649.000; -778.000
420.632;  356.000; -337.000; -339.000
420.758;  594.300; -251.000; -425.000
420.883; -139.900; -876.000; -672.000
421.008; -169.200; -775.000; -619.000
421.133;  -83.600; -509.000; -467.000
421.259;  -45.700; -325.000; -259.000
421.384; -146.100; -834.000; -693.000
421.509;  -21.400;-1052.000; -862.000
421.634; 2789.900; -936.000; -820.000
421.759; 1013.600; -359.000; -327.000
421.885;  -45.900; -717.000; -656.000
422.010;  -74.900; -673.000; -542.000
422.135; -223.600; -695.000; -727.000
422.260;  165.800;  340.000;  280.000
422.385;  -18.300;   12.000;  -98.000
422.510;  109.900;  151.000;  -26.000
422.635;  113.600;  -87.000;  -43.000
422.760;  266.600; -766.000; -791.000
422.885;  214.800;  -57.000;  -80.000
423.010;   -6.500; -112.000; -169.000
423.135; -118.600; -481.000; -561.000
423.260;   34.000; -150.000; -245.000
423.385;  241.400;  476.000;  222.000
423.510;  120.700;   71.000;  -22.000
423.635;  262.100;  133.000;   45.000
423.760;  184.800;  383.000;  328.000
423.885;  191.300;  336.000;  391.000
424.010;  120.600;  -68.000;  -13.000
424.135;   49.500;    5.000;  -33.000
424.259; -117.200; -654.000; -457.000
424.384;  -33.200; -279.000; -272.000
424.509;   43.500; -260.000; -186.000
424.634; -145.900; -761.000; -623.000
424.759;  -14.000; -688.000; -544.000
424.883;   48.400; -506.000; -527.000
425.008;  418.500; -502.000; -410.000
425.133; 4078.600; -679.000; -653.000
425.258; 1673.100; -517.000; -381.000
425.382; 2329.200; -867.000; -774.000
425.507; 5258.300; -487.000; -543.000
425.632;  862.900; -802.000; -663.000
425.756;  899.700; -256.000; -146.000
425.881;13663.600; -831.000; -857.000
426.006;32298.600; -604.000; -355.000
426.130; 4744.900; -696.000; -508.000
426.255;  643.700; -611.000; -491.000
426.379;  384.700; -189.000; -577.000
426.504;  866.400;  660.000;  544.000
426.629; 8446.000; -519.000; -466.000
426.753; 5077.500;   64.000;  -46.000
426.878;  679.300; -252.000; -288.000
427.002;  437.700; -651.000; -668.000
427.127; 3590.800;  -35.000; -158.000
427.251;22328.800;  372.000;  401.000
427.375; 5702.100; -191.000; -173.000
427.500; 4793.400; -616.000; -610.000
427.624; 1461.900; -234.000; -400.000
427.749;  276.200; -216.000; -225.000
427.873;  -18.200; -499.000; -412.000
427.997;   14.100; -222.000; -230.000
428.122;  302.100;  795.000;  703.000
428.246;  238.700;  433.000;  434.000
428.371; -196.800; -869.000; -773.000
428.495; -145.700; -624.000; -646.000
428.619;   25.500; -186.000; -117.000
428.743;   90.900;   65.000;  132.000
428.868;  156.000; -732.000; -643.000
428.992; 2949.700; -219.000; -326.000
429.116; 1169.300; -329.000; -357.000
429.240;  639.700;  419.000;  426.000
429.365;   26.700; -454.000; -574.000
429.489;  -20.800; -638.000; -647.000
429.613;  148.500; -236.000; -177.000
429.737;  126.700; -563.000; -432.000
429.861;  612.500; -247.000; -133.000
429.985;11638.100; -425.000; -305.000
430.109;11328.600; -770.000; -908.000
430.234; 1313.600;   76.000;  -50.000
430.358;  201.500; -250.000; -160.000
430.482;  -88.100; -672.000; -564.000
430.606;   -4.200; -655.000; -375.000
430.730;  142.400; -437.000; -388.000
430.854;  342.900; -909.000; -835.000
430.978;  -59.100; -795.000; -764.000
431.102;  -49.100; -499.000; -422.000
431.226; -144.200; -874.000; -815.000
431.350;  153.400;  345.000;  422.000
431.474;  -78.700; -661.000; -373.000
431.597; -236.100;-1060.000; -848.000
431.721; -101.600; -276.000; -267.000
431.845; -205.000; -704.000; -472.000
431.969; -136.900; -304.000; -349.000
432.093; -114.600; -395.000; -317.000
432.217;   58.100;   32.000;   82.000
432.341; -110.200; -523.000; -518.000
432.464;   97.000;   96.000;   40.000
432.588;  549.300; -401.000; -329.000
432.712;  266.600;  -52.000;  -52.000
432.836;  173.100;  213.000;  263.000
432.959;   47.500; -372.000; -311.000
433.083;  274.800;   11.000;    2.000
433.207;  859.900;  285.000;  930.000
433.330;10492.000; -391.000; -200.000
433.454;11583.300; -654.000; -638.000
433.578; 6896.400;  583.000;  278.000
433.701; 1154.300; -623.000; -675.000
433.825;  385.300; -292.000; -299.000
433.949;  497.500;   28.000;  -72.000
434.072;  234.100; -410.000; -323.000
434.196;   31.200; -309.000; -117.000
434.319; 8230.100;25482.000;25124.000
434.443; 1713.200; -656.000; -603.000
434.566; 5194.900;  281.000;   62.000
434.690;  769.000; -637.000; -383.000
434.813;  162.200; -251.000; -173.000
434.937;  -79.700; -569.000; -696.000
435.060;    8.900; -423.000; -332.000
435.184;  842.800; -492.000; -217.000
435.307;  438.200;  159.000;  102.000
435.431;   11.800;  -40.000;   24.000
435.554;  -88.900; -399.000; -240.000
435.677;  -91.800; -350.000; -258.000
435.801;   28.600;  -25.000;   49.000
435.924;   91.000;    1.000;  -67.000
436.048; -141.700;-1019.000; -732.000
436.171;  -65.100; -240.000;  -66.000
436.294;   48.500; -248.000; -229.000
436.417;  222.300; -963.000; -849.000
436.541; -124.400; -814.000; -840.000
436.664;  -23.300; -242.000; -316.000
436.787;   40.000;   13.000;  113.000
436.910; -145.100; -792.000; -422.000
437.034;  132.400;  142.000;  143.000
437.157;  217.900;  -11.000;    0.000
437.280;  -30.500; -392.000; -292.000
437.403;  -73.100; -982.000; -869.000
437.526; 1653.000; -903.000; -865.000
437.649; 5131.800; -505.000; -332.000
437.772;  699.300; -692.000; -540.000
437.896;  284.000;  700.000;  544.000
438.019; -128.900; -758.000; -503.000
438.142;  -90.900; -596.000; -506.000
438.265;   73.900; -639.000; -670.000
438.388; 1326.000; -520.000; -410.000
438.511;  269.400; -597.000; -394.000
438.634;  -23.700; -247.000; -125.000
438.757; -204.100; -693.000; -619.000
438.880;   42.300;  -34.000;  -57.000
439.003;  -85.300; -417.000; -437.000
439.126;  -64.200; -287.000; -167.000
439.248;  -55.300;  -98.000; -139.000
439.371;  -31.800;    9.000;  -53.000
439.494;  138.500;  510.000;  439.000
439.617;  -41.100;   65.000;  -88.000
439.740; -325.500; -968.000; -816.000
439.863; -217.100; -755.000; -595.000
439.986; -187.400; -476.000; -431.000
440.108;  -48.300; -161.000; -112.000
440.231; -262.100; -950.000; -836.000
440.354;    3.300;  -64.000; -150.000
440.477;  215.600; -566.000; -542.000
440.599;   52.200; -200.000; -225.000
440.722; -186.100; -709.000; -586.000
440.845;  227.200;  751.000;  928.000
440.968; -111.300; -415.000; -311.000
441.090;  -65.700; -199.000;  -33.000
441.213; -268.500;-1021.000; -825.000
441.336;  -40.400; -159.000;   -5.000
441.458;  -61.100; -549.000; -396.000
441.581; -105.700; -628.000; -629.000
441.703;  -48.600; -152.000;   13.000
441.826; -190.300; -557.000; -400.000
441.948;    5.200;   56.000;   51.000
442.071;  125.100;  555.000;  424.000
442.193; -141.700; -531.000; -485.000
442.316;  118.200;  152.000;   97.000
442.438;  203.100; -233.000;  -10.000
442.561;  214.800;  272.000;  262.000
442.683; 1424.300; -809.000; -522.000
442.806; 2571.800;   -8.000;   74.000
442.928;  130.200; -859.000; -604.000
443.051;  -52.900; -577.000; -373.000
443.173; -111.500; -341.000; -339.000
443.295; -119.100; -263.000; -371.000
443.418;  -72.200; -321.000;  -29.000
443.540;   76.400; -106.000;   -4.000
443.662; -159.100; -563.000; -465.000
443.785;   27.800;  335.000;  199.000
443.907; -175.300; -362.000; -208.000
444.029; -204.900; -767.000; -494.000
444.152; -230.400; -644.000; -554.000
444.274;   -7.200;  -18.000;  -24.000
444.396; -158.600; -461.000; -221.000
444.518; -191.200; -691.000; -454.000
444.640; -118.100; -268.000; -111.000
444.763;   37.700;  388.000;  249.000
444.885; -170.800; -432.000; -392.000
445.007;    4.200;   35.000;   86.000
445.129; -165.000; -610.000; -515.000
445.251; -125.300; -372.000; -439.000
445.373; -210.300; -537.000; -386.000
445.495;  106.300;  242.000;  350.000
445.617;  187.200;  853.000;  753.000
445.739;  -59.200; -215.000;  -97.000
445.861;    3.500; -245.000; -112.000
445.984;  -15.100; -267.000; -101.000
446.105;  560.700; -418.000; -251.000
446.227; 1329.500; -176.000;  -19.000
446.349;   54.600; -358.000; -249.000
446.471; -164.400; -615.000; -448.000
446.593;  -37.100; -316.000;   19.000
446.715;   76.000;  -67.000;   41.000
446.837;  217.400;  697.000;  832.000
446.959; -119.300; -457.000; -478.000
447.081; -227.100; -628.000; -518.000
447.203;  185.000;  862.000;  834.000
447.325;  -77.100; -270.000;   42.000
447.446;   87.300;  286.000;  530.000
447.568; -240.000; -921.000; -803.000
447.690; -120.300; -236.000; -245.000
447.812; -227.700; -798.000; -519.000
447.933;  -10.100;  155.000;  127.000
448.055;  -44.500; -306.000; -261.000
448.177;  443.700;   31.000;   79.000
448.299;  257.700; -935.000; -727.000
448.420;   86.500;  -25.000;  159.000
448.542;  -16.600;   -3.000;   33.000
448.664;   20.500;  109.000;  322.000
448.785;   20.100;  265.000;   83.000
448.907;  -97.600; -614.000; -353.000
449.028;    1.300; -771.000; -471.000
449.150;  191.100;  492.000;  589.000
449.272; -287.400;-1044.000; -913.000
449.393;  164.400;  612.000;  694.000
449.515; -202.400; -634.000; -581.000
449.636;  -63.000; -264.000; -155.000
449.758;  241.500;  763.000;  622.000
449.879; -131.800; -498.000; -396.000
450.001;  -70.000; -149.000;  -49.000
450.122;  -14.400;  -95.000;  162.000
450.244;   26.600;   37.000;  364.000
450.365; -103.200; -495.000; -301.000
450.486;   29.000;   80.000;  268.000
450.608;  115.100;  393.000;  326.000
450.729;  186.200;  578.000;  645.000
450.850;   36.800; -574.000; -466.000
450.972; 1619.800; -552.000; -389.000
451.093; 9840.200;  190.000;  588.000
451.214; 3682.300; -516.000; -337.000
451.336;  756.000;  773.000;  579.000
451.457;  181.200;  264.000;  393.000
451.578;  -29.400; -118.000;  -74.000
451.699; -159.800; -546.000; -540.000
451.821;  -38.400; -284.000;  -50.000
451.942;   79.200;  278.000;  285.000
452.063;  139.100;  228.000;  419.000
452.184; 1295.900;  -54.000;  -49.000
452.305; 2077.400;  103.000;  170.000
452.427;  218.500; -549.000; -301.000
452.548;   17.000;   23.000;   79.000
452.669;  -10.400; -257.000;  -89.000
452.790;    5.700;    3.000;  -18.000
452.911;   63.400;  195.000;  259.000
453.032;  -71.800; -289.000;  -60.000
453.153;    1.800;  -29.000;   81.000
453.274;  195.700;  737.000;  868.000
453.395;  -13.200;  -51.000;  175.000
453.516;  128.200; 1317.000; 1388.000
453.637;  -46.300; -205.000; -150.000
453.758;  -25.200;   15.000;   69.000
453.879; -198.700; -462.000; -250.000
454.000;  247.400; 1086.000;  948.000
454.121; -169.600; -554.000; -326.000
454.242; -166.100; -599.000; -383.000
454.362;    0.600;  -99.000;  114.000
454.483;   -1.600; -309.000; -229.000
454.604;  216.600;  512.000;  580.000
454.725; -210.900; -627.000; -555.000
454.846; -170.900; -474.000; -406.000
454.967;   36.000;  230.000;  539.000
455.087;   16.000;  179.000;  153.000
455.208;  123.300;  554.000;  856.000
455.329;  -20.000;  -22.000;   82.000
455.450;  111.200;  473.000;  633.000
455.570;  -91.400; -234.000; -211.000
455.691;  -14.800;  201.000;  407.000
455.812; -102.100; -270.000;  -92.000
455.932;  -76.100;  107.000;  -97.000
456.053; -111.400;   36.000;   24.000
456.173; -149.600; -433.000; -355.000
456.294; -201.000; -476.000; -303.000
456.415;  -52.200;  -73.000;   70.000
456.535;   -0.100;  297.000;  273.000
456.656;  -37.300;  132.000;  240.000
456.776;  -66.800;    3.000;  298.000
456.897;   54.200;  308.000;  513.000
457.017;  -98.800; -153.000;   -3.000
457.138; -171.200; -402.000; -249.000
457.258;    5.700;  263.000;  224.000
457.379;   33.900;  509.000;  521.000
457.499;   22.900;  443.000;  432.000
457.620; -194.000; -407.000; -231.000
457.740; -127.900; -132.000;  -11.000
457.860;  -26.400;   87.000;   44.000
457.981;    3.000;  132.000;  124.000
458.101; -101.600;  -89.000;   40.000
458.221;   64.700;  336.000;  402.000
458.342;  -48.200;   -4.000;  -37.000
458.462;  136.900;  617.000;  352.000
458.582;  -16.900; -302.000; -294.000
458.703;   96.600;  303.000;  154.000
458.823;    8.700;   22.000;  163.000
458.943;  149.100;  341.000;  467.000
459.063;   56.800; 1124.000;  192.000
459.183;   33.100;  328.000;  313.000
459.304;   96.700;  315.000;  517.000
459.424;  -12.800; -246.000;  -89.000
459.544;  771.300;  388.000;  764.000
459.664; 1711.300;  499.000;  506.000
459.784;  644.400; 1004.000; 1175.000
459.904;  160.100;  867.000;  744.000
460.024;  229.300;  867.000;  684.000
460.144;  145.700;  449.000;  554.000
460.264;   61.900;  515.000;  327.000
460.385; -137.600; -145.000; -119.000
460.505;  128.500;  905.000;  858.000
460.625; -114.600;  -17.000;  -68.000
460.745;   42.500;  396.000;  541.000
460.864;   -5.900;  153.000;  469.000
460.984;  119.400;  499.000;  573.000
461.104;  397.500; 1656.000; 1775.000
461.224;   88.800;  657.000;  650.000
461.344;   36.200;  431.000;  360.000
461.464;    0.000;  258.000;  513.000
461.584;   55.800;  283.000;  466.000
461.704;  -45.600;   58.000;  108.000
461.824;  -32.600;  238.000;  259.000
461.943;  -13.600;  191.000;  130.000
462.063;  -64.600;    2.000;  324.000
462.183;  152.200;  639.000;  717.000
462.303;  342.200; 1678.000; 1230.000
462.422;  144.400;  781.000;  840.000
462.542;   14.800;  271.000;  391.000
462.662;  147.200;  353.000;  380.000
462.782;  620.900;  833.000;  572.000
462.901;  952.200;  545.000;  717.000
463.021;  604.300; 1702.000; 1638.000
463.141;   27.200;  337.000;  770.000
463.260;   60.100;  614.000;  474.000
463.380;  123.700;  902.000;  884.000
463.499;   -4.400;  342.000;  332.000
463.619;   -4.000;  581.000;  559.000
463.738;  350.600; 1644.000;  903.000
463.858;  114.700;  657.000;  811.000
463.978;   27.200;  542.000;  396.000
464.097;  147.300;  921.000; 1114.000
464.217;  322.600; 1196.000; 1143.000
464.336;  295.600; 1068.000; 1130.000
464.455;    8.600;  328.000;  659.000
464.575;  132.000;  597.000;  602.000
464.694;  431.400; 1204.000; 1179.000
464.814;  311.800; 1190.000; 1138.000
464.933;  213.200; 1095.000; 1027.000
465.052;  268.800; 1412.000; 1054.000
465.172;  286.600;  922.000;  799.000
465.291;  387.400; 1376.000; 1320.000
465.410;  107.100;  462.000;  735.000
465.530;  276.600; 1355.000; 1310.000
465.649;  241.700; 1209.000; 1273.000
465.768;  392.900; 1673.000; 1508.000
465.888;  187.900;  941.000; 1174.000
466.007;  256.000; 1335.000; 1440.000
466.126;  119.800;  721.000;  641.000
466.245;  154.500; 1176.000; 1187.000
466.364;   84.900;  950.000; 1060.000
466.484;  171.300; 1024.000; 1213.000
466.603;  168.000; 1101.000; 1222.000
466.722;  357.900; 1490.000; 1769.000
466.841;  282.300; 1151.000; 1401.000
466.960;  145.000; 1069.000;  972.000
467.079;  347.300; 1971.000; 1786.000
467.198;  152.400; 1238.000; 1181.000
467.317;  256.200; 1768.000; 1162.000
467.436;  195.200; 1709.000; 1261.000
467.555;  332.400; 1796.000; 1746.000
467.674;  223.000; 1227.000; 1329.000
467.793;  200.800; 1376.000; 1374.000
467.912;  272.000; 1658.000; 1539.000
468.031;  337.100; 2038.000; 1930.000
468.150;  365.800; 1842.000; 1837.000
468.269;  501.700; 2313.000; 2090.000
468.388;  457.000; 2168.000; 2339.000
468.507;  581.700; 2884.000; 2903.000
468.626;  616.300; 2555.000; 2541.000
468.744;  329.100; 2018.000; 2174.000
468.863;  471.800; 2312.000; 2523.000
468.982;  274.700; 1503.000; 1555.000
469.101;  533.100; 2788.000; 2692.000
469.220;  421.500; 2333.000; 2176.000
469.338;  570.600; 2935.000; 3051.000
469.457;  504.000; 2719.000; 2545.000
469.576;  815.400; 3953.000; 3784.000
469.695;  568.200; 2877.000; 3066.000
469.813;  960.700; 4148.000; 4192.000
469.932;  922.600; 4255.000; 4485.000
470.051;  958.500; 4075.000; 4161.000
470.169; 1873.000; 4470.000; 4338.000
470.288; 2949.600; 4700.000; 4809.000
470.406; 1747.200; 5059.000; 5194.000
470.525; 1319.400; 6101.000; 5787.000
470.644; 1433.900; 6847.000; 6794.000
470.762; 1715.400; 8397.000; 7873.000
470.881; 1939.300; 8651.000; 8464.000
470.999; 2167.300; 9685.000; 9151.000
471.118; 2301.100;11174.000;10711.000

