
Integration time [ms]: 100.000
Averaging Nr. [scans]: 40
Smoothing Nr. [pixels]: 0
Data measured with spectrometer [name]: 2101012U2
Wave   ;Sample   ;Dark     ;Reference
[nm]   ;[counts] ;[counts] ;[counts] 

197.733;   57.650;  516.000;  404.000
197.879;  -88.275; -610.000; -634.000
198.025;  -44.575; -475.000; -420.000
198.171;  -81.525; -602.000; -612.000
198.317;  -28.500; -401.000; -316.000
198.463;  -76.000; -655.000; -404.000
198.609;   22.650;  181.000; -137.000
198.755;  -88.075; -644.000; -410.000
198.901;  -71.325; -505.000; -424.000
199.047;  -68.900; -615.000; -488.000
199.193;  -43.000; -230.000; -468.000
199.339;  -48.675; -222.000; -369.000
199.485;   34.425;  330.000;  271.000
199.631;   20.750;  227.000;  310.000
199.777;  -51.075; -466.000; -398.000
199.923;  -79.250; -610.000; -424.000
200.069;    0.525; -141.000;  -58.000
200.215;   47.650;  128.000;  453.000
200.361;   28.900;  243.000;  477.000
200.507;  -67.100; -600.000; -373.000
200.653;  -36.175; -371.000; -194.000
200.798;  -39.300; -215.000; -125.000
200.944;  -10.150; -146.000;  -41.000
201.090;   44.925;   61.000;  222.000
201.236;    0.425; -116.000; -158.000
201.382;  129.775;  874.000;  903.000
201.528;    6.425;  -58.000;  -48.000
201.674;  -67.075; -386.000; -293.000
201.819;  -66.675; -540.000; -439.000
201.965;  -96.375; -699.000; -447.000
202.111;  -27.175; -273.000; -226.000
202.257;  -48.650; -250.000; -238.000
202.402;   16.275;   13.000;  -36.000
202.548;  -34.750; -169.000; -116.000
202.694;   83.275;  410.000; -183.000
202.840;  -79.950; -603.000; -531.000
202.985;  -80.600; -681.000; -639.000
203.131; -107.575; -832.000; -666.000
203.277;  -34.975; -199.000; -262.000
203.423;  -59.925; -434.000; -520.000
203.568;  -41.300; -462.000; -237.000
203.714;  -62.575; -535.000; -542.000
203.860;  -92.325; -682.000; -641.000
204.005;   20.350;  112.000;  167.000
204.151;   76.100;  561.000;  556.000
204.296;  -43.350; -354.000; -221.000
204.442;  -72.575; -600.000; -547.000
204.588;  -88.025; -592.000; -579.000
204.733;   23.800;  178.000;  168.000
204.879; -142.700;-1018.000; -822.000
205.025;    9.150;  -99.000;  126.000
205.170;   14.300;  -17.000;   94.000
205.316;   83.350;  438.000;  661.000
205.461;  -95.025; -698.000; -554.000
205.607;   89.600;  609.000;  665.000
205.752;  -79.925; -626.000; -551.000
205.898;  -48.875; -501.000; -391.000
206.043;  -79.325; -578.000; -506.000
206.189;  -45.200; -243.000; -285.000
206.334;   82.800;  554.000;  606.000
206.480;   88.525;  409.000;  239.000
206.625;  -87.525; -529.000; -552.000
206.771;  -58.125; -451.000; -373.000
206.916;  -40.800; -210.000; -537.000
207.062;  -85.100; -545.000; -591.000
207.207;  -61.750; -546.000; -443.000
207.353;   59.875;  185.000;  460.000
207.498;   10.875;  196.000;   85.000
207.643;  -46.275; -501.000; -370.000
207.789; -138.125;-1069.000; -910.000
207.934;  -98.550; -665.000; -713.000
208.080;  -31.825; -154.000;   66.000
208.225;  -15.575;  -22.000;  -57.000
208.370;  -80.300; -727.000; -619.000
208.516;  -77.500; -741.000; -487.000
208.661;  -32.825; -127.000;  -69.000
208.806;  -31.150; -165.000; -171.000
208.952; -132.975;-1044.000; -731.000
209.097;   75.100;  378.000;  349.000
209.242;  -52.075; -307.000; -382.000
209.387;   54.025;  392.000;  350.000
209.533;  -62.175; -321.000; -350.000
209.678;   87.750;  472.000;  543.000
209.823;  -59.425; -408.000; -310.000
209.969; -109.825; -860.000; -757.000
210.114; -110.725; -907.000; -719.000
210.259; -135.425; -939.000; -889.000
210.404;   -7.675; -171.000;  103.000
210.549;    5.825;  108.000;    3.000
210.695;  -20.525;   -3.000;  -95.000
210.840;   30.825;   94.000;   67.000
210.985;  -65.050; -484.000; -303.000
211.130;   69.625;  268.000;  406.000
211.275;    6.200;  207.000;  199.000
211.420;  -52.800; -300.000; -289.000
211.566;  -79.400; -536.000; -489.000
211.711;    5.325;  218.000;  157.000
211.856;  -73.750; -545.000; -519.000
212.001;   11.050;  151.000;   44.000
212.146;   19.375;  153.000;   49.000
212.291;  -28.925; -210.000; -186.000
212.436;  -30.875; -280.000;   -6.000
212.581;  -96.500; -685.000; -653.000
212.726;  -79.525; -487.000; -538.000
212.871;  -55.425; -552.000; -217.000
213.016; -160.100;-1172.000;-1029.000
213.161;   60.150;  406.000;  291.000
213.306;  -78.975; -435.000; -577.000
213.451; -101.700; -778.000; -689.000
213.596;  -46.050; -455.000; -347.000
213.741;  -63.400; -448.000; -538.000
213.886;  -94.550; -498.000; -517.000
214.031;  -26.450; -294.000; -124.000
214.176;  -54.825; -408.000; -341.000
214.321;  -22.700; -296.000; -157.000
214.466;  -40.975; -163.000;  -43.000
214.611;   -8.600;  -61.000;  -10.000
214.756; -132.575; -948.000; -858.000
214.901;  -21.725; -388.000; -226.000
215.046; -122.950; -797.000; -825.000
215.191;    9.900;  128.000;   35.000
215.336;  -14.400; -157.000;  -19.000
215.480;  -72.375; -684.000; -505.000
215.625;   -8.225; -175.000;  -19.000
215.770; -100.675; -757.000; -662.000
215.915;   -8.150;   -5.000;  -97.000
216.060;    6.800; -113.000;  -21.000
216.205; -127.050; -731.000; -779.000
216.349;  -70.975; -470.000; -533.000
216.494; -141.350; -939.000; -867.000
216.639; -121.250; -823.000; -888.000
216.784;  -91.250; -577.000; -525.000
216.929;   51.525;  392.000;  281.000
217.073;  -31.800; -244.000;  -31.000
217.218;   10.500;   78.000;  -47.000
217.363;  -89.025; -656.000; -618.000
217.507;  -93.200; -623.000; -588.000
217.652; -143.525; -845.000; -874.000
217.797;  -89.425; -708.000; -659.000
217.942; -116.325; -856.000; -720.000
218.086;   76.200;  608.000;  539.000
218.231;  -29.750; -174.000;  -26.000
218.376;  -37.075; -337.000; -229.000
218.520;   -3.125;  -41.000;   96.000
218.665;  -33.975; -338.000; -204.000
218.810;  -54.475; -275.000; -233.000
218.954;   18.025;  201.000;   35.000
219.099; -114.275; -713.000; -963.000
219.243;  -84.725; -589.000; -554.000
219.388;  -48.975; -264.000; -136.000
219.532;  -19.475; -116.000; -116.000
219.677;  -85.800; -564.000; -521.000
219.822;   -0.450;   33.000;   89.000
219.966;    9.375;   17.000;  -99.000
220.111;  -27.625; -328.000;  -40.000
220.255; -108.850; -797.000; -750.000
220.400;  -25.650; -180.000; -146.000
220.544;  -85.950; -516.000; -450.000
220.689;  -60.000; -422.000; -451.000
220.833;  -28.675; -123.000;  -58.000
220.978;  -50.750; -393.000; -563.000
221.122;   18.675;  319.000;  307.000
221.267; -114.525; -906.000; -837.000
221.411;  -67.175; -478.000; -394.000
221.555;   -3.650; -104.000;  -23.000
221.700;  -62.975; -329.000; -222.000
221.844;   32.575;  255.000;  272.000
221.989;  -51.250; -328.000; -311.000
222.133;  -30.200; -289.000; -307.000
222.277;  -12.400;    5.000;   78.000
222.422;   24.250;  227.000;  113.000
222.566;  -39.400; -381.000; -214.000
222.711;  -61.400; -414.000; -479.000
222.855;  -73.775; -643.000; -586.000
222.999;  -78.175; -642.000; -717.000
223.144;  -36.850; -195.000; -194.000
223.288;   53.675;  423.000;  251.000
223.432;   31.600;  184.000;  230.000
223.576;    5.425;  152.000;  -21.000
223.721;   33.775;  364.000;  273.000
223.865;  -53.250; -472.000; -475.000
224.009;  267.225; 1673.000; 1631.000
224.153;  -86.000; -660.000; -671.000
224.298;  -67.325; -531.000; -489.000
224.442;  -14.000;  -74.000;  -33.000
224.586;   -8.325; -169.000; -106.000
224.730;  -99.825; -858.000; -670.000
224.875;  -99.850; -739.000; -688.000
225.019;   23.200;  102.000;  188.000
225.163;   55.100;  208.000;  341.000
225.307;   18.425;   97.000;  -91.000
225.451;   43.575;  360.000;  481.000
225.595;   22.550;  264.000;  176.000
225.739;  -27.550; -170.000;  -94.000
225.884;   -9.900;   86.000;    5.000
226.028; -103.125; -760.000; -626.000
226.172;  -40.125; -260.000; -273.000
226.316; -126.150; -941.000; -902.000
226.460;  -71.800; -645.000; -493.000
226.604;  -59.975; -406.000; -400.000
226.748; -103.175; -836.000; -733.000
226.892;  -32.900; -227.000; -181.000
227.036;  -38.600; -537.000; -447.000
227.180;  -64.000; -551.000; -375.000
227.324;  -73.075; -561.000; -580.000
227.468; -119.075; -819.000; -717.000
227.612;    5.575;  242.000;  -28.000
227.756;  -99.075; -845.000; -698.000
227.900;   55.150;  342.000;  441.000
228.044;  -69.050; -509.000; -290.000
228.188;   68.775;  448.000;  568.000
228.332; -105.075; -546.000; -472.000
228.476;  -17.075; -223.000; -149.000
228.620;  -36.875; -210.000; -150.000
228.764;   65.900;  431.000;  349.000
228.908;  -19.025; -155.000;   30.000
229.052;  -85.275; -615.000; -528.000
229.195;  -22.175; -172.000;   13.000
229.339;  -42.225; -235.000; -305.000
229.483;  -41.250;    5.000; -162.000
229.627;  -12.275; -156.000;  139.000
229.771;  -50.400; -218.000; -294.000
229.915;   -4.275;  230.000;   79.000
230.059; -112.550; -648.000; -663.000
230.202;  -39.975; -370.000; -317.000
230.346;  -25.925; -107.000;  107.000
230.490;  -69.925; -489.000; -521.000
230.634; -114.575; -736.000; -553.000
230.777;   72.225;  478.000;  509.000
230.921;  -67.950; -450.000; -359.000
231.065;  -36.325; -246.000; -286.000
231.209;   23.725;  261.000;  265.000
231.352;   10.550;   54.000;   40.000
231.496;   22.575;  568.000;  188.000
231.640;  -85.675; -693.000; -621.000
231.783;   69.350;  546.000;  525.000
231.927;  -56.275; -294.000; -365.000
232.071; -137.950; -962.000; -736.000
232.214; -116.050; -980.000; -764.000
232.358; -117.975; -683.000; -599.000
232.502;   -4.350;  -19.000;    7.000
232.645; -148.925;-1090.000; -927.000
232.789;  -32.850; -257.000; -218.000
232.933;  -38.775; -407.000; -224.000
233.076; -135.425;-1038.000; -897.000
233.220; -114.375; -752.000; -777.000
233.363;  -90.125; -669.000; -477.000
233.507;   53.050;  371.000;  129.000
233.650;  -96.425; -764.000; -834.000
233.794;   31.550;  438.000;  461.000
233.938;  -70.550; -530.000; -362.000
234.081;  -20.825;  -93.000;   31.000
234.225;  -82.900; -631.000; -539.000
234.368; -119.650; -773.000; -723.000
234.512;  -41.200; -385.000; -299.000
234.655;  -95.950; -582.000; -555.000
234.798;  -71.150; -493.000; -466.000
234.942; -136.050; -884.000;-1002.000
235.085;  -70.900; -651.000; -443.000
235.229;  -73.275; -405.000; -410.000
235.372;  -46.000; -247.000; -191.000
235.516;  -70.600; -397.000; -321.000
235.659;   29.800;   92.000;  121.000
235.802;  -12.175;  -38.000;  -22.000
235.946;   22.075;  335.000;  215.000
236.089;   15.975;  126.000;  250.000
236.233;   64.750;  275.000;  298.000
236.376;  -58.275; -235.000; -378.000
236.519;  -56.300; -297.000; -319.000
236.663;  -20.275; -215.000; -117.000
236.806; -130.650;-1029.000; -999.000
236.949;   49.425;  543.000;  431.000
237.092;   73.150;  412.000;  391.000
237.236;  -96.800; -589.000; -502.000
237.379;   72.850;  352.000;  428.000
237.522; -132.050; -879.000; -768.000
237.666;  -14.475; -271.000;   18.000
237.809; -140.850; -851.000; -823.000
237.952;   32.000;  469.000;  271.000
238.095;  -75.750; -447.000; -442.000
238.238;   76.050;  688.000;  700.000
238.382;   -1.375;  166.000;  103.000
238.525;  -80.600; -598.000; -511.000
238.668; -150.150;-1060.000; -985.000
238.811; -102.925; -638.000; -643.000
238.954;  -61.325; -483.000; -334.000
239.097;   88.225;  617.000;  664.000
239.241;   25.075;  394.000;  326.000
239.384;  -41.125; -254.000; -214.000
239.527;  -59.700; -424.000; -224.000
239.670; -153.175; -994.000;-1091.000
239.813; -115.825; -696.000; -658.000
239.956;   84.275;  579.000;  473.000
240.099; -128.625; -778.000; -725.000
240.242;   71.025;  428.000;  432.000
240.385;   44.850;  466.000;  450.000
240.528;  -81.575; -706.000; -473.000
240.671;    1.200;  189.000;  134.000
240.814;  -46.575; -441.000; -158.000
240.957; -101.900; -767.000; -578.000
241.100;  -95.850; -779.000; -755.000
241.243; -144.575;-1234.000; -893.000
241.386;  -70.700; -508.000; -379.000
241.529; -112.925; -735.000; -547.000
241.672;  -78.050; -566.000; -495.000
241.815; -121.450; -832.000; -808.000
241.958;  -33.300; -125.000; -182.000
242.101;  -83.725; -545.000; -390.000
242.244;  -41.875; -270.000; -325.000
242.387;  -41.850; -304.000; -246.000
242.530;   65.600;  470.000;  134.000
242.673;  -50.575; -381.000; -309.000
242.815; -125.400; -925.000; -899.000
242.958;  -80.050; -482.000; -381.000
243.101;   10.175;  132.000;  187.000
243.244;  -89.250; -564.000; -521.000
243.387;  -40.900; -313.000; -316.000
243.530; -106.925; -657.000; -674.000
243.672;    1.400;   43.000;  -92.000
243.815;  -59.125; -355.000; -283.000
243.958;   -8.725;   98.000;  -26.000
244.101;  -17.875;   59.000;  -16.000
244.243;  -18.400;  -47.000;  101.000
244.386; -123.000; -761.000; -630.000
244.529;  -24.900; -132.000; -139.000
244.672; -169.925;-1154.000; -951.000
244.814; -109.525; -621.000; -794.000
244.957;  -33.500; -380.000; -304.000
245.100;  -70.825; -489.000; -489.000
245.242;  -65.425; -387.000; -374.000
245.385;  -20.025;  -59.000;  -39.000
245.528; -139.950; -871.000; -705.000
245.670;   91.325;  612.000;  634.000
245.813; -100.150; -599.000; -547.000
245.956;  -38.950; -324.000; -275.000
246.098;  -85.000; -508.000; -650.000
246.241;    2.350;  194.000;   48.000
246.383;  -25.600; -119.000;  -73.000
246.526;  -76.700; -454.000; -525.000
246.669; -132.750; -889.000; -780.000
246.811;   19.750;  172.000;   -1.000
246.954;  -68.425; -512.000; -426.000
247.096;  -30.150;  -84.000;   -6.000
247.239;  -75.075; -482.000; -445.000
247.381;  -78.825; -647.000; -488.000
247.524;   89.425;  645.000;  679.000
247.666;   -7.075;   58.000;   11.000
247.809; -118.625; -887.000; -691.000
247.951;  -19.425;  -75.000;  138.000
248.094;   14.200;  432.000;  308.000
248.236; -171.150;-1262.000;-1238.000
248.378;  -47.350; -356.000;  -81.000
248.521;  -61.275; -334.000; -337.000
248.663;  -46.175; -236.000; -267.000
248.806;  -40.400; -300.000; -266.000
248.948; -138.625; -886.000; -763.000
249.090;  -71.250; -428.000; -398.000
249.233;  -84.775; -344.000; -381.000
249.375;  -77.500; -474.000; -451.000
249.518;  -25.900;  -83.000; -133.000
249.660;  -12.450; -103.000;    3.000
249.802; -186.500;-1303.000;-1189.000
249.945;  -88.200; -612.000; -540.000
250.087; -118.375; -834.000; -768.000
250.229;  -64.600; -362.000; -480.000
250.371;  -80.125; -494.000; -439.000
250.514;  -61.200; -310.000; -244.000
250.656;  -11.025;   69.000;  102.000
250.798; -126.000; -849.000; -800.000
250.940;  -68.850; -322.000; -322.000
251.083;  -41.800; -335.000; -111.000
251.225;   37.775;  338.000;  310.000
251.367;  -44.825; -274.000; -373.000
251.509;  -23.025; -265.000; -210.000
251.651; -102.575; -731.000; -671.000
251.794;   74.125;  538.000;  632.000
251.936; -124.000; -821.000; -747.000
252.078;  -84.250; -540.000; -461.000
252.220;  -85.925; -645.000; -477.000
252.362;   29.225;  344.000;  462.000
252.504;  -95.625; -677.000; -584.000
252.646; -120.700; -875.000; -722.000
252.788;  -19.275;   14.000; -128.000
252.931;  -63.350; -257.000; -253.000
253.073;  -59.350; -376.000; -317.000
253.215;  -10.675;  141.000;  122.000
253.357;  -34.350;   82.000; -153.000
253.499;  -62.275; -374.000; -234.000
253.641;  -89.775; -749.000; -594.000
253.783;  -91.825; -609.000; -527.000
253.925;  -85.325; -586.000; -591.000
254.067; -110.950; -744.000; -667.000
254.209;  -44.325; -391.000; -259.000
254.351; -151.275; -865.000; -883.000
254.493;  -61.725; -441.000; -417.000
254.635; -143.325; -936.000; -818.000
254.777;  -99.100; -752.000; -687.000
254.918;  -68.600; -512.000; -430.000
255.060;  -68.175; -551.000; -395.000
255.202;  -69.425; -473.000; -261.000
255.344;  -91.850; -658.000; -455.000
255.486;  -86.425; -471.000; -406.000
255.628; -113.975; -780.000; -781.000
255.770; -101.575; -676.000; -536.000
255.912;  -67.500; -559.000; -468.000
256.053; -101.875; -730.000; -508.000
256.195;  165.700; 1008.000;  903.000
256.337; -112.850; -861.000; -595.000
256.479;   64.150;  532.000;  416.000
256.621;  -63.125; -394.000; -212.000
256.762; -108.950; -789.000; -742.000
256.904;   50.575;  485.000;  487.000
257.046;  -46.450; -381.000; -271.000
257.188;  -55.475; -351.000; -264.000
257.329;  -64.750; -525.000; -464.000
257.471; -132.850; -939.000; -807.000
257.613;  -85.225; -584.000; -498.000
257.755; -168.900;-1073.000; -982.000
257.896;   40.075;  286.000;  392.000
258.038;  -88.575; -403.000; -352.000
258.180;  -53.700; -354.000; -279.000
258.321;  -92.875; -581.000; -457.000
258.463;  -30.600;  -71.000;  133.000
258.605; -103.500; -562.000; -570.000
258.746; -127.250; -886.000; -772.000
258.888; -167.575;-1026.000;-1020.000
259.029;    3.125;  121.000;   -8.000
259.171; -107.850; -614.000; -550.000
259.313;   -8.725;  -49.000;  -47.000
259.454;  -82.550; -536.000; -414.000
259.596;  -51.075; -483.000; -390.000
259.737;  -76.975; -590.000; -474.000
259.879;   26.450;  217.000;  311.000
260.020;   73.575;  901.000;  636.000
260.162;  -36.425; -146.000; -253.000
260.303; -125.375; -768.000; -687.000
260.445;  -85.975; -609.000; -613.000
260.586;   14.700;  392.000;  157.000
260.728;  -56.250; -360.000; -248.000
260.869; -123.400; -350.000; -343.000
261.011;   84.475;  706.000;  537.000
261.152;  -83.400; -479.000; -319.000
261.293;  -86.500; -576.000; -595.000
261.435;  -25.950; -219.000; -184.000
261.576;  -66.175; -455.000; -325.000
261.718;   50.100;  420.000;  470.000
261.859; -135.875; -940.000; -949.000
262.000; -158.075; -951.000;-1016.000
262.142;  -26.475;  -52.000;  -60.000
262.283; -136.900; -808.000; -691.000
262.424; -101.550; -666.000; -625.000
262.566; -153.675;-1161.000; -983.000
262.707; -131.475; -840.000; -830.000
262.848; -139.000; -769.000; -726.000
262.990;  -57.800; -362.000; -345.000
263.131;   76.200;  650.000;  681.000
263.272;  -17.000;  -61.000;  -41.000
263.413; -105.625; -589.000; -561.000
263.555;  -89.850; -669.000; -143.000
263.696;  -95.475; -550.000; -641.000
263.837;  -63.025; -449.000; -551.000
263.978;  -19.575;   -5.000;  -77.000
264.119;  -64.975; -283.000; -264.000
264.261; -118.500; -847.000; -630.000
264.402;   -2.500;   33.000;   40.000
264.543;  -87.425; -509.000; -524.000
264.684;  -26.375;   61.000;  -50.000
264.825;  -99.450; -816.000; -538.000
264.966;  -34.625;  -84.000;  -67.000
265.107; -121.800; -646.000; -670.000
265.248; -137.675; -825.000; -812.000
265.390;  -22.275;  152.000;   -9.000
265.531;  -14.525; -238.000; -107.000
265.672; -105.500; -557.000; -630.000
265.813;   55.025;  563.000;  439.000
265.954; -169.950; -959.000; -940.000
266.095;  -27.575; -372.000; -322.000
266.236; -126.625; -686.000; -548.000
266.377;  -57.650; -243.000; -297.000
266.518;  -88.675; -619.000; -547.000
266.659;   20.800;  170.000;  268.000
266.800;   -2.725;   83.000;   85.000
266.941;  -82.600; -487.000; -478.000
267.082;    0.025;  354.000;   99.000
267.223;  -57.850; -344.000; -273.000
267.364; -140.125; -892.000; -686.000
267.504;  -27.375;    3.000;  135.000
267.645;  -10.250;  160.000;   67.000
267.786;  -47.875; -147.000;  -86.000
267.927;  -83.050; -473.000; -379.000
268.068;  -32.300; -186.000;  -61.000
268.209;  -63.825; -175.000; -413.000
268.350;  -75.675; -388.000; -532.000
268.490;  -95.550; -648.000; -521.000
268.631;   21.775;  127.000;  225.000
268.772; -118.875; -874.000; -647.000
268.913;  -62.700; -328.000; -476.000
269.054;  -34.575; -117.000;   12.000
269.194;  -58.325; -418.000; -402.000
269.335; -169.050;-1137.000;-1074.000
269.476;  -33.100;   33.000;  -35.000
269.617;  -51.700; -347.000; -392.000
269.757; -115.775; -713.000; -646.000
269.898; -119.525; -856.000; -613.000
270.039;  -73.525; -415.000; -405.000
270.180; -143.925; -952.000; -816.000
270.320;  -39.675; -190.000; -250.000
270.461;  -54.025; -277.000; -249.000
270.602;  -24.800; -186.000; -156.000
270.742; -147.400; -868.000; -943.000
270.883;  -70.750; -442.000; -390.000
271.023;  -64.625; -358.000; -357.000
271.164;  -85.500; -607.000; -528.000
271.305; -105.100; -666.000; -654.000
271.445; -100.675; -722.000; -683.000
271.586;  -74.000; -462.000; -283.000
271.726;  -62.850; -397.000; -322.000
271.867;  -96.350; -594.000; -534.000
272.008;  -59.900; -473.000; -285.000
272.148;   38.400;  462.000;  468.000
272.289;  -32.000; -113.000; -181.000
272.429;   -9.200;   19.000;  185.000
272.570; -124.725; -633.000; -737.000
272.710; -123.275; -825.000; -775.000
272.851;  -30.425;  113.000; -130.000
272.991; -189.475;-1173.000;-1077.000
273.131;  -74.925; -419.000; -459.000
273.272; -113.750; -683.000; -723.000
273.412;  -25.500; -143.000;  -31.000
273.553;  -84.500; -488.000; -507.000
273.693;  105.025;  913.000;  858.000
273.834; -153.625; -894.000; -692.000
273.974; -108.625; -664.000; -615.000
274.114; -117.475; -772.000; -560.000
274.255;   28.250;  414.000;  373.000
274.395;  -60.400; -180.000; -125.000
274.535;   20.300;  199.000;  350.000
274.676;   12.500;  225.000;   94.000
274.816;   -6.500;  110.000;   34.000
274.956; -110.475; -624.000; -690.000
275.097; -148.250;-1014.000; -922.000
275.237; -143.200; -913.000; -803.000
275.377; -125.400; -778.000; -689.000
275.517; -177.050; -878.000; -937.000
275.658;  -87.925; -590.000; -555.000
275.798; -124.125; -606.000; -413.000
275.938;   12.725;  215.000;  323.000
276.078;  -93.100; -626.000; -395.000
276.218;   -2.650;   99.000;  104.000
276.359; -160.825;-1026.000;-1024.000
276.499;  -93.075; -605.000; -446.000
276.639;  -44.925; -305.000; -151.000
276.779;  -68.825; -475.000; -357.000
276.919; -119.325; -783.000; -624.000
277.059;  -35.475; -261.000; -212.000
277.199;  -58.700; -357.000; -259.000
277.340;   22.775;  287.000;  175.000
277.480; -131.975; -840.000; -693.000
277.620;   31.025;  192.000;   16.000
277.760; -215.900;-1533.000;-1294.000
277.900;   -5.400;  113.000;   33.000
278.040;   -9.225;  137.000;  159.000
278.180;   17.300;  270.000;  170.000
278.320;  -32.250;   21.000;   56.000
278.460;  -84.575; -443.000; -469.000
278.600;  -97.950; -708.000; -598.000
278.740;   36.425;  448.000;  224.000
278.880; -144.025; -768.000; -791.000
279.020;  -54.375; -194.000; -144.000
279.160; -107.725; -672.000; -595.000
279.300; -132.125; -926.000; -873.000
279.440; -108.550; -709.000; -622.000
279.579; -159.275;-1014.000; -929.000
279.719;  -88.525; -410.000; -394.000
279.859;    0.450;   -4.000;   41.000
279.999;  -40.550; -208.000;  101.000
280.139;  -64.150; -435.000; -387.000
280.279; -135.075; -708.000; -745.000
280.419;  -33.450; -229.000; -147.000
280.559;  -56.750; -259.000; -180.000
280.698; -130.775; -790.000; -639.000
280.838; -123.125; -778.000; -800.000
280.978; -106.425; -846.000; -790.000
281.118; -131.550; -811.000; -704.000
281.257;  -12.050;   24.000;    6.000
281.397; -176.050;-1094.000; -960.000
281.537; -107.850; -599.000; -712.000
281.677;  -27.750; -150.000; -101.000
281.816; -106.375; -700.000; -630.000
281.956;  -40.500; -193.000; -257.000
282.096;  -83.525; -539.000; -396.000
282.235; -125.000; -672.000; -638.000
282.375;  -38.800; -243.000;  -98.000
282.515; -129.075; -715.000; -707.000
282.654;   -5.350;   29.000;  106.000
282.794;    4.150;  388.000;  244.000
282.934;  -81.050; -530.000; -491.000
283.073; -162.225;-1030.000; -857.000
283.213;  -76.825; -460.000; -467.000
283.353;  -85.375; -408.000; -349.000
283.492;  -50.400; -264.000; -296.000
283.632;  -50.400; -254.000; -168.000
283.771; -120.700; -859.000; -730.000
283.911;  -74.775; -369.000; -260.000
284.050; -122.975; -794.000; -748.000
284.190; -188.175;-1229.000;-1096.000
284.329; -169.375;-1055.000; -964.000
284.469; -115.375; -516.000; -591.000
284.608;  -78.400; -559.000; -598.000
284.748; -102.500; -614.000; -570.000
284.887;  -17.825;  -87.000;  -20.000
285.027; -142.800; -844.000; -892.000
285.166;  -42.125; -192.000; -249.000
285.306;  -43.975; -116.000;  -33.000
285.445;  -52.600; -229.000; -343.000
285.584; -111.800; -630.000; -494.000
285.724;  -57.550; -282.000; -322.000
285.863; -123.250; -857.000; -507.000
286.002;  -75.275; -366.000; -276.000
286.142; -112.925; -715.000; -622.000
286.281;  -90.925; -525.000; -493.000
286.420;  -88.125; -554.000; -417.000
286.560;   71.225;  653.000;  623.000
286.699; -156.375; -958.000; -912.000
286.838; -111.525; -590.000; -591.000
286.978;  -96.225; -533.000; -537.000
287.117; -153.425;-1085.000; -950.000
287.256;  -42.625; -228.000; -211.000
287.395;  -65.650; -197.000; -378.000
287.535;  -74.550; -370.000; -298.000
287.674;  -94.175; -509.000; -484.000
287.813;   48.125;  661.000;  533.000
287.952; -151.600;-1010.000; -871.000
288.091; -166.000;-1049.000; -915.000
288.231;  -12.325;   13.000;   15.000
288.370; -191.200;-1217.000;-1200.000
288.509; -100.450; -728.000; -645.000
288.648; -113.325; -770.000; -548.000
288.787;  -46.625; -243.000;  -87.000
288.926;  -89.050; -454.000; -475.000
289.065;  109.125;  859.000;  672.000
289.204;  -64.275; -377.000; -217.000
289.344; -115.625; -791.000; -690.000
289.483;    2.150;  416.000;  304.000
289.622;  -37.650; -291.000; -149.000
289.761;  -32.150; -309.000; -166.000
289.900; -119.400; -785.000; -626.000
290.039;  -44.400;  -12.000;  -95.000
290.178;  -56.100; -274.000; -180.000
290.317; -105.300; -618.000; -479.000
290.456;  -72.725; -463.000; -451.000
290.595; -160.425; -961.000; -833.000
290.734; -157.700; -904.000; -891.000
290.873;  -88.875; -456.000; -420.000
291.011; -126.300; -833.000; -843.000
291.150; -130.725; -770.000; -682.000
291.289;  -53.100; -343.000; -110.000
291.428; -111.050; -599.000; -480.000
291.567;  -79.950; -370.000; -442.000
291.706;  -21.400;  109.000;  154.000
291.845; -117.825; -597.000; -505.000
291.984; -183.000;-1234.000;-1061.000
292.122;   54.350;  602.000;  582.000
292.261;   18.800;  620.000;  463.000
292.400;  -13.425; -144.000;  211.000
292.539; -146.375; -959.000; -813.000
292.678;  -57.225; -325.000; -300.000
292.816; -181.375;-1136.000; -965.000
292.955; -125.750; -844.000; -684.000
293.094;  -49.050; -173.000; -337.000
293.233;  -65.700; -556.000; -400.000
293.371;  -56.900; -225.000;  -84.000
293.510; -131.275; -866.000; -780.000
293.649; -154.925; -959.000; -924.000
293.787; -167.700;-1083.000;-1012.000
293.926;  -46.350; -113.000;  -32.000
294.065;  -82.075; -379.000; -290.000
294.203;   17.575;  298.000;  406.000
294.342;  -18.975;   74.000;  156.000
294.481; 7020.250;51180.000; -836.000
294.619;  -47.475; -425.000; -582.000
294.758; -174.200;-1230.000;-1137.000
294.896;  -26.475; -125.000;    5.000
295.035; -171.900;-1040.000;-1006.000
295.174; -167.450;-1082.000; -954.000
295.312;  -69.725; -323.000; -203.000
295.451;  -72.025; -307.000; -428.000
295.589;  -84.675; -389.000; -518.000
295.728;  -23.425; -292.000; -165.000
295.866;  -36.850;  -36.000;  -51.000
296.005;  -92.225; -584.000; -341.000
296.143; -105.275; -558.000; -596.000
296.282; -137.175; -957.000; -881.000
296.420; -117.050; -657.000; -557.000
296.559; -116.725; -892.000; -633.000
296.697; -127.525; -847.000; -665.000
296.835; -176.400;-1141.000;-1002.000
296.974;  -14.875;  -23.000;   39.000
297.112;  -91.000; -443.000; -504.000
297.251; -131.025; -815.000; -755.000
297.389;  -85.125; -576.000; -438.000
297.527;  -49.725; -145.000;  -83.000
297.666;  -92.100; -486.000; -438.000
297.804;  -79.325; -404.000; -264.000
297.942;  -31.975; -136.000; -161.000
298.081;  -25.975; -183.000;   63.000
298.219;  -36.600;  -17.000;  -19.000
298.357;  -56.550; -144.000;  -71.000
298.495; -137.825; -810.000; -812.000
298.634;  -25.475;  245.000;  219.000
298.772;  -50.200; -220.000; -338.000
298.910;  -87.275; -309.000; -182.000
299.048;  -40.100; -130.000; -153.000
299.187;  -67.900; -350.000; -250.000
299.325;  -19.525;   52.000;  122.000
299.463;  -81.825; -389.000; -299.000
299.601;  -54.500; -327.000; -271.000
299.739; -160.500; -908.000; -883.000
299.877; -112.400; -791.000; -703.000
300.016; -168.150;-1095.000; -935.000
300.154;  -20.875;  -19.000; -161.000
300.292;  -77.225; -428.000; -348.000
300.430;  -68.750; -408.000; -291.000
300.568; -156.875; -940.000; -874.000
300.706;  -91.725; -366.000; -469.000
300.844; -176.850;-1108.000; -979.000
300.982;   19.550;  246.000;  282.000
301.120; -158.875; -965.000; -866.000
301.258; -120.025; -812.000; -705.000
301.396;  -19.825;  104.000;  -41.000
301.534;  -66.600; -218.000; -293.000
301.672; -114.425; -664.000; -521.000
301.810; -100.250; -613.000; -545.000
301.948;  -22.900;   53.000;  149.000
302.086;  -52.175; -250.000;  -32.000
302.224; -118.450; -610.000; -585.000
302.362; -106.950; -558.000; -622.000
302.500; -152.475; -923.000; -893.000
302.638;    8.450;  128.000;  245.000
302.776;  -60.325; -352.000; -408.000
302.913;   33.875;  447.000;  236.000
303.051;  -45.600;  -86.000;  -23.000
303.189;   -9.325;   90.000;  118.000
303.327;  -71.225; -341.000; -256.000
303.465; -120.850; -832.000; -588.000
303.603; -127.000; -805.000; -604.000
303.740;    7.000;  417.000;  241.000
303.878; -138.200; -800.000; -759.000
304.016; -128.325; -915.000; -790.000
304.154; -191.200;-1123.000;-1152.000
304.291;  -88.525; -505.000; -554.000
304.429;  -23.575;  102.000;   74.000
304.567; -161.075; -908.000; -893.000
304.705;  -97.950; -408.000; -515.000
304.842; -113.925; -616.000; -540.000
304.980;  -22.500;  215.000;   35.000
305.118;  -74.500; -367.000; -365.000
305.255; -160.800; -945.000; -927.000
305.393;   14.700;  178.000;  239.000
305.531; -185.950;-1173.000; -956.000
305.668; -104.650; -663.000; -582.000
305.806;  -95.225; -358.000; -439.000
305.943; -111.800; -629.000; -637.000
306.081;  -78.400; -378.000; -267.000
306.219; -128.350; -863.000; -748.000
306.356;  -27.800;  158.000;   27.000
306.494;   79.850;  981.000;  761.000
306.631;  -34.875;  -11.000;  -55.000
306.769;  -79.625; -613.000; -485.000
306.906;  -89.400; -284.000; -258.000
307.044;  -90.425; -473.000; -488.000
307.181;  -95.250; -410.000; -332.000
307.319;  -14.125;  112.000;   87.000
307.456; -192.450;-1191.000;-1153.000
307.594; -153.625; -980.000; -727.000
307.731;  -50.175; -371.000; -164.000
307.868;  -25.200;  -15.000;   20.000
308.006; -156.375; -961.000; -847.000
308.143;  -99.500; -618.000; -330.000
308.281;  -56.125;  -37.000; -254.000
308.418; -106.650; -748.000; -640.000
308.555; -113.100; -400.000; -250.000
308.693; -104.900; -577.000; -573.000
308.830; -143.225; -712.000; -657.000
308.967;  -44.200; -215.000;  -95.000
309.105;  -91.000; -507.000; -396.000
309.242;  -78.175; -468.000; -367.000
309.379; -113.200; -577.000; -655.000
309.517; -156.100; -936.000; -948.000
309.654; -147.325; -910.000; -734.000
309.791; -123.325; -662.000; -580.000
309.928; -158.250; -977.000; -914.000
310.065;   65.350;  819.000;  697.000
310.203; -148.475; -825.000; -850.000
310.340;  -99.275; -465.000; -321.000
310.477; -104.175; -412.000; -516.000
310.614;  -85.825; -383.000; -473.000
310.751; -102.050; -427.000; -518.000
310.889;  -44.650;    1.000;   11.000
311.026; -175.000;-1161.000; -939.000
311.163;  -84.375; -386.000; -380.000
311.300; -104.975; -512.000; -479.000
311.437;  -95.375; -658.000; -619.000
311.574; -200.400;-1226.000; -985.000
311.711;  -91.325; -595.000; -433.000
311.848;  -65.825; -380.000; -388.000
311.985;  -21.900;  270.000;   93.000
312.122; -166.750; -932.000; -762.000
312.259; -146.750; -941.000; -994.000
312.396; -118.700; -508.000; -551.000
312.533; -126.150; -812.000; -790.000
312.670; -172.850;-1070.000; -898.000
312.807;  -78.925; -352.000; -367.000
312.944; -117.950; -513.000; -611.000
313.081;  -84.575; -150.000; -415.000
313.218; -167.000;-1111.000; -867.000
313.355;  -91.975; -531.000; -449.000
313.492;  -71.525; -455.000; -292.000
313.629;   72.200;  815.000;  735.000
313.766; -197.325;-1176.000;-1008.000
313.902;  -41.375; -186.000;   21.000
314.039;  -73.975; -372.000; -289.000
314.176;   -7.525;  286.000;  192.000
314.313; -128.925; -569.000; -473.000
314.450; -139.925; -788.000; -684.000
314.587; -101.725; -468.000; -480.000
314.723;  -25.800;  -78.000;  130.000
314.860;   -2.250;  318.000;  332.000
314.997;    1.300;  223.000;  142.000
315.134;  -98.225; -385.000; -368.000
315.270;  -96.775; -480.000; -496.000
315.407; -182.600;-1094.000; -967.000
315.544; -107.400; -657.000; -538.000
315.681; -114.850; -681.000; -565.000
315.817;  -61.875; -133.000; -176.000
315.954; -111.850; -613.000; -392.000
316.091; -183.175;-1045.000;-1023.000
316.227;  -48.275;  -71.000; -179.000
316.364;  -20.125;   23.000;    6.000
316.500;  -60.550; -113.000; -300.000
316.637;  -56.950; -181.000; -302.000
316.774; -125.150; -625.000; -358.000
316.910; -111.500; -598.000; -629.000
317.047; -108.925; -487.000; -351.000
317.183; -104.850; -435.000; -566.000
317.320; -101.500; -367.000; -321.000
317.456; -141.900; -733.000; -805.000
317.593; -129.600; -598.000; -641.000
317.729;  -13.475;  168.000;  -67.000
317.866; -231.425;-1434.000;-1285.000
318.002; -116.425; -708.000; -948.000
318.139; -163.225; -883.000; -867.000
318.275; -145.175;-1003.000; -738.000
318.412; -104.700; -517.000; -336.000
318.548; -123.675; -751.000; -720.000
318.685; -166.425; -985.000; -888.000
318.821; -136.625; -762.000; -735.000
318.957;  -49.900;   34.000;  -23.000
319.094;   20.975;  297.000;  154.000
319.230; -143.650; -756.000; -742.000
319.367;  -93.125; -471.000; -520.000
319.503;  -91.875; -538.000; -436.000
319.639; -136.625; -877.000; -793.000
319.775; -140.525; -750.000; -685.000
319.912;  -84.750; -424.000; -519.000
320.048; -187.175;-1184.000;-1184.000
320.184;  -17.150;   59.000;   70.000
320.321; -102.100; -497.000; -467.000
320.457;   32.275;  475.000;  662.000
320.593;  -99.650; -375.000; -382.000
320.729; -137.575; -732.000; -734.000
320.866; -121.125; -577.000; -635.000
321.002; -148.525; -759.000; -809.000
321.138;  -78.650; -135.000; -211.000
321.274;  -40.600; -148.000; -115.000
321.410; -110.825; -585.000; -353.000
321.546; -155.150;-1011.000; -911.000
321.683;    2.250;  400.000;  185.000
321.819;  -41.775;  -48.000; -117.000
321.955; -138.925; -743.000; -722.000
322.091;  -90.150; -585.000; -540.000
322.227;  -71.725; -382.000; -202.000
322.363;  -65.025; -320.000; -215.000
322.499;  -77.500; -343.000; -331.000
322.635;   38.825;  636.000;  443.000
322.771;  -54.600; -139.000;   12.000
322.907;   19.525;  129.000;  327.000
323.043;  -58.100; -115.000; -206.000
323.179;  -84.625; -394.000; -363.000
323.315; -112.750; -401.000; -371.000
323.451;  -87.700; -328.000; -236.000
323.587;  -50.400;  -60.000;  -77.000
323.723; -108.775; -682.000; -601.000
323.859;  -51.300; -258.000;  -76.000
323.995;  -75.475; -467.000; -409.000
324.131; -156.275; -967.000; -892.000
324.267;  -69.775; -254.000; -276.000
324.402; -183.700; -960.000; -983.000
324.538;  -54.350; -279.000; -104.000
324.674;  -25.450;  164.000;   77.000
324.810;  -20.400;  226.000;  308.000
324.946;  -89.925; -810.000; -658.000
325.082; -102.350; -568.000; -475.000
325.217;  -54.650;  -62.000;   16.000
325.353; -115.700; -764.000; -659.000
325.489; -116.650; -540.000; -506.000
325.625;  -89.400; -579.000; -525.000
325.760;    8.525;  517.000;  376.000
325.896; -111.125; -515.000; -702.000
326.032;  -76.875; -403.000; -352.000
326.168;  -91.125; -462.000; -369.000
326.303;  -89.875; -352.000; -461.000
326.439;  -72.250; -336.000; -276.000
326.575;  -45.225; -190.000;  -29.000
326.710;  -32.225; -156.000;  -30.000
326.846;  -37.300;  146.000;  103.000
326.982; -116.275; -530.000; -548.000
327.117; -111.150; -481.000; -442.000
327.253; -121.375; -745.000; -742.000
327.388; -178.275;-1137.000;-1153.000
327.524; -128.275; -811.000; -578.000
327.659;  -50.525;  -58.000;  -22.000
327.795;  -23.100;   69.000;   45.000
327.931; -135.475; -723.000; -499.000
328.066;  -66.150; -417.000; -276.000
328.202;  -46.400;   12.000; -129.000
328.337;   79.775;  957.000;  713.000
328.473;   20.900;  -12.000;  -74.000
328.608;  -60.550; -256.000; -267.000
328.743; -135.225; -799.000; -664.000
328.879;   -8.775;  214.000;  114.000
329.014;  -59.325; -102.000; -122.000
329.150; -115.200; -358.000; -483.000
329.285; -113.250; -465.000; -466.000
329.421;  -77.375; -548.000; -246.000
329.556;  -40.350;  -36.000;   85.000
329.691; -110.700; -633.000; -615.000
329.827; -101.950; -626.000; -480.000
329.962;  -73.700;  131.000; -301.000
330.097; -127.375; -673.000; -585.000
330.233;  -81.775; -410.000; -223.000
330.368; -145.350; -839.000; -628.000
330.503;  -38.475;    3.000;   98.000
330.638;  -36.050;  -93.000; -125.000
330.774; -111.725; -609.000; -530.000
330.909;  -70.900; -434.000; -244.000
331.044; -110.925; -714.000; -708.000
331.179; -215.600;-1217.000;-1109.000
331.315;  -13.100;   77.000;   20.000
331.450;   -9.200;  157.000;  285.000
331.585; -124.100; -805.000; -706.000
331.720; -110.000; -510.000; -460.000
331.855;  -45.225;  -35.000; -102.000
331.990;  -45.975;   62.000;  138.000
332.126;  -29.475; -110.000;   71.000
332.261;  -89.975; -379.000; -265.000
332.396;  -67.100; -135.000; -242.000
332.531; -176.350;-1074.000;-1031.000
332.666;  -77.950; -519.000; -363.000
332.801; -136.675; -726.000; -807.000
332.936;  -42.900; -192.000; -122.000
333.071; -185.725; -870.000; -817.000
333.206;   -0.075;  307.000;  379.000
333.341;   14.350;  344.000;  418.000
333.476; -120.700; -627.000; -623.000
333.611;  -69.875; -251.000; -173.000
333.746;  -68.275; -381.000; -464.000
333.881; -159.675; -973.000; -935.000
334.016; -159.575; -936.000; -917.000
334.151; -163.875; -746.000; -702.000
334.286;  -12.950;  152.000;  186.000
334.421;  -49.725; -125.000; -178.000
334.556; -123.150; -611.000; -567.000
334.690; -134.850; -631.000; -577.000
334.825;   10.175;  381.000;   83.000
334.960; -102.325; -285.000; -413.000
335.095;  -17.775;  135.000;  -91.000
335.230; -138.200; -722.000; -738.000
335.365; -175.075;-1084.000; -990.000
335.499; -181.375;-1108.000;-1037.000
335.634;  -20.775;    9.000;  534.000
335.769; -148.575; -755.000; -720.000
335.904; -121.250; -603.000; -561.000
336.038; -145.925; -735.000; -657.000
336.173; -198.350;-1206.000;-1194.000
336.308;  -76.500; -116.000; -189.000
336.443;  -90.675; -544.000; -634.000
336.577; -150.150; -936.000; -787.000
336.712;  -26.975;   -4.000;  -12.000
336.847; -134.325; -724.000; -607.000
336.981;  -76.200; -272.000; -208.000
337.116;   11.350;  615.000;  501.000
337.250;  -98.025; -434.000; -421.000
337.385;  -84.250; -297.000; -208.000
337.520; -131.325; -632.000; -603.000
337.654;  -83.400; -215.000; -126.000
337.789; -161.450; -989.000; -933.000
337.923;  -62.825; -104.000; -205.000
338.058; -137.425; -673.000; -738.000
338.192; -121.625; -611.000; -488.000
338.327;  -57.200;  -18.000; -155.000
338.461; -104.300; -299.000; -469.000
338.596; -128.175; -780.000; -638.000
338.730; -146.900; -767.000; -803.000
338.865;  -37.275;  -46.000; -140.000
338.999; -164.100; -846.000; -702.000
339.134; -120.375; -634.000; -536.000
339.268; -133.050; -741.000; -603.000
339.403; -147.350; -740.000; -775.000
339.537; -137.350; -894.000; -820.000
339.671; -154.575; -829.000; -813.000
339.806; -125.000; -556.000; -512.000
339.940;  -72.650; -261.000; -235.000
340.074; -136.825; -685.000; -510.000
340.209;  -69.700; -351.000; -230.000
340.343; -120.500; -517.000; -573.000
340.477;  120.725;  998.000; 1036.000
340.612; -158.125;-1033.000; -900.000
340.746;  -81.950; -199.000; -243.000
340.880; -166.750; -924.000; -785.000
341.014;  -54.575;  -45.000; -154.000
341.149; -144.825; -756.000; -718.000
341.283; -135.275; -839.000; -754.000
341.417; -179.625;-1124.000; -938.000
341.551; -147.250; -768.000; -708.000
341.685; -122.600; -633.000; -611.000
341.820; -121.475; -562.000; -493.000
341.954;  -90.575; -218.000; -349.000
342.088; -180.075;-1102.000;-1019.000
342.222;   30.375;  565.000;  618.000
342.356; -107.300; -395.000; -335.000
342.490; -149.575; -880.000; -841.000
342.624;  -89.025; -339.000; -242.000
342.758;  -84.250; -364.000; -312.000
342.892; -127.050; -710.000; -585.000
343.026;  -66.850;  -58.000; -116.000
343.160;  -80.700; -426.000; -376.000
343.294; -111.850; -474.000; -337.000
343.428; -112.050; -488.000; -448.000
343.562;  -55.575; -172.000;  -23.000
343.696;  -77.700; -385.000; -314.000
343.830;  -88.825; -362.000; -356.000
343.964;  -57.850; -231.000; -168.000
344.098;  -27.125;  199.000;   70.000
344.232;  -77.325; -266.000; -127.000
344.366; -118.250; -567.000; -453.000
344.500; -119.025; -665.000; -744.000
344.634;  -79.425; -324.000; -164.000
344.768; -106.900; -531.000; -341.000
344.902;  -20.225;  278.000;  256.000
345.035; -104.425; -556.000; -496.000
345.169; -173.750; -933.000; -656.000
345.303;  -94.025; -308.000; -482.000
345.437; -153.600; -826.000; -717.000
345.571; -130.300; -675.000; -594.000
345.704; -116.900; -309.000; -532.000
345.838;  -77.775; -331.000; -284.000
345.972; -124.425; -543.000; -495.000
346.106;  -43.650; -179.000; -190.000
346.239;  -89.150; -312.000; -243.000
346.373;  -87.100; -343.000; -302.000
346.507; -182.525; -950.000; -962.000
346.640;  -38.500;  -30.000;   13.000
346.774; -129.175; -650.000; -797.000
346.908;  -51.975; -138.000;  -11.000
347.041; -124.725; -646.000; -593.000
347.175;  -22.950;  259.000;   27.000
347.309; -133.500; -698.000; -628.000
347.442; -154.750; -883.000; -732.000
347.576;   39.800;  670.000;  668.000
347.709;  -50.700; -123.000;  -52.000
347.843; -176.300; -933.000; -825.000
347.976;   12.200;  235.000;  294.000
348.110; -215.000;-1268.000;-1186.000
348.243; -122.850; -679.000; -772.000
348.377;  -42.375;  -26.000;   60.000
348.510;   15.600;  403.000;  540.000
348.644;  -69.125;  -37.000; -159.000
348.777;  -33.575;  180.000;  191.000
348.911;  -83.875; -142.000; -112.000
349.044;   22.250;  471.000;  448.000
349.178; -192.375;-1069.000;-1006.000
349.311;  -12.225;  141.000;  255.000
349.444; -178.125; -927.000; -813.000
349.578;  -59.000; -347.000; -200.000
349.711; -174.725; -959.000; -862.000
349.845; -128.900; -661.000; -591.000
349.978; -202.575;-1224.000;-1137.000
350.111; -114.575; -546.000; -612.000
350.244; -139.475; -596.000; -700.000
350.378; -103.825; -392.000; -393.000
350.511;  -98.700; -393.000; -426.000
350.644; -139.800; -808.000; -806.000
350.778;  -43.300;  168.000;  104.000
350.911;  -27.750;  134.000;  140.000
351.044; -139.200; -685.000; -615.000
351.177;  -65.750; -321.000; -281.000
351.310;  -55.725;    3.000; -131.000
351.444; -149.250; -888.000; -788.000
351.577;  -22.025;  140.000;   90.000
351.710;   43.100;  593.000;  417.000
351.843;  -68.875; -165.000;  -77.000
351.976;  -35.475;  149.000;  -79.000
352.109; -129.950; -621.000; -612.000
352.242; -107.100; -464.000; -419.000
352.376; -131.125; -580.000; -636.000
352.509;  -87.425; -437.000; -356.000
352.642; -190.500; -654.000; -604.000
352.775;  -69.725; -141.000;  -98.000
352.908; -174.025; -933.000; -904.000
353.041; -148.950; -814.000; -824.000
353.174;  -94.625; -551.000; -424.000
353.307; -142.150; -753.000; -764.000
353.440;   13.325;  541.000;  453.000
353.573; -157.975; -957.000;-1008.000
353.706; -142.975; -384.000; -558.000
353.839;  -72.750; -264.000; -220.000
353.971; -130.100; -657.000; -512.000
354.104; -157.000; -896.000; -835.000
354.237; -153.875; -627.000; -662.000
354.370; -144.350; -846.000; -879.000
354.503; -233.225;-1231.000;-1308.000
354.636;  -97.225; -529.000; -348.000
354.769; -163.525; -937.000; -860.000
354.902;  -74.800; -230.000; -139.000
355.034;  -73.950; -164.000; -220.000
355.167;  -64.325; -262.000; -162.000
355.300; -185.000;-1061.000; -880.000
355.433;  -42.925;  -71.000;  -14.000
355.565; -104.800; -402.000; -384.000
355.698;  -75.150; -356.000; -296.000
355.831; -161.500; -882.000; -801.000
355.964;  -59.350; -285.000; -170.000
356.096; -172.100; -856.000; -843.000
356.229; -124.925; -523.000; -530.000
356.362; -100.225; -373.000; -266.000
356.494;  -63.100; -229.000; -162.000
356.627;    3.925;  269.000;  377.000
356.760;  -38.575;  120.000;   53.000
356.892; -129.025; -286.000; -601.000
357.025;    9.625;  403.000;  389.000
357.157;  -64.925; -167.000; -179.000
357.290; -149.500; -856.000; -713.000
357.423; -128.525; -667.000; -556.000
357.555;  -62.150; -217.000; -228.000
357.688; -101.525; -483.000; -364.000
357.820; -153.675; -870.000; -877.000
357.953; -132.375; -563.000; -589.000
358.085; -124.500; -632.000; -612.000
358.218; -182.300;-1131.000; -932.000
358.350;  -37.225;  -58.000;  312.000
358.483; -218.525;-1300.000;-1187.000
358.615; -186.200;-1182.000;-1078.000
358.747; -204.375;-1187.000;-1058.000
358.880; -140.750; -810.000; -744.000
359.012;  -98.950; -376.000; -202.000
359.145; -101.675; -480.000; -511.000
359.277; -181.825; -962.000; -913.000
359.409;   10.700;  536.000;  231.000
359.542; -157.150; -738.000; -688.000
359.674;  -39.750;   46.000;   13.000
359.806; -118.675; -565.000; -438.000
359.939; -105.400; -617.000; -516.000
360.071; -122.500; -583.000; -579.000
360.203;  -85.925; -411.000; -364.000
360.335;  -34.000;  164.000;  -16.000
360.468;  -67.875; -249.000; -307.000
360.600; -125.225; -547.000; -454.000
360.732; -118.050; -546.000; -423.000
360.864; -199.575;-1216.000;-1044.000
360.996;  -98.725; -516.000; -554.000
361.129; -116.775; -389.000; -598.000
361.261;  -51.300;  110.000; -113.000
361.393;  -76.825; -252.000; -214.000
361.525;  -18.400;   94.000;  244.000
361.657; -163.500; -821.000; -703.000
361.789;  -53.275; -139.000; -155.000
361.921; -131.650; -642.000; -593.000
362.053;   37.050;  524.000;  541.000
362.185;  -37.075;  288.000;   72.000
362.318; -126.600; -709.000; -705.000
362.450;   16.825;  294.000;  444.000
362.582; -165.325; -913.000; -870.000
362.714;  -87.725; -353.000; -332.000
362.846; -123.950; -606.000; -490.000
362.978; -185.700; -941.000; -811.000
363.109;  -85.400; -161.000; -260.000
363.241; -162.500; -739.000; -749.000
363.373; -127.625; -649.000; -564.000
363.505;  -65.500; -186.000;  -91.000
363.637; -139.600; -787.000; -601.000
363.769; -210.850;-1067.000;-1080.000
363.901; -111.000; -596.000; -654.000
364.033; -199.375;-1103.000;-1062.000
364.165;  -71.825; -283.000; -283.000
364.296;  -86.200; -316.000; -177.000
364.428; -207.425;-1344.000;-1220.000
364.560; -143.950; -679.000; -661.000
364.692; -119.950; -738.000; -835.000
364.824; -108.650; -588.000; -456.000
364.955;  -89.550; -402.000; -564.000
365.087; -199.850;-1097.000; -852.000
365.219; -158.250; -686.000; -816.000
365.351; -123.575; -526.000; -572.000
365.482;  -20.600;  300.000;  240.000
365.614;  -84.825; -402.000; -314.000
365.746; -146.075; -729.000; -752.000
365.877; -147.075; -706.000; -672.000
366.009;  -45.825;  -35.000;  -62.000
366.141; -216.300;-1249.000;-1134.000
366.272; -152.025; -803.000; -719.000
366.404; -163.850;-1005.000; -874.000
366.535;  -48.750; -139.000;  -12.000
366.667; -147.025; -644.000; -649.000
366.799;    7.850;  353.000;  203.000
366.930; -174.575; -862.000; -996.000
367.062; -117.075; -639.000; -613.000
367.193; -175.550; -872.000; -842.000
367.325; -121.700; -580.000; -684.000
367.456;  -83.125; -246.000;   31.000
367.588;  -89.550; -371.000; -318.000
367.719;  -67.875;  -44.000;  -45.000
367.851;  -77.550; -222.000; -241.000
367.982; -167.850; -875.000; -732.000
368.113;  -97.550; -475.000; -358.000
368.245; -178.875; -960.000; -841.000
368.376;  -88.100; -254.000; -302.000
368.508;  -77.075; -188.000; -263.000
368.639; -196.400;-1166.000;-1034.000
368.770; -147.075; -670.000; -589.000
368.902; -171.750; -836.000; -926.000
369.033; -178.125; -906.000; -855.000
369.164; -127.300; -720.000; -653.000
369.296; -146.325; -452.000; -601.000
369.427;  -66.600; -209.000; -144.000
369.558; -115.900; -593.000; -377.000
369.689; -128.600; -721.000; -569.000
369.821; -181.975; -951.000; -845.000
369.952;  -45.200;   42.000; -108.000
370.083;  -72.800; -229.000; -108.000
370.214; -121.725; -735.000; -650.000
370.345;  -51.600;   65.000;   81.000
370.477; -171.750; -810.000; -790.000
370.608;  -89.675; -328.000; -264.000
370.739; -199.975;-1233.000;-1292.000
370.870; -175.000;-1102.000; -923.000
371.001; -107.025; -378.000; -467.000
371.132; -152.825; -754.000; -735.000
371.263;  -53.300;  -42.000; -148.000
371.394; -164.525; -841.000; -748.000
371.525;   -7.925;  345.000;  225.000
371.657; -153.475; -808.000; -670.000
371.788;  -25.775;  103.000;  199.000
371.919; -114.575; -384.000; -304.000
372.050;  -52.575;  -91.000; -156.000
372.181;  -54.275; -188.000; -294.000
372.311;  -50.925;   42.000; -127.000
372.442; -107.300; -457.000; -451.000
372.573;  -87.025; -444.000; -340.000
372.704; -200.325;-1008.000; -980.000
372.835;  -88.200; -228.000; -289.000
372.966; -133.200; -646.000; -554.000
373.097; -141.400; -575.000; -711.000
373.228; -126.300; -717.000; -542.000
373.359; -149.550; -824.000; -536.000
373.490; -164.200; -881.000; -727.000
373.620; -179.825;-1001.000; -803.000
373.751; -111.950; -332.000; -396.000
373.882; -124.050; -663.000; -733.000
374.013;  -90.550; -449.000; -262.000
374.143; -128.400; -581.000; -659.000
374.274; -190.050; -987.000; -908.000
374.405;  -87.850; -388.000; -276.000
374.536; -106.275; -526.000; -387.000
374.666; -143.800; -759.000; -807.000
374.797; -154.500; -817.000; -868.000
374.928; -128.350; -710.000; -560.000
375.058; -124.450; -535.000; -500.000
375.189;  -54.800;  -59.000;  -93.000
375.320; -187.725; -928.000;-1034.000
375.450; -119.150; -625.000; -616.000
375.581; -109.250; -526.000; -436.000
375.712;  -79.950; -574.000; -250.000
375.842; -131.475; -438.000; -415.000
375.973; -123.025; -554.000; -513.000
376.103; -142.450; -665.000; -648.000
376.234; -133.450; -531.000; -552.000
376.364; -177.350; -944.000; -867.000
376.495;   63.375;  925.000;  529.000
376.625; -130.250; -472.000; -485.000
376.756; -139.150; -709.000; -678.000
376.886; -213.725;-1178.000;-1026.000
377.017; -184.000;-1048.000;-1061.000
377.147; -169.850; -786.000; -782.000
377.278;  -24.050;  174.000;  228.000
377.408; -167.725; -801.000; -815.000
377.538; -147.450; -707.000; -693.000
377.669; -134.350; -537.000; -613.000
377.799; -144.075; -645.000; -635.000
377.929; -129.950; -610.000; -428.000
378.060; -170.600; -781.000; -847.000
378.190; -146.375; -726.000; -531.000
378.320; -101.250; -401.000; -406.000
378.451;  -52.150; -131.000;  -22.000
378.581;  -64.575;  -67.000; -110.000
378.711;   55.675; 1035.000;  866.000
378.841; -118.025; -533.000; -675.000
378.972; -171.250; -871.000; -751.000
379.102; -129.925; -652.000; -579.000
379.232;  -90.425; -126.000;  -73.000
379.362; -173.275;-1001.000; -885.000
379.492; -128.550; -373.000; -424.000
379.623;  -19.750;    0.000;  111.000
379.753; -184.050;-1107.000; -974.000
379.883;  -43.900;   59.000;  156.000
380.013; -206.550;-1081.000;-1017.000
380.143; -202.125;-1097.000;-1056.000
380.273; -186.575; -985.000; -861.000
380.403;  -92.250; -344.000; -257.000
380.533; -161.050; -651.000; -664.000
380.663;  -33.650;  173.000;  128.000
380.793; -194.350;-1027.000;-1074.000
380.923;  -72.000; -103.000;  -34.000
381.053; -149.950; -613.000; -623.000
381.183;  -70.350; -106.000; -248.000
381.313; -131.100; -656.000; -470.000
381.443; -111.200; -692.000; -473.000
381.573; -115.175; -402.000; -409.000
381.703; -218.925;-1249.000;-1095.000
381.833; -240.525;-1454.000;-1336.000
381.963;  -50.400; -134.000;  -87.000
382.093; -178.750; -925.000; -909.000
382.223; -134.375; -713.000; -602.000
382.353; -175.675; -801.000; -608.000
382.482; -174.375;-1091.000; -964.000
382.612; -141.725; -872.000; -644.000
382.742; -139.100; -695.000; -622.000
382.872; -129.000; -565.000; -551.000
383.002;  -21.875;  347.000; -132.000
383.131;  -89.075; -226.000; -160.000
383.261; -153.300; -706.000; -768.000
383.391; -123.025; -552.000; -377.000
383.521;    5.725;  451.000;  263.000
383.650; -184.650; -947.000; -904.000
383.780; -128.800; -783.000; -656.000
383.910;   59.150;  880.000;  802.000
384.039; -170.700; -794.000; -656.000
384.169; -216.500;-1205.000;-1017.000
384.299; -135.900; -650.000; -662.000
384.428; -147.275; -764.000; -680.000
384.558;  -97.775; -308.000; -275.000
384.687; -111.475; -414.000; -334.000
384.817;  -48.225;   75.000;   -2.000
384.947;  -84.525; -234.000; -141.000
385.076;   96.750;  982.000;  912.000
385.206;    7.025;  369.000;  480.000
385.335; -103.675; -549.000; -417.000
385.465; -142.200; -655.000; -663.000
385.594;  -41.275;  -53.000;  -44.000
385.724; -156.625; -868.000; -838.000
385.853; -100.700; -296.000; -270.000
385.982; -164.325; -743.000; -787.000
386.112; -174.950;-1052.000; -871.000
386.241; -105.450; -307.000; -312.000
386.371;  -87.200; -174.000;  -87.000
386.500; -177.400; -825.000; -789.000
386.629; -155.025; -874.000; -817.000
386.759;  -53.225;  -43.000;   68.000
386.888;  -62.400; -170.000; -250.000
387.017; -146.000; -648.000; -620.000
387.147; -165.450; -771.000; -798.000
387.276; -136.125; -410.000; -397.000
387.405;  -89.675; -398.000; -342.000
387.535; -122.175; -452.000; -361.000
387.664; -139.750; -692.000; -620.000
387.793;  -84.400; -198.000; -113.000
387.922;  -31.825;  255.000;  200.000
388.052; -111.900; -576.000; -423.000
388.181; -105.450; -342.000; -472.000
388.310; -162.300; -889.000; -710.000
388.439; -171.900; -749.000; -742.000
388.568;  -30.550;  365.000;  244.000
388.697; -133.950; -756.000; -653.000
388.826; -139.600; -768.000; -666.000
388.956;  -94.525; -285.000; -307.000
389.085; -111.950; -347.000; -287.000
389.214; -152.975; -842.000; -872.000
389.343; -137.050; -645.000; -413.000
389.472;  -12.675;  126.000;  149.000
389.601;  -47.475;   91.000;    0.000
389.730; -129.200; -568.000; -687.000
389.859;  -12.925;  226.000;   46.000
389.988; -101.825; -423.000; -408.000
390.117; -103.675; -168.000; -146.000
390.246;  -89.525; -331.000; -320.000
390.375; -157.525; -673.000; -626.000
390.504; -139.925; -703.000; -621.000
390.633; -168.275; -672.000; -726.000
390.761; -150.600; -732.000; -645.000
390.890;  -66.050;   -4.000; -130.000
391.019; -114.600; -421.000; -441.000
391.148; -167.725; -826.000; -855.000
391.277; -130.400; -576.000; -493.000
391.406; -163.600; -821.000; -805.000
391.534;  -28.050;  574.000; -301.000
391.663; -130.400; -583.000; -645.000
391.792; -152.225; -673.000; -701.000
391.921;  -48.900;   -3.000;   15.000
392.050;  -86.875; -287.000; -228.000
392.178; -213.775;-1206.000;-1061.000
392.307; -162.375; -758.000; -712.000
392.436; -144.950; -427.000; -641.000
392.564;  -40.950;  166.000;   -6.000
392.693; -176.700; -860.000; -682.000
392.822; -118.700; -529.000; -534.000
392.950; -177.825; -880.000; -714.000
393.079; -104.200; -188.000; -328.000
393.208; -124.200; -488.000; -511.000
393.336;  -64.800; -170.000; -145.000
393.465;  -87.550; -317.000; -199.000
393.593;  -34.625;   62.000;   79.000
393.722; -200.525;-1121.000; -916.000
393.850;  -78.225; -188.000;  -61.000
393.979; -192.325; -926.000; -805.000
394.107; -134.200; -517.000; -537.000
394.236; -129.500; -570.000; -507.000
394.364;    0.325;  383.000;  206.000
394.493; -169.450; -911.000; -767.000
394.621; -173.425; -955.000; -916.000
394.750; -186.550; -873.000; -923.000
394.878;  -86.575; -247.000; -149.000
395.007; -156.150; -721.000; -807.000
395.135; -143.625; -790.000; -721.000
395.263; -196.575;-1038.000;-1040.000
395.392;  -42.825;  -25.000; -107.000
395.520; -186.975; -818.000; -679.000
395.648; -177.600; -865.000; -915.000
395.777; -119.775; -366.000; -405.000
395.905; -126.800; -449.000; -564.000
396.033;  -39.550;  217.000;  172.000
396.162;  -94.025; -399.000; -453.000
396.290;  -68.400;  -17.000;   -2.000
396.418; -128.075; -555.000; -514.000
396.546; -158.275; -571.000; -466.000
396.674; -170.825; -850.000; -878.000
396.803;  -57.350;  -72.000;  -23.000
396.931;  -80.825; -179.000; -199.000
397.059; -199.475;-1026.000; -989.000
397.187; -174.150;-1026.000; -975.000
397.315; -176.800; -884.000; -649.000
397.443; -125.425; -592.000; -443.000
397.572; -134.275; -578.000; -424.000
397.700; -146.075; -607.000; -614.000
397.828;  -84.675;  120.000;  -90.000
397.956; -102.725; -508.000; -478.000
398.084; -156.250; -767.000; -626.000
398.212;  -38.625;  137.000;  124.000
398.340;  -57.450;  -56.000;  159.000
398.468;  -93.725; -390.000; -169.000
398.596; -187.900; -993.000; -953.000
398.724; -160.275; -762.000; -767.000
398.852; -191.100;-1024.000; -976.000
398.980; -125.050; -560.000; -560.000
399.108; -149.550; -982.000; -735.000
399.236;  -48.725;   13.000;    8.000
399.363;  -27.750;  222.000;  196.000
399.491; -117.975; -404.000; -398.000
399.619; -168.325; -829.000; -800.000
399.747; -169.100; -859.000; -771.000
399.875;  -23.850;  220.000;  234.000
400.003;  -96.000; -359.000; -284.000
400.130; -117.825; -421.000; -341.000
400.258;  -51.050;  -83.000;   38.000
400.386;  -89.725; -352.000; -168.000
400.514; -121.925; -526.000; -587.000
400.641; -185.300; -928.000; -802.000
400.769; -176.250; -979.000; -888.000
400.897; -167.025; -838.000; -793.000
401.025;  -77.100; -166.000; -152.000
401.152;  -39.675;  220.000;   38.000
401.280; -116.825; -430.000; -429.000
401.408; -146.975; -712.000; -576.000
401.535; -147.725; -735.000; -758.000
401.663; -229.975;-1134.000;-1054.000
401.790; -125.850; -514.000; -525.000
401.918;    5.525;  436.000;  405.000
402.046;  -59.975;  134.000;  122.000
402.173;  -59.550;  -18.000;    7.000
402.301; -110.025; -519.000; -397.000
402.428;    1.750;  528.000;  383.000
402.556; -211.350;-1188.000; -913.000
402.683;  -71.875;  -20.000;   -1.000
402.811;  -52.675;  -37.000; -206.000
402.938;  -52.425;   20.000;   27.000
403.066; -138.200; -574.000; -558.000
403.193;  -39.025;  299.000;  239.000
403.321; -101.850; -396.000; -574.000
403.448;  -41.550;   83.000;   27.000
403.575;  -53.975;  -90.000;  -46.000
403.703; -170.300; -732.000; -557.000
403.830; -122.350; -531.000; -496.000
403.957; -211.925;-1117.000;-1023.000
404.085;  -86.050;  -61.000; -172.000
404.212;  -55.875;  -50.000;   63.000
404.339; -109.200; -566.000; -306.000
404.467; -125.100; -612.000; -524.000
404.594;  -91.475; -287.000; -227.000
404.721; -168.200; -869.000; -764.000
404.848;  -83.450; -113.000; -202.000
404.976; -180.100; -856.000; -783.000
405.103;  -52.850;  -14.000;  -82.000
405.230;  -49.575;  190.000;  226.000
405.357;  -40.750;  117.000;   44.000
405.484;  -68.750;  -49.000;    5.000
405.612; -126.525; -548.000; -563.000
405.739; -118.725; -488.000; -243.000
405.866;   32.875;  669.000;  385.000
405.993; -111.450; -398.000; -102.000
406.120; -183.275; -801.000; -887.000
406.247;  -97.900; -323.000; -342.000
406.374;   33.200;  540.000;  629.000
406.501; -151.600; -632.000; -702.000
406.628; -132.600; -621.000; -589.000
406.755; -153.000; -803.000; -620.000
406.882;  -90.850; -228.000; -277.000
407.009; -139.925; -719.000; -628.000
407.136; -109.375; -480.000; -401.000
407.263; -190.300; -939.000; -829.000
407.390; -148.500; -692.000; -614.000
407.517; -221.100;-1139.000;-1187.000
407.644; -107.700; -332.000; -256.000
407.771; -125.425; -249.000; -287.000
407.898;  -33.550;  168.000;  328.000
408.025; -108.275; -421.000; -313.000
408.151;  -39.550;   82.000;  153.000
408.278; -119.350; -267.000; -216.000
408.405; -168.100; -931.000; -899.000
408.532; -145.925; -549.000; -542.000
408.659; -156.425; -677.000; -648.000
408.785; -232.925;-1298.000;-1170.000
408.912;  -90.300; -412.000; -296.000
409.039; -143.625; -610.000; -686.000
409.166; -140.200; -591.000; -555.000
409.292; -143.575; -571.000; -534.000
409.419; -138.300; -665.000; -649.000
409.546; -101.750; -431.000; -192.000
409.672; -144.700; -713.000; -545.000
409.799;  -76.375;  -36.000;   34.000
409.926;  -84.975; -180.000; -179.000
410.052; -231.150;-1127.000;-1091.000
410.179; -117.225; -368.000; -392.000
410.305; -107.575; -375.000; -493.000
410.432;  -85.500; -220.000; -333.000
410.558; -130.225; -305.000; -380.000
410.685; -132.700; -688.000; -431.000
410.812; -138.025; -409.000; -588.000
410.938; -173.175; -964.000; -808.000
411.065; -154.700; -671.000; -645.000
411.191;  -83.025; -189.000; -174.000
411.317; -176.075; -823.000; -742.000
411.444;  -89.475; -317.000; -246.000
411.570; -102.775; -339.000; -294.000
411.697; -147.075; -758.000; -752.000
411.823; -207.700; -989.000; -999.000
411.949;  -72.675;  -56.000;   17.000
412.076; -134.425; -539.000; -519.000
412.202; -158.975; -758.000; -757.000
412.329; -167.800; -798.000; -752.000
412.455; -148.375; -821.000; -657.000
412.581;  -56.875;  -15.000;  172.000
412.707; -128.425; -540.000; -457.000
412.834;  -38.850;  156.000;  219.000
412.960; -163.950; -785.000; -784.000
413.086; -162.650; -743.000; -701.000
413.212;   32.000;  604.000;  578.000
413.339; -163.550; -685.000; -701.000
413.465; -110.975; -364.000; -310.000
413.591; -171.275; -757.000; -474.000
413.717; -103.900; -358.000; -366.000
413.843; -183.000; -839.000; -861.000
413.969;  -85.250;  -47.000; -292.000
414.096; -157.550; -679.000; -679.000
414.222;  -48.475;  -33.000;   85.000
414.348; -142.900; -652.000; -385.000
414.474;  -59.200;   38.000;  -52.000
414.600;  -82.675; -126.000; -144.000
414.726;  -65.600;  -96.000;  -55.000
414.852; -125.900; -365.000; -342.000
414.978;  -48.225;  104.000;  -18.000
415.104;  -50.975;   38.000;   80.000
415.230; -107.250; -329.000; -330.000
415.356; -135.000; -409.000; -514.000
415.482;  -74.275;   13.000;  -35.000
415.608;  -99.025; -247.000; -323.000
415.734;  -54.475;   67.000;   38.000
415.860; -180.275; -875.000; -767.000
415.986; -148.800; -685.000; -607.000
416.111; -171.800; -798.000; -652.000
416.237; -116.925; -424.000; -571.000
416.363; -169.575; -765.000; -733.000
416.489; -101.000; -324.000; -251.000
416.615; -177.875; -707.000; -742.000
416.741; -156.325; -677.000; -784.000
416.866; -153.650; -673.000; -736.000
416.992; -168.175; -801.000; -818.000
417.118;  -95.950;  -41.000;  -80.000
417.244; -149.800; -798.000; -531.000
417.369; -153.950; -801.000; -612.000
417.495; -114.200; -325.000; -254.000
417.621; -211.850;-1015.000; -803.000
417.746; -127.000; -579.000; -572.000
417.872;  -85.925; -254.000; -144.000
417.998; -120.900; -515.000; -530.000
418.123; -194.275;-1073.000; -845.000
418.249; -134.400; -512.000; -601.000
418.374; -192.275; -916.000; -824.000
418.500; -111.075; -383.000; -482.000
418.626;  -70.900;   70.000;  -59.000
418.751; -133.625; -549.000; -448.000
418.877; -164.875; -637.000; -643.000
419.002; -137.200; -688.000; -560.000
419.128; -188.475; -930.000; -721.000
419.253; -179.000; -967.000; -837.000
419.379; -145.750; -391.000; -338.000
419.504;  -17.300;  325.000;  415.000
419.629;  -89.250; -393.000; -212.000
419.755;  -90.950; -317.000; -254.000
419.880;  -97.475;  -98.000;   67.000
420.006;  -96.000; -280.000; -221.000
420.131; -163.675; -662.000; -775.000
420.256; -100.250; -315.000; -316.000
420.382; -140.400; -665.000; -687.000
420.507; -159.050; -649.000; -778.000
420.632; -108.325; -337.000; -339.000
420.758;  -88.750; -251.000; -425.000
420.883; -159.025; -876.000; -672.000
421.008; -158.375; -775.000; -619.000
421.133; -140.175; -509.000; -467.000
421.259;  -87.400; -325.000; -259.000
421.384; -182.300; -834.000; -693.000
421.509; -178.050;-1052.000; -862.000
421.634; -204.350; -936.000; -820.000
421.759; -123.500; -359.000; -327.000
421.885; -159.800; -717.000; -656.000
422.010; -131.775; -673.000; -542.000
422.135; -187.850; -695.000; -727.000
422.260;  -16.675;  340.000;  280.000
422.385;  -73.500;   12.000;  -98.000
422.510;  -48.200;  151.000;  -26.000
422.635;  -68.925;  -87.000;  -43.000
422.760; -157.050; -766.000; -791.000
422.885;  -62.275;  -57.000;  -80.000
423.010;  -78.375; -112.000; -169.000
423.135; -131.650; -481.000; -561.000
423.260;  -77.125; -150.000; -245.000
423.385;  -27.075;  476.000;  222.000
423.510;  -52.950;   71.000;  -22.000
423.635;  -66.725;  133.000;   45.000
423.760;   -7.000;  383.000;  328.000
423.885;  -35.525;  336.000;  391.000
424.010;  -62.025;  -68.000;  -13.000
424.135;  -69.675;    5.000;  -33.000
424.259; -136.025; -654.000; -457.000
424.384; -131.100; -279.000; -272.000
424.509;  -85.100; -260.000; -186.000
424.634; -169.150; -761.000; -623.000
424.759; -154.375; -688.000; -544.000
424.883; -140.100; -506.000; -527.000
425.008; -133.725; -502.000; -410.000
425.133; -153.675; -679.000; -653.000
425.258; -134.850; -517.000; -381.000
425.382; -159.400; -867.000; -774.000
425.507; -135.550; -487.000; -543.000
425.632; -184.575; -802.000; -663.000
425.756;  -98.250; -256.000; -146.000
425.881; -179.650; -831.000; -857.000
426.006; -122.850; -604.000; -355.000
426.130; -156.200; -696.000; -508.000
426.255; -136.750; -611.000; -491.000
426.379;  -83.700; -189.000; -577.000
426.504;   20.975;  660.000;  544.000
426.629; -151.675; -519.000; -466.000
426.753;  -64.800;   64.000;  -46.000
426.878;  -96.125; -252.000; -288.000
427.002; -179.200; -651.000; -668.000
427.127;  -93.025;  -35.000; -158.000
427.251;   -6.125;  372.000;  401.000
427.375; -111.525; -191.000; -173.000
427.500; -148.175; -616.000; -610.000
427.624; -119.150; -234.000; -400.000
427.749;  -93.725; -216.000; -225.000
427.873; -142.400; -499.000; -412.000
427.997;  -98.000; -222.000; -230.000
428.122;   19.775;  795.000;  703.000
428.246;    1.575;  433.000;  434.000
428.371; -191.525; -869.000; -773.000
428.495; -154.100; -624.000; -646.000
428.619;  -97.300; -186.000; -117.000
428.743;  -38.325;   65.000;  132.000
428.868; -172.000; -732.000; -643.000
428.992; -108.250; -219.000; -326.000
429.116; -122.000; -329.000; -357.000
429.240;   -5.525;  419.000;  426.000
429.365; -118.275; -454.000; -574.000
429.489; -151.750; -638.000; -647.000
429.613;  -99.350; -236.000; -177.000
429.737; -131.725; -563.000; -432.000
429.861; -117.525; -247.000; -133.000
429.985; -126.400; -425.000; -305.000
430.109; -182.775; -770.000; -908.000
430.234;  -39.050;   76.000;  -50.000
430.358; -108.725; -250.000; -160.000
430.482; -162.950; -672.000; -564.000
430.606; -142.075; -655.000; -375.000
430.730; -132.750; -437.000; -388.000
430.854; -194.850; -909.000; -835.000
430.978; -191.725; -795.000; -764.000
431.102; -150.975; -499.000; -422.000
431.226; -184.225; -874.000; -815.000
431.350;  -31.475;  345.000;  422.000
431.474; -136.850; -661.000; -373.000
431.597; -217.450;-1060.000; -848.000
431.721; -112.250; -276.000; -267.000
431.845; -167.425; -704.000; -472.000
431.969; -104.625; -304.000; -349.000
432.093; -134.525; -395.000; -317.000
432.217;  -50.200;   32.000;   82.000
432.341; -142.875; -523.000; -518.000
432.464;  -61.900;   96.000;   40.000
432.588; -133.175; -401.000; -329.000
432.712;  -77.100;  -52.000;  -52.000
432.836;  -50.900;  213.000;  263.000
432.959; -115.525; -372.000; -311.000
433.083;  -70.725;   11.000;    2.000
433.207;   -5.425;  285.000;  930.000
433.330; -104.075; -391.000; -200.000
433.454; -135.925; -654.000; -638.000
433.578;    0.850;  583.000;  278.000
433.701; -157.700; -623.000; -675.000
433.825; -120.025; -292.000; -299.000
433.949;  -80.975;   28.000;  -72.000
434.072; -130.650; -410.000; -323.000
434.196;  -88.375; -309.000; -117.000
434.319; 3688.475;25482.000;25124.000
434.443; -160.675; -656.000; -603.000
434.566;  -33.725;  281.000;   62.000
434.690; -126.775; -637.000; -383.000
434.813; -111.975; -251.000; -173.000
434.937; -140.025; -569.000; -696.000
435.060; -114.350; -423.000; -332.000
435.184; -125.475; -492.000; -217.000
435.307;  -70.875;  159.000;  102.000
435.431;  -61.075;  -40.000;   24.000
435.554; -118.150; -399.000; -240.000
435.677; -122.050; -350.000; -258.000
435.801;  -61.875;  -25.000;   49.000
435.924;  -66.275;    1.000;  -67.000
436.048; -195.900;-1019.000; -732.000
436.171; -103.900; -240.000;  -66.000
436.294; -108.675; -248.000; -229.000
436.417; -198.575; -963.000; -849.000
436.541; -188.300; -814.000; -840.000
436.664;  -85.925; -242.000; -316.000
436.787;  -59.650;   13.000;  113.000
436.910; -153.350; -792.000; -422.000
437.034;  -51.150;  142.000;  143.000
437.157;  -66.675;  -11.000;    0.000
437.280; -128.900; -392.000; -292.000
437.403; -193.500; -982.000; -869.000
437.526; -200.450; -903.000; -865.000
437.649; -131.350; -505.000; -332.000
437.772; -171.475; -692.000; -540.000
437.896;   28.050;  700.000;  544.000
438.019; -146.900; -758.000; -503.000
438.142; -137.575; -596.000; -506.000
438.265; -172.675; -639.000; -670.000
438.388; -124.425; -520.000; -410.000
438.511; -149.700; -597.000; -394.000
438.634; -104.325; -247.000; -125.000
438.757; -170.350; -693.000; -619.000
438.880;  -91.875;  -34.000;  -57.000
439.003; -129.900; -417.000; -437.000
439.126;  -97.125; -287.000; -167.000
439.248;  -95.300;  -98.000; -139.000
439.371;  -64.750;    9.000;  -53.000
439.494;    3.075;  510.000;  439.000
439.617;  -79.450;   65.000;  -88.000
439.740; -195.825; -968.000; -816.000
439.863; -168.275; -755.000; -595.000
439.986; -140.950; -476.000; -431.000
440.108;  -85.800; -161.000; -112.000
440.231; -212.475; -950.000; -836.000
440.354;  -92.250;  -64.000; -150.000
440.477; -167.475; -566.000; -542.000
440.599; -134.850; -200.000; -225.000
440.722; -166.300; -709.000; -586.000
440.845;   42.050;  751.000;  928.000
440.968; -129.025; -415.000; -311.000
441.090;  -90.475; -199.000;  -33.000
441.213; -203.875;-1021.000; -825.000
441.336;  -85.650; -159.000;   -5.000
441.458; -127.125; -549.000; -396.000
441.581; -152.725; -628.000; -629.000
441.703;  -89.475; -152.000;   13.000
441.826; -133.625; -557.000; -400.000
441.948;  -68.475;   56.000;   51.000
442.071;   18.700;  555.000;  424.000
442.193; -146.350; -531.000; -485.000
442.316;  -57.600;  152.000;   97.000
442.438; -119.175; -233.000;  -10.000
442.561;  -42.250;  272.000;  262.000
442.683; -174.700; -809.000; -522.000
442.806;  -63.375;   -8.000;   74.000
442.928; -180.600; -859.000; -604.000
443.051; -134.900; -577.000; -373.000
443.173; -137.725; -341.000; -339.000
443.295; -117.875; -263.000; -371.000
443.418; -103.450; -321.000;  -29.000
443.540;  -69.125; -106.000;   -4.000
443.662; -171.775; -563.000; -465.000
443.785;  -35.025;  335.000;  199.000
443.907; -139.125; -362.000; -208.000
444.029; -150.975; -767.000; -494.000
444.152; -182.000; -644.000; -554.000
444.274;  -62.400;  -18.000;  -24.000
444.396; -142.525; -461.000; -221.000
444.518; -170.100; -691.000; -454.000
444.640; -123.300; -268.000; -111.000
444.763;  -39.475;  388.000;  249.000
444.885; -155.125; -432.000; -392.000
445.007;  -56.075;   35.000;   86.000
445.129; -138.575; -610.000; -515.000
445.251; -140.900; -372.000; -439.000
445.373; -172.750; -537.000; -386.000
445.495;  -34.000;  242.000;  350.000
445.617;   19.850;  853.000;  753.000
445.739; -108.750; -215.000;  -97.000
445.861;  -98.050; -245.000; -112.000
445.984; -100.625; -267.000; -101.000
446.105; -131.900; -418.000; -251.000
446.227;  -93.250; -176.000;  -19.000
446.349; -141.350; -358.000; -249.000
446.471; -148.025; -615.000; -448.000
446.593; -126.700; -316.000;   19.000
446.715;  -84.800;  -67.000;   41.000
446.837;   33.825;  697.000;  832.000
446.959; -136.625; -457.000; -478.000
447.081; -162.300; -628.000; -518.000
447.203;   44.350;  862.000;  834.000
447.325; -114.200; -270.000;   42.000
447.446;  -41.050;  286.000;  530.000
447.568; -202.675; -921.000; -803.000
447.690; -122.875; -236.000; -245.000
447.812; -182.200; -798.000; -519.000
447.933;  -63.175;  155.000;  127.000
448.055; -113.975; -306.000; -261.000
448.177;  -54.375;   31.000;   79.000
448.299; -223.950; -935.000; -727.000
448.420;  -64.850;  -25.000;  159.000
448.542;  -85.800;   -3.000;   33.000
448.664;  -47.475;  109.000;  322.000
448.785;  -55.150;  265.000;   83.000
448.907; -140.350; -614.000; -353.000
449.028; -169.275; -771.000; -471.000
449.150;   14.425;  492.000;  589.000
449.272; -222.550;-1044.000; -913.000
449.393;   -7.700;  612.000;  694.000
449.515; -183.350; -634.000; -581.000
449.636; -111.675; -264.000; -155.000
449.758;    3.150;  763.000;  622.000
449.879; -136.275; -498.000; -396.000
450.001; -127.275; -149.000;  -49.000
450.122;  -64.900;  -95.000;  162.000
450.244;  -74.375;   37.000;  364.000
450.365; -152.625; -495.000; -301.000
450.486;  -96.550;   80.000;  268.000
450.608;  -50.350;  393.000;  326.000
450.729;  -14.750;  578.000;  645.000
450.850; -150.325; -574.000; -466.000
450.972; -175.425; -552.000; -389.000
451.093;  -20.775;  190.000;  588.000
451.214; -160.975; -516.000; -337.000
451.336;   42.875;  773.000;  579.000
451.457;  -51.650;  264.000;  393.000
451.578;  -95.500; -118.000;  -74.000
451.699; -159.950; -546.000; -540.000
451.821;  -83.625; -284.000;  -50.000
451.942;  -43.150;  278.000;  285.000
452.063;  -37.425;  228.000;  419.000
452.184; -112.825;  -54.000;  -49.000
452.305;  -33.525;  103.000;  170.000
452.427; -142.950; -549.000; -301.000
452.548;  -88.875;   23.000;   79.000
452.669; -102.150; -257.000;  -89.000
452.790;  -93.250;    3.000;  -18.000
452.911;  -59.700;  195.000;  259.000
453.032; -103.750; -289.000;  -60.000
453.153;  -93.650;  -29.000;   81.000
453.274;   30.625;  737.000;  868.000
453.395;  -87.875;  -51.000;  175.000
453.516;   80.175; 1317.000; 1388.000
453.637; -127.025; -205.000; -150.000
453.758;  -79.425;   15.000;   69.000
453.879; -129.850; -462.000; -250.000
454.000;   46.650; 1086.000;  948.000
454.121; -160.575; -554.000; -326.000
454.242; -151.125; -599.000; -383.000
454.362;  -84.575;  -99.000;  114.000
454.483; -120.825; -309.000; -229.000
454.604;  -28.000;  512.000;  580.000
454.725; -164.675; -627.000; -555.000
454.846; -143.250; -474.000; -406.000
454.967;  -34.475;  230.000;  539.000
455.087;  -75.425;  179.000;  153.000
455.208;   -0.750;  554.000;  856.000
455.329;  -84.725;  -22.000;   82.000
455.450;  -19.000;  473.000;  633.000
455.570; -115.375; -234.000; -211.000
455.691;  -63.050;  201.000;  407.000
455.812; -133.450; -270.000;  -92.000
455.932;  -75.225;  107.000;  -97.000
456.053;  -98.475;   36.000;   24.000
456.173; -150.225; -433.000; -355.000
456.294; -166.450; -476.000; -303.000
456.415;  -87.950;  -73.000;   70.000
456.535;  -57.075;  297.000;  273.000
456.656;  -73.275;  132.000;  240.000
456.776;  -94.950;    3.000;  298.000
456.897;  -29.025;  308.000;  513.000
457.017; -101.575; -153.000;   -3.000
457.138; -138.000; -402.000; -249.000
457.258;  -59.075;  263.000;  224.000
457.379;  -23.800;  509.000;  521.000
457.499;  -43.725;  443.000;  432.000
457.620; -143.625; -407.000; -231.000
457.740; -121.300; -132.000;  -11.000
457.860;  -77.300;   87.000;   44.000
457.981;  -75.050;  132.000;  124.000
458.101;  -98.625;  -89.000;   40.000
458.221;  -31.925;  336.000;  402.000
458.342;  -90.925;   -4.000;  -37.000
458.462;  -39.400;  617.000;  352.000
458.582; -107.900; -302.000; -294.000
458.703;  -84.525;  303.000;  154.000
458.823;  -79.125;   22.000;  163.000
458.943;  -60.875;  341.000;  467.000
459.063;  -87.375; 1124.000;  192.000
459.183;  -65.500;  328.000;  313.000
459.304;  -29.525;  315.000;  517.000
459.424; -124.450; -246.000;  -89.000
459.544;  -21.100;  388.000;  764.000
459.664;  -32.600;  499.000;  506.000
459.784;   49.800; 1004.000; 1175.000
459.904;   -9.050;  867.000;  744.000
460.024;   19.675;  867.000;  684.000
460.144;  -43.425;  449.000;  554.000
460.264;  -39.000;  515.000;  327.000
460.385; -122.550; -145.000; -119.000
460.505;    9.175;  905.000;  858.000
460.625; -116.675;  -17.000;  -68.000
460.745;  -38.475;  396.000;  541.000
460.864;  -74.825;  153.000;  469.000
460.984;  -50.125;  499.000;  573.000
461.104;  105.125; 1656.000; 1775.000
461.224;   -5.525;  657.000;  650.000
461.344;  -59.900;  431.000;  360.000
461.464;  -61.425;  258.000;  513.000
461.584;  -57.575;  283.000;  466.000
461.704;  -98.900;   58.000;  108.000
461.824;  -80.225;  238.000;  259.000
461.943;  -63.050;  191.000;  130.000
462.063; -105.925;    2.000;  324.000
462.183;   -1.050;  639.000;  717.000
462.303;   73.025; 1678.000; 1230.000
462.422;   10.350;  781.000;  840.000
462.542;  -70.350;  271.000;  391.000
462.662;  -35.125;  353.000;  380.000
462.782;  -23.175;  833.000;  572.000
462.901;  -27.100;  545.000;  717.000
463.021;  109.975; 1702.000; 1638.000
463.141;  -46.500;  337.000;  770.000
463.260;  -47.875;  614.000;  474.000
463.380;   -2.875;  902.000;  884.000
463.499;  -57.900;  342.000;  332.000
463.619;  -59.850;  581.000;  559.000
463.738;  101.350; 1644.000;  903.000
463.858;   -2.900;  657.000;  811.000
463.978;  -51.475;  542.000;  396.000
464.097;   10.500;  921.000; 1114.000
464.217;   39.800; 1196.000; 1143.000
464.336;   39.150; 1068.000; 1130.000
464.455;  -73.200;  328.000;  659.000
464.575;  -27.875;  597.000;  602.000
464.694;   43.525; 1204.000; 1179.000
464.814;   15.525; 1190.000; 1138.000
464.933;   29.425; 1095.000; 1027.000
465.052;   63.675; 1412.000; 1054.000
465.172;   -3.400;  922.000;  799.000
465.291;   83.950; 1376.000; 1320.000
465.410;  -21.925;  462.000;  735.000
465.530;   56.150; 1355.000; 1310.000
465.649;   23.600; 1209.000; 1273.000
465.768;  106.075; 1673.000; 1508.000
465.888;   24.925;  941.000; 1174.000
466.007;   87.050; 1335.000; 1440.000
466.126;  -20.500;  721.000;  641.000
466.245;   11.825; 1176.000; 1187.000
466.364;  -16.125;  950.000; 1060.000
466.484;   26.550; 1024.000; 1213.000
466.603;    8.125; 1101.000; 1222.000
466.722;   70.800; 1490.000; 1769.000
466.841;   32.750; 1151.000; 1401.000
466.960;   19.125; 1069.000;  972.000
467.079;  114.200; 1971.000; 1786.000
467.198;   39.325; 1238.000; 1181.000
467.317;   69.275; 1768.000; 1162.000
467.436;   52.675; 1709.000; 1261.000
467.555;  101.000; 1796.000; 1746.000
467.674;   50.950; 1227.000; 1329.000
467.793;   28.525; 1376.000; 1374.000
467.912;   54.825; 1658.000; 1539.000
468.031;  102.350; 2038.000; 1930.000
468.150;  115.200; 1842.000; 1837.000
468.269;  163.100; 2313.000; 2090.000
468.388;  175.950; 2168.000; 2339.000
468.507;  243.375; 2884.000; 2903.000
468.626;  213.550; 2555.000; 2541.000
468.744;  111.575; 2018.000; 2174.000
468.863;  183.550; 2312.000; 2523.000
468.982;   86.325; 1503.000; 1555.000
469.101;  204.950; 2788.000; 2692.000
469.220;  122.400; 2333.000; 2176.000
469.338;  227.875; 2935.000; 3051.000
469.457;  171.700; 2719.000; 2545.000
469.576;  341.600; 3953.000; 3784.000
469.695;  214.050; 2877.000; 3066.000
469.813;  386.175; 4148.000; 4192.000
469.932;  364.000; 4255.000; 4485.000
470.051;  341.425; 4075.000; 4161.000
470.169;  393.875; 4470.000; 4338.000
470.288;  426.175; 4700.000; 4809.000
470.406;  452.650; 5059.000; 5194.000
470.525;  572.925; 6101.000; 5787.000
470.644;  624.050; 6847.000; 6794.000
470.762;  778.025; 8397.000; 7873.000
470.881;  832.025; 8651.000; 8464.000
470.999;  956.750; 9685.000; 9151.000
471.118; 1072.075;11174.000;10711.000

