
Integration time [ms]: 100.000
Averaging Nr. [scans]: 40
Smoothing Nr. [pixels]: 0
Data measured with spectrometer [name]: 2101012U2
Wave   ;Sample   ;Dark     ;Reference
[nm]   ;[counts] ;[counts] ;[counts] 

197.733;   64.750;  516.000;  404.000
197.879;  -80.175; -610.000; -634.000
198.025;  -48.275; -475.000; -420.000
198.171;  -69.675; -602.000; -612.000
198.317;  -38.125; -401.000; -316.000
198.463;  -58.425; -655.000; -404.000
198.609;   31.675;  181.000; -137.000
198.755;  -79.700; -644.000; -410.000
198.901;  -49.350; -505.000; -424.000
199.047;  -73.650; -615.000; -488.000
199.193;  -34.950; -230.000; -468.000
199.339;  -47.975; -222.000; -369.000
199.485;   54.825;  330.000;  271.000
199.631;   20.075;  227.000;  310.000
199.777;  -46.750; -466.000; -398.000
199.923;  -62.675; -610.000; -424.000
200.069;    2.450; -141.000;  -58.000
200.215;   53.150;  128.000;  453.000
200.361;   48.825;  243.000;  477.000
200.507;  -50.925; -600.000; -373.000
200.653;  -25.775; -371.000; -194.000
200.798;  -39.450; -215.000; -125.000
200.944;   -5.450; -146.000;  -41.000
201.090;   36.800;   61.000;  222.000
201.236;    3.875; -116.000; -158.000
201.382;  132.775;  874.000;  903.000
201.528;   -5.575;  -58.000;  -48.000
201.674;  -53.300; -386.000; -293.000
201.819;  -69.325; -540.000; -439.000
201.965;  -69.525; -699.000; -447.000
202.111;  -21.100; -273.000; -226.000
202.257;  -28.025; -250.000; -238.000
202.402;   18.725;   13.000;  -36.000
202.548;  -21.275; -169.000; -116.000
202.694;   90.600;  410.000; -183.000
202.840;  -62.825; -603.000; -531.000
202.985;  -71.350; -681.000; -639.000
203.131; -101.450; -832.000; -666.000
203.277;  -22.050; -199.000; -262.000
203.423;  -34.550; -434.000; -520.000
203.568;  -37.125; -462.000; -237.000
203.714;  -59.825; -535.000; -542.000
203.860;  -76.700; -682.000; -641.000
204.005;   30.025;  112.000;  167.000
204.151;   84.350;  561.000;  556.000
204.296;  -28.575; -354.000; -221.000
204.442;  -67.500; -600.000; -547.000
204.588;  -79.425; -592.000; -579.000
204.733;   16.500;  178.000;  168.000
204.879; -123.475;-1018.000; -822.000
205.025;    5.575;  -99.000;  126.000
205.170;    1.100;  -17.000;   94.000
205.316;   90.125;  438.000;  661.000
205.461;  -85.850; -698.000; -554.000
205.607;   87.475;  609.000;  665.000
205.752;  -77.275; -626.000; -551.000
205.898;  -59.300; -501.000; -391.000
206.043;  -53.300; -578.000; -506.000
206.189;  -39.600; -243.000; -285.000
206.334;   80.050;  554.000;  606.000
206.480;   87.400;  409.000;  239.000
206.625;  -83.450; -529.000; -552.000
206.771;  -44.900; -451.000; -373.000
206.916;  -21.225; -210.000; -537.000
207.062;  -70.375; -545.000; -591.000
207.207;  -56.200; -546.000; -443.000
207.353;   62.250;  185.000;  460.000
207.498;   20.175;  196.000;   85.000
207.643;  -43.400; -501.000; -370.000
207.789; -130.625;-1069.000; -910.000
207.934;  -84.600; -665.000; -713.000
208.080;  -22.775; -154.000;   66.000
208.225;   -9.975;  -22.000;  -57.000
208.370;  -79.300; -727.000; -619.000
208.516;  -76.075; -741.000; -487.000
208.661;  -10.925; -127.000;  -69.000
208.806;   -7.500; -165.000; -171.000
208.952; -120.400;-1044.000; -731.000
209.097;   75.525;  378.000;  349.000
209.242;  -42.475; -307.000; -382.000
209.387;   75.150;  392.000;  350.000
209.533;  -42.450; -321.000; -350.000
209.678;  101.825;  472.000;  543.000
209.823;  -45.700; -408.000; -310.000
209.969; -105.475; -860.000; -757.000
210.114;  -99.025; -907.000; -719.000
210.259; -113.300; -939.000; -889.000
210.404;    0.300; -171.000;  103.000
210.549;   19.450;  108.000;    3.000
210.695;   -8.050;   -3.000;  -95.000
210.840;   44.825;   94.000;   67.000
210.985;  -74.925; -484.000; -303.000
211.130;   75.750;  268.000;  406.000
211.275;   21.825;  207.000;  199.000
211.420;  -41.725; -300.000; -289.000
211.566;  -66.150; -536.000; -489.000
211.711;   22.625;  218.000;  157.000
211.856;  -59.400; -545.000; -519.000
212.001;   27.875;  151.000;   44.000
212.146;   30.025;  153.000;   49.000
212.291;  -12.775; -210.000; -186.000
212.436;  -12.925; -280.000;   -6.000
212.581;  -88.625; -685.000; -653.000
212.726;  -67.175; -487.000; -538.000
212.871;  -51.175; -552.000; -217.000
213.016; -151.400;-1172.000;-1029.000
213.161;   72.950;  406.000;  291.000
213.306;  -58.350; -435.000; -577.000
213.451;  -91.075; -778.000; -689.000
213.596;  -28.425; -455.000; -347.000
213.741;  -53.900; -448.000; -538.000
213.886;  -78.350; -498.000; -517.000
214.031;  -15.650; -294.000; -124.000
214.176;  -49.725; -408.000; -341.000
214.321;  -20.575; -296.000; -157.000
214.466;  -14.650; -163.000;  -43.000
214.611;    1.675;  -61.000;  -10.000
214.756; -124.600; -948.000; -858.000
214.901;  -15.675; -388.000; -226.000
215.046; -125.175; -797.000; -825.000
215.191;   16.900;  128.000;   35.000
215.336;   -7.900; -157.000;  -19.000
215.480;  -66.150; -684.000; -505.000
215.625;   -2.700; -175.000;  -19.000
215.770;  -85.575; -757.000; -662.000
215.915;  -15.250;   -5.000;  -97.000
216.060;   -3.875; -113.000;  -21.000
216.205; -108.625; -731.000; -779.000
216.349;  -68.000; -470.000; -533.000
216.494; -120.625; -939.000; -867.000
216.639; -111.800; -823.000; -888.000
216.784;  -75.225; -577.000; -525.000
216.929;   51.125;  392.000;  281.000
217.073;  -10.675; -244.000;  -31.000
217.218;   15.850;   78.000;  -47.000
217.363;  -86.225; -656.000; -618.000
217.507;  -83.650; -623.000; -588.000
217.652; -123.250; -845.000; -874.000
217.797;  -88.775; -708.000; -659.000
217.942; -102.725; -856.000; -720.000
218.086;   62.050;  608.000;  539.000
218.231;  -11.400; -174.000;  -26.000
218.376;  -29.925; -337.000; -229.000
218.520;   24.075;  -41.000;   96.000
218.665;  -22.400; -338.000; -204.000
218.810;  -42.800; -275.000; -233.000
218.954;   21.050;  201.000;   35.000
219.099; -120.900; -713.000; -963.000
219.243;  -72.300; -589.000; -554.000
219.388;  -38.600; -264.000; -136.000
219.532;  -11.325; -116.000; -116.000
219.677;  -73.850; -564.000; -521.000
219.822;    3.650;   33.000;   89.000
219.966;    7.225;   17.000;  -99.000
220.111;  -36.275; -328.000;  -40.000
220.255;  -94.875; -797.000; -750.000
220.400;  -12.750; -180.000; -146.000
220.544;  -68.500; -516.000; -450.000
220.689;  -57.550; -422.000; -451.000
220.833;  -18.850; -123.000;  -58.000
220.978;  -36.875; -393.000; -563.000
221.122;   27.025;  319.000;  307.000
221.267; -111.875; -906.000; -837.000
221.411;  -67.125; -478.000; -394.000
221.555;  -17.975; -104.000;  -23.000
221.700;  -40.925; -329.000; -222.000
221.844;   42.075;  255.000;  272.000
221.989;  -46.325; -328.000; -311.000
222.133;  -32.400; -289.000; -307.000
222.277;   -7.450;    5.000;   78.000
222.422;   27.825;  227.000;  113.000
222.566;  -45.650; -381.000; -214.000
222.711;  -51.400; -414.000; -479.000
222.855;  -82.300; -643.000; -586.000
222.999;  -81.475; -642.000; -717.000
223.144;  -19.650; -195.000; -194.000
223.288;   42.950;  423.000;  251.000
223.432;   33.575;  184.000;  230.000
223.576;   26.500;  152.000;  -21.000
223.721;   51.075;  364.000;  273.000
223.865;  -52.150; -472.000; -475.000
224.009;  257.000; 1673.000; 1631.000
224.153; -101.500; -660.000; -671.000
224.298;  -69.825; -531.000; -489.000
224.442;  -11.450;  -74.000;  -33.000
224.586;    4.150; -169.000; -106.000
224.730;  -88.375; -858.000; -670.000
224.875; -101.450; -739.000; -688.000
225.019;    8.825;  102.000;  188.000
225.163;   57.650;  208.000;  341.000
225.307;   22.950;   97.000;  -91.000
225.451;   62.325;  360.000;  481.000
225.595;   28.975;  264.000;  176.000
225.739;  -10.300; -170.000;  -94.000
225.884;    4.725;   86.000;    5.000
226.028;  -96.525; -760.000; -626.000
226.172;  -34.350; -260.000; -273.000
226.316; -128.300; -941.000; -902.000
226.460;  -62.675; -645.000; -493.000
226.604;  -41.250; -406.000; -400.000
226.748; -113.175; -836.000; -733.000
226.892;  -41.575; -227.000; -181.000
227.036;  -44.850; -537.000; -447.000
227.180;  -45.700; -551.000; -375.000
227.324;  -69.950; -561.000; -580.000
227.468; -111.425; -819.000; -717.000
227.612;   19.525;  242.000;  -28.000
227.756; -101.600; -845.000; -698.000
227.900;   55.075;  342.000;  441.000
228.044;  -54.800; -509.000; -290.000
228.188;   64.100;  448.000;  568.000
228.332;  -80.175; -546.000; -472.000
228.476;  -29.525; -223.000; -149.000
228.620;  -23.000; -210.000; -150.000
228.764;   80.500;  431.000;  349.000
228.908;  -17.150; -155.000;   30.000
229.052;  -66.825; -615.000; -528.000
229.195;  -24.950; -172.000;   13.000
229.339;  -28.725; -235.000; -305.000
229.483;  -15.725;    5.000; -162.000
229.627;   -8.425; -156.000;  139.000
229.771;  -41.050; -218.000; -294.000
229.915;   10.350;  230.000;   79.000
230.059;  -96.750; -648.000; -663.000
230.202;  -38.725; -370.000; -317.000
230.346;  -21.625; -107.000;  107.000
230.490;  -60.900; -489.000; -521.000
230.634; -107.875; -736.000; -553.000
230.777;   70.950;  478.000;  509.000
230.921;  -54.600; -450.000; -359.000
231.065;  -26.475; -246.000; -286.000
231.209;   30.975;  261.000;  265.000
231.352;   18.275;   54.000;   40.000
231.496;   12.100;  568.000;  188.000
231.640;  -86.100; -693.000; -621.000
231.783;   70.550;  546.000;  525.000
231.927;  -42.900; -294.000; -365.000
232.071; -132.025; -962.000; -736.000
232.214; -109.400; -980.000; -764.000
232.358; -106.450; -683.000; -599.000
232.502;    6.750;  -19.000;    7.000
232.645; -135.400;-1090.000; -927.000
232.789;  -23.450; -257.000; -218.000
232.933;  -39.625; -407.000; -224.000
233.076; -124.650;-1038.000; -897.000
233.220;  -99.125; -752.000; -777.000
233.363;  -80.700; -669.000; -477.000
233.507;   71.125;  371.000;  129.000
233.650;  -86.025; -764.000; -834.000
233.794;   40.700;  438.000;  461.000
233.938;  -57.000; -530.000; -362.000
234.081;   -6.600;  -93.000;   31.000
234.225;  -66.275; -631.000; -539.000
234.368; -112.925; -773.000; -723.000
234.512;  -40.200; -385.000; -299.000
234.655;  -97.125; -582.000; -555.000
234.798;  -70.250; -493.000; -466.000
234.942; -121.625; -884.000;-1002.000
235.085;  -82.475; -651.000; -443.000
235.229;  -56.525; -405.000; -410.000
235.372;  -41.475; -247.000; -191.000
235.516;  -65.050; -397.000; -321.000
235.659;   20.350;   92.000;  121.000
235.802;  -12.400;  -38.000;  -22.000
235.946;   39.575;  335.000;  215.000
236.089;   36.825;  126.000;  250.000
236.233;   50.825;  275.000;  298.000
236.376;  -47.275; -235.000; -378.000
236.519;  -35.750; -297.000; -319.000
236.663;  -22.025; -215.000; -117.000
236.806; -133.575;-1029.000; -999.000
236.949;   45.850;  543.000;  431.000
237.092;   68.000;  412.000;  391.000
237.236;  -83.575; -589.000; -502.000
237.379;   76.750;  352.000;  428.000
237.522; -115.575; -879.000; -768.000
237.666;  -18.175; -271.000;   18.000
237.809; -115.000; -851.000; -823.000
237.952;   34.600;  469.000;  271.000
238.095;  -74.275; -447.000; -442.000
238.238;   89.125;  688.000;  700.000
238.382;    4.025;  166.000;  103.000
238.525;  -66.025; -598.000; -511.000
238.668; -138.075;-1060.000; -985.000
238.811;  -76.250; -638.000; -643.000
238.954;  -55.975; -483.000; -334.000
239.097;   88.050;  617.000;  664.000
239.241;   19.425;  394.000;  326.000
239.384;  -27.300; -254.000; -214.000
239.527;  -65.850; -424.000; -224.000
239.670; -142.700; -994.000;-1091.000
239.813; -106.600; -696.000; -658.000
239.956;   88.775;  579.000;  473.000
240.099; -111.200; -778.000; -725.000
240.242;   62.550;  428.000;  432.000
240.385;   45.100;  466.000;  450.000
240.528;  -76.875; -706.000; -473.000
240.671;   16.975;  189.000;  134.000
240.814;  -37.475; -441.000; -158.000
240.957;  -91.500; -767.000; -578.000
241.100;  -95.250; -779.000; -755.000
241.243; -146.550;-1234.000; -893.000
241.386;  -64.700; -508.000; -379.000
241.529;  -91.175; -735.000; -547.000
241.672;  -71.675; -566.000; -495.000
241.815; -114.400; -832.000; -808.000
241.958;  -25.100; -125.000; -182.000
242.101;  -72.600; -545.000; -390.000
242.244;  -28.400; -270.000; -325.000
242.387;  -38.825; -304.000; -246.000
242.530;   63.000;  470.000;  134.000
242.673;  -37.300; -381.000; -309.000
242.815; -121.450; -925.000; -899.000
242.958;  -66.100; -482.000; -381.000
243.101;   19.850;  132.000;  187.000
243.244;  -76.100; -564.000; -521.000
243.387;  -41.325; -313.000; -316.000
243.530;  -99.175; -657.000; -674.000
243.672;   -3.750;   43.000;  -92.000
243.815;  -56.125; -355.000; -283.000
243.958;    4.650;   98.000;  -26.000
244.101;   -4.525;   59.000;  -16.000
244.243;   -5.000;  -47.000;  101.000
244.386; -110.975; -761.000; -630.000
244.529;  -25.525; -132.000; -139.000
244.672; -149.775;-1154.000; -951.000
244.814;  -98.250; -621.000; -794.000
244.957;  -39.200; -380.000; -304.000
245.100;  -65.700; -489.000; -489.000
245.242;  -40.925; -387.000; -374.000
245.385;   -5.775;  -59.000;  -39.000
245.528; -119.925; -871.000; -705.000
245.670;   88.125;  612.000;  634.000
245.813;  -74.400; -599.000; -547.000
245.956;  -25.950; -324.000; -275.000
246.098;  -75.800; -508.000; -650.000
246.241;    7.625;  194.000;   48.000
246.383;   -0.850; -119.000;  -73.000
246.526;  -69.700; -454.000; -525.000
246.669; -124.675; -889.000; -780.000
246.811;    7.425;  172.000;   -1.000
246.954;  -69.400; -512.000; -426.000
247.096;   -8.350;  -84.000;   -6.000
247.239;  -65.225; -482.000; -445.000
247.381;  -69.000; -647.000; -488.000
247.524;   87.025;  645.000;  679.000
247.666;   -3.775;   58.000;   11.000
247.809; -120.775; -887.000; -691.000
247.951;   -7.200;  -75.000;  138.000
248.094;   36.825;  432.000;  308.000
248.236; -161.500;-1262.000;-1238.000
248.378;   11.675; -356.000;  -81.000
248.521;  -19.600; -334.000; -337.000
248.663;  -43.775; -236.000; -267.000
248.806;  -27.075; -300.000; -266.000
248.948; -100.525; -886.000; -763.000
249.090;  -47.200; -428.000; -398.000
249.233;  -43.425; -344.000; -381.000
249.375;  -80.350; -474.000; -451.000
249.518;  -17.100;  -83.000; -133.000
249.660;    1.275; -103.000;    3.000
249.802; -181.900;-1303.000;-1189.000
249.945;  -73.300; -612.000; -540.000
250.087; -120.000; -834.000; -768.000
250.229;  -39.100; -362.000; -480.000
250.371;  -67.500; -494.000; -439.000
250.514;  -61.475; -310.000; -244.000
250.656;  -12.975;   69.000;  102.000
250.798; -116.325; -849.000; -800.000
250.940;  -62.475; -322.000; -322.000
251.083;  -27.750; -335.000; -111.000
251.225;   55.300;  338.000;  310.000
251.367;  -35.550; -274.000; -373.000
251.509;  -37.875; -265.000; -210.000
251.651;  -93.450; -731.000; -671.000
251.794;   52.075;  538.000;  632.000
251.936; -108.975; -821.000; -747.000
252.078;  -81.225; -540.000; -461.000
252.220;  -73.250; -645.000; -477.000
252.362;   98.900;  344.000;  462.000
252.504;  -71.150; -677.000; -584.000
252.646; -109.100; -875.000; -722.000
252.788;    5.175;   14.000; -128.000
252.931;  -36.650; -257.000; -253.000
253.073;  -44.725; -376.000; -317.000
253.215;   -0.775;  141.000;  122.000
253.357;  -12.225;   82.000; -153.000
253.499;  -35.100; -374.000; -234.000
253.641;  -94.500; -749.000; -594.000
253.783;  -77.925; -609.000; -527.000
253.925;  -92.300; -586.000; -591.000
254.067; -115.600; -744.000; -667.000
254.209;  -35.750; -391.000; -259.000
254.351; -140.275; -865.000; -883.000
254.493;  -57.250; -441.000; -417.000
254.635; -138.425; -936.000; -818.000
254.777;  -86.125; -752.000; -687.000
254.918;  -61.475; -512.000; -430.000
255.060;  -66.425; -551.000; -395.000
255.202;  -53.925; -473.000; -261.000
255.344;  -77.750; -658.000; -455.000
255.486;  -68.225; -471.000; -406.000
255.628; -109.050; -780.000; -781.000
255.770;  -90.300; -676.000; -536.000
255.912;  -60.300; -559.000; -468.000
256.053; -103.150; -730.000; -508.000
256.195;  162.250; 1008.000;  903.000
256.337;  -88.000; -861.000; -595.000
256.479;   70.150;  532.000;  416.000
256.621;  -38.175; -394.000; -212.000
256.762; -103.450; -789.000; -742.000
256.904;   50.750;  485.000;  487.000
257.046;  -50.025; -381.000; -271.000
257.188;  -35.650; -351.000; -264.000
257.329;  -68.000; -525.000; -464.000
257.471; -132.225; -939.000; -807.000
257.613;  -66.425; -584.000; -498.000
257.755; -151.525;-1073.000; -982.000
257.896;   48.475;  286.000;  392.000
258.038;  -76.725; -403.000; -352.000
258.180;  -39.525; -354.000; -279.000
258.321;  -88.600; -581.000; -457.000
258.463;  -15.650;  -71.000;  133.000
258.605;  -92.000; -562.000; -570.000
258.746; -104.700; -886.000; -772.000
258.888; -152.900;-1026.000;-1020.000
259.029;   19.500;  121.000;   -8.000
259.171;  -88.450; -614.000; -550.000
259.313;   -3.625;  -49.000;  -47.000
259.454;  -77.750; -536.000; -414.000
259.596;  -41.125; -483.000; -390.000
259.737;  -68.625; -590.000; -474.000
259.879;   38.575;  217.000;  311.000
260.020;   96.750;  901.000;  636.000
260.162;  -32.425; -146.000; -253.000
260.303; -117.200; -768.000; -687.000
260.445;  -80.475; -609.000; -613.000
260.586;   29.850;  392.000;  157.000
260.728;  -47.850; -360.000; -248.000
260.869; -113.375; -350.000; -343.000
261.011;   86.225;  706.000;  537.000
261.152;  -60.050; -479.000; -319.000
261.293;  -88.675; -576.000; -595.000
261.435;  -31.025; -219.000; -184.000
261.576;  -53.550; -455.000; -325.000
261.718;   64.675;  420.000;  470.000
261.859; -132.425; -940.000; -949.000
262.000; -147.250; -951.000;-1016.000
262.142;   -8.225;  -52.000;  -60.000
262.283; -112.600; -808.000; -691.000
262.424;  -83.350; -666.000; -625.000
262.566; -170.250;-1161.000; -983.000
262.707; -126.150; -840.000; -830.000
262.848; -127.550; -769.000; -726.000
262.990;  -35.400; -362.000; -345.000
263.131;   95.975;  650.000;  681.000
263.272;   -8.475;  -61.000;  -41.000
263.413;  -90.175; -589.000; -561.000
263.555;  -78.100; -669.000; -143.000
263.696;  -82.125; -550.000; -641.000
263.837;  -63.925; -449.000; -551.000
263.978;  -10.900;   -5.000;  -77.000
264.119;  -54.050; -283.000; -264.000
264.261; -113.700; -847.000; -630.000
264.402;    8.075;   33.000;   40.000
264.543;  -80.300; -509.000; -524.000
264.684;  -11.875;   61.000;  -50.000
264.825;  -63.400; -816.000; -538.000
264.966;   -2.875;  -84.000;  -67.000
265.107; -117.550; -646.000; -670.000
265.248; -115.175; -825.000; -812.000
265.390;   -0.825;  152.000;   -9.000
265.531;  -19.025; -238.000; -107.000
265.672;  -92.525; -557.000; -630.000
265.813;   66.625;  563.000;  439.000
265.954; -151.950; -959.000; -940.000
266.095;  -23.225; -372.000; -322.000
266.236;  -88.225; -686.000; -548.000
266.377;  -51.800; -243.000; -297.000
266.518;  -66.475; -619.000; -547.000
266.659;   22.000;  170.000;  268.000
266.800;    3.950;   83.000;   85.000
266.941;  -81.825; -487.000; -478.000
267.082;   34.550;  354.000;   99.000
267.223;  -47.950; -344.000; -273.000
267.364; -110.675; -892.000; -686.000
267.504;  -17.500;    3.000;  135.000
267.645;   13.550;  160.000;   67.000
267.786;  -28.650; -147.000;  -86.000
267.927;  -75.125; -473.000; -379.000
268.068;  -10.050; -186.000;  -61.000
268.209;  -42.625; -175.000; -413.000
268.350;  -60.350; -388.000; -532.000
268.490;  -79.300; -648.000; -521.000
268.631;   27.200;  127.000;  225.000
268.772;  -99.550; -874.000; -647.000
268.913;  -62.575; -328.000; -476.000
269.054;   -9.475; -117.000;   12.000
269.194;  -38.375; -418.000; -402.000
269.335; -145.450;-1137.000;-1074.000
269.476;  -19.275;   33.000;  -35.000
269.617;  -50.400; -347.000; -392.000
269.757;  -92.350; -713.000; -646.000
269.898; -114.400; -856.000; -613.000
270.039;  -63.925; -415.000; -405.000
270.180; -144.950; -952.000; -816.000
270.320;  -33.675; -190.000; -250.000
270.461;  -31.900; -277.000; -249.000
270.602;  -11.875; -186.000; -156.000
270.742; -127.650; -868.000; -943.000
270.883;  -58.900; -442.000; -390.000
271.023;  -59.075; -358.000; -357.000
271.164;  -82.175; -607.000; -528.000
271.305; -106.875; -666.000; -654.000
271.445;  -90.550; -722.000; -683.000
271.586;  -62.300; -462.000; -283.000
271.726;  -38.750; -397.000; -322.000
271.867;  -59.400; -594.000; -534.000
272.008;  151.450; -473.000; -285.000
272.148;  127.425;  462.000;  468.000
272.289;   10.700; -113.000; -181.000
272.429;    9.475;   19.000;  185.000
272.570;  -90.475; -633.000; -737.000
272.710; -102.775; -825.000; -775.000
272.851;  -23.925;  113.000; -130.000
272.991; -160.675;-1173.000;-1077.000
273.131;  -68.050; -419.000; -459.000
273.272; -105.450; -683.000; -723.000
273.412;   -0.100; -143.000;  -31.000
273.553;  -56.475; -488.000; -507.000
273.693;  137.250;  913.000;  858.000
273.834;  -94.925; -894.000; -692.000
273.974;  -85.475; -664.000; -615.000
274.114; -103.150; -772.000; -560.000
274.255;   73.500;  414.000;  373.000
274.395;   -5.725; -180.000; -125.000
274.535;   30.350;  199.000;  350.000
274.676;   16.375;  225.000;   94.000
274.816;   -3.100;  110.000;   34.000
274.956;  -77.650; -624.000; -690.000
275.097;  -63.625;-1014.000; -922.000
275.237; -106.425; -913.000; -803.000
275.377;  -98.125; -778.000; -689.000
275.517; -152.475; -878.000; -937.000
275.658;  -56.275; -590.000; -555.000
275.798;  -76.775; -606.000; -413.000
275.938;   13.225;  215.000;  323.000
276.078;  -97.000; -626.000; -395.000
276.218;   -3.500;   99.000;  104.000
276.359; -139.875;-1026.000;-1024.000
276.499;  -72.800; -605.000; -446.000
276.639;  -33.625; -305.000; -151.000
276.779;  -47.425; -475.000; -357.000
276.919; -104.975; -783.000; -624.000
277.059;  -17.825; -261.000; -212.000
277.199;  -36.300; -357.000; -259.000
277.340;   38.000;  287.000;  175.000
277.480; -113.400; -840.000; -693.000
277.620;   24.925;  192.000;   16.000
277.760; -193.525;-1533.000;-1294.000
277.900;   13.000;  113.000;   33.000
278.040;   16.000;  137.000;  159.000
278.180;   39.125;  270.000;  170.000
278.320;   -2.825;   21.000;   56.000
278.460;  -73.250; -443.000; -469.000
278.600;  -90.800; -708.000; -598.000
278.740;   60.975;  448.000;  224.000
278.880;  -87.950; -768.000; -791.000
279.020;  -25.075; -194.000; -144.000
279.160;  -91.325; -672.000; -595.000
279.300; -135.100; -926.000; -873.000
279.440; -105.000; -709.000; -622.000
279.579;  -44.925;-1014.000; -929.000
279.719;  -58.025; -410.000; -394.000
279.859;   55.525;   -4.000;   41.000
279.999;   22.525; -208.000;  101.000
280.139;  -26.625; -435.000; -387.000
280.279;  -73.275; -708.000; -745.000
280.419;  -13.800; -229.000; -147.000
280.559;  -37.625; -259.000; -180.000
280.698;  -73.100; -790.000; -639.000
280.838;  -94.275; -778.000; -800.000
280.978;  -97.075; -846.000; -790.000
281.118; -114.875; -811.000; -704.000
281.257;    9.475;   24.000;    6.000
281.397; -131.875;-1094.000; -960.000
281.537;  -93.025; -599.000; -712.000
281.677;  -27.475; -150.000; -101.000
281.816;  -98.675; -700.000; -630.000
281.956;  -32.900; -193.000; -257.000
282.096;  -66.300; -539.000; -396.000
282.235; -109.550; -672.000; -638.000
282.375;  -33.525; -243.000;  -98.000
282.515; -111.875; -715.000; -707.000
282.654;   19.275;   29.000;  106.000
282.794;   18.125;  388.000;  244.000
282.934;  -59.500; -530.000; -491.000
283.073; -132.600;-1030.000; -857.000
283.213;  -56.175; -460.000; -467.000
283.353;  -42.050; -408.000; -349.000
283.492;  -39.400; -264.000; -296.000
283.632;  -39.100; -254.000; -168.000
283.771;  -95.700; -859.000; -730.000
283.911;  -53.275; -369.000; -260.000
284.050;  -98.175; -794.000; -748.000
284.190; -162.175;-1229.000;-1096.000
284.329; -142.025;-1055.000; -964.000
284.469;  -74.350; -516.000; -591.000
284.608;  -59.925; -559.000; -598.000
284.748;  -87.600; -614.000; -570.000
284.887;    1.775;  -87.000;  -20.000
285.027; -124.075; -844.000; -892.000
285.166;  -29.350; -192.000; -249.000
285.306;    1.275; -116.000;  -33.000
285.445;  -32.400; -229.000; -343.000
285.584;  -88.825; -630.000; -494.000
285.724;  -41.500; -282.000; -322.000
285.863; -101.800; -857.000; -507.000
286.002;  -56.500; -366.000; -276.000
286.142; -106.425; -715.000; -622.000
286.281;  -74.175; -525.000; -493.000
286.420;  -75.850; -554.000; -417.000
286.560;   91.525;  653.000;  623.000
286.699; -139.925; -958.000; -912.000
286.838;  -79.225; -590.000; -591.000
286.978; -102.925; -533.000; -537.000
287.117; -131.850;-1085.000; -950.000
287.256;  -33.525; -228.000; -211.000
287.395;  -47.825; -197.000; -378.000
287.535;  -45.525; -370.000; -298.000
287.674;  -86.475; -509.000; -484.000
287.813;   57.075;  661.000;  533.000
287.952; -134.450;-1010.000; -871.000
288.091; -158.400;-1049.000; -915.000
288.231;   17.625;   13.000;   15.000
288.370; -176.700;-1217.000;-1200.000
288.509;  -93.950; -728.000; -645.000
288.648; -108.925; -770.000; -548.000
288.787;  -41.000; -243.000;  -87.000
288.926;  -80.200; -454.000; -475.000
289.065;  116.700;  859.000;  672.000
289.204;  -49.925; -377.000; -217.000
289.344; -102.800; -791.000; -690.000
289.483;   18.750;  416.000;  304.000
289.622;  -37.375; -291.000; -149.000
289.761;  -29.900; -309.000; -166.000
289.900; -110.850; -785.000; -626.000
290.039;   -9.350;  -12.000;  -95.000
290.178;  -41.600; -274.000; -180.000
290.317;  -93.300; -618.000; -479.000
290.456;  -77.475; -463.000; -451.000
290.595; -146.325; -961.000; -833.000
290.734; -141.775; -904.000; -891.000
290.873;  -77.900; -456.000; -420.000
291.011; -107.250; -833.000; -843.000
291.150; -103.975; -770.000; -682.000
291.289;  -27.025; -343.000; -110.000
291.428;  -93.500; -599.000; -480.000
291.567;  -59.425; -370.000; -442.000
291.706;    5.050;  109.000;  154.000
291.845;  -91.475; -597.000; -505.000
291.984; -170.050;-1234.000;-1061.000
292.122;   68.600;  602.000;  582.000
292.261;   32.975;  620.000;  463.000
292.400;   -9.725; -144.000;  211.000
292.539; -130.550; -959.000; -813.000
292.678;  -31.775; -325.000; -300.000
292.816; -164.750;-1136.000; -965.000
292.955; -108.625; -844.000; -684.000
293.094;  -24.375; -173.000; -337.000
293.233;  -51.525; -556.000; -400.000
293.371;  -35.150; -225.000;  -84.000
293.510; -106.300; -866.000; -780.000
293.649; -125.075; -959.000; -924.000
293.787;  -77.950;-1083.000;-1012.000
293.926;   -6.825; -113.000;  -32.000
294.065;  -46.550; -379.000; -290.000
294.203;   40.450;  298.000;  406.000
294.342;   20.750;   74.000;  156.000
294.481; 7047.900;51180.000; -836.000
294.619;  -25.425; -425.000; -582.000
294.758; -160.225;-1230.000;-1137.000
294.896;   41.950; -125.000;    5.000
295.035; -133.325;-1040.000;-1006.000
295.174; -125.075;-1082.000; -954.000
295.312;  -52.450; -323.000; -203.000
295.451;  -22.050; -307.000; -428.000
295.589;  -50.850; -389.000; -518.000
295.728;   10.975; -292.000; -165.000
295.866;   -3.375;  -36.000;  -51.000
296.005;  -74.950; -584.000; -341.000
296.143;  -78.200; -558.000; -596.000
296.282; -109.400; -957.000; -881.000
296.420;  -87.875; -657.000; -557.000
296.559;  -96.750; -892.000; -633.000
296.697;    0.700; -847.000; -665.000
296.835;   20.975;-1141.000;-1002.000
296.974;   53.525;  -23.000;   39.000
297.112;  -23.450; -443.000; -504.000
297.251;  -89.200; -815.000; -755.000
297.389;   56.900; -576.000; -438.000
297.527;   39.850; -145.000;  -83.000
297.666;  -71.950; -486.000; -438.000
297.804;  -50.225; -404.000; -264.000
297.942;   -3.225; -136.000; -161.000
298.081;   10.900; -183.000;   63.000
298.219;   64.525;  -17.000;  -19.000
298.357;   34.500; -144.000;  -71.000
298.495;   12.300; -810.000; -812.000
298.634;   54.625;  245.000;  219.000
298.772;   19.800; -220.000; -338.000
298.910;  -35.425; -309.000; -182.000
299.048;   -8.125; -130.000; -153.000
299.187;  -35.675; -350.000; -250.000
299.325;    3.700;   52.000;  122.000
299.463;   20.475; -389.000; -299.000
299.601;   74.325; -327.000; -271.000
299.739; -117.250; -908.000; -883.000
299.877;  -89.025; -791.000; -703.000
300.016;  -53.925;-1095.000; -935.000
300.154;  125.225;  -19.000; -161.000
300.292;   34.725; -428.000; -348.000
300.430;    3.250; -408.000; -291.000
300.568; -109.850; -940.000; -874.000
300.706;  -55.525; -366.000; -469.000
300.844;  -98.625;-1108.000; -979.000
300.982;  108.450;  246.000;  282.000
301.120; -122.300; -965.000; -866.000
301.258;  -73.625; -812.000; -705.000
301.396;   35.425;  104.000;  -41.000
301.534;   37.075; -218.000; -293.000
301.672;  -25.500; -664.000; -521.000
301.810;   10.225; -613.000; -545.000
301.948;   83.775;   53.000;  149.000
302.086;  532.925; -250.000;  -32.000
302.224;  793.375; -610.000; -585.000
302.362;   17.900; -558.000; -622.000
302.500;  -54.400; -923.000; -893.000
302.638;   90.875;  128.000;  245.000
302.776;  -11.050; -352.000; -408.000
302.913;   39.325;  447.000;  236.000
303.051;   -5.500;  -86.000;  -23.000
303.189;   44.600;   90.000;  118.000
303.327;  -40.500; -341.000; -256.000
303.465;  -81.500; -832.000; -588.000
303.603;  -97.675; -805.000; -604.000
303.740;   88.625;  417.000;  241.000
303.878;   -4.225; -800.000; -759.000
304.016; -110.825; -915.000; -790.000
304.154; -142.025;-1123.000;-1152.000
304.291;  -40.575; -505.000; -554.000
304.429;   -1.225;  102.000;   74.000
304.567; -127.050; -908.000; -893.000
304.705;  -54.675; -408.000; -515.000
304.842;   63.125; -616.000; -540.000
304.980;   50.650;  215.000;   35.000
305.118;   21.100; -367.000; -365.000
305.255;  -81.400; -945.000; -927.000
305.393;   53.450;  178.000;  239.000
305.531;  -99.925;-1173.000; -956.000
305.668;  -77.225; -663.000; -582.000
305.806;   93.550; -358.000; -439.000
305.943;   81.550; -629.000; -637.000
306.081;   31.375; -378.000; -267.000
306.219; -103.175; -863.000; -748.000
306.356;    6.425;  158.000;   27.000
306.494;  114.425;  981.000;  761.000
306.631;  -11.775;  -11.000;  -55.000
306.769;  -10.000; -613.000; -485.000
306.906;  -39.525; -284.000; -258.000
307.044;  -73.875; -473.000; -488.000
307.181;  -61.950; -410.000; -332.000
307.319;    6.925;  112.000;   87.000
307.456; -167.300;-1191.000;-1153.000
307.594; -105.900; -980.000; -727.000
307.731;  -17.350; -371.000; -164.000
307.868;   -2.075;  -15.000;   20.000
308.006; -146.550; -961.000; -847.000
308.143;  -68.450; -618.000; -330.000
308.281;   98.075;  -37.000; -254.000
308.418;  -19.225; -748.000; -640.000
308.555;  -67.025; -400.000; -250.000
308.693;  -91.250; -577.000; -573.000
308.830; -112.700; -712.000; -657.000
308.967;  -10.600; -215.000;  -95.000
309.105;  -51.100; -507.000; -396.000
309.242;   11.850; -468.000; -367.000
309.379;  194.475; -577.000; -655.000
309.517;  -87.675; -936.000; -948.000
309.654; -120.100; -910.000; -734.000
309.791;  -80.250; -662.000; -580.000
309.928; -122.250; -977.000; -914.000
310.065;  177.775;  819.000;  697.000
310.203;  -17.750; -825.000; -850.000
310.340;  -25.275; -465.000; -321.000
310.477;  -90.425; -412.000; -516.000
310.614;  -66.275; -383.000; -473.000
310.751;  -75.425; -427.000; -518.000
310.889;  -34.400;    1.000;   11.000
311.026; -161.850;-1161.000; -939.000
311.163;  -64.375; -386.000; -380.000
311.300;  -73.850; -512.000; -479.000
311.437;  -76.800; -658.000; -619.000
311.574; -171.375;-1226.000; -985.000
311.711;  -70.000; -595.000; -433.000
311.848;  -49.625; -380.000; -388.000
311.985;    6.000;  270.000;   93.000
312.122; -123.500; -932.000; -762.000
312.259; -131.025; -941.000; -994.000
312.396;  -75.625; -508.000; -551.000
312.533;  -89.650; -812.000; -790.000
312.670; -143.900;-1070.000; -898.000
312.807;  -38.100; -352.000; -367.000
312.944;  -80.475; -513.000; -611.000
313.081;  -32.700; -150.000; -415.000
313.218; -111.950;-1111.000; -867.000
313.355;   -8.650; -531.000; -449.000
313.492;  -15.450; -455.000; -292.000
313.629;  123.600;  815.000;  735.000
313.766; -163.400;-1176.000;-1008.000
313.902;   -5.800; -186.000;   21.000
314.039;  -52.025; -372.000; -289.000
314.176;   30.675;  286.000;  192.000
314.313;  -73.450; -569.000; -473.000
314.450;  -93.775; -788.000; -684.000
314.587;  -69.100; -468.000; -480.000
314.723;    4.475;  -78.000;  130.000
314.860;   26.875;  318.000;  332.000
314.997;   11.550;  223.000;  142.000
315.134;  -49.500; -385.000; -368.000
315.270;  -29.725; -480.000; -496.000
315.407; -131.125;-1094.000; -967.000
315.544;  -58.125; -657.000; -538.000
315.681;  -54.575; -681.000; -565.000
315.817;    5.400; -133.000; -176.000
315.954;    0.575; -613.000; -392.000
316.091; -131.525;-1045.000;-1023.000
316.227;  -36.600;  -71.000; -179.000
316.364;    2.600;   23.000;    6.000
316.500;  -50.900; -113.000; -300.000
316.637;  -42.875; -181.000; -302.000
316.774;  -89.500; -625.000; -358.000
316.910;  -92.225; -598.000; -629.000
317.047;  -78.675; -487.000; -351.000
317.183;  -61.300; -435.000; -566.000
317.320;    6.700; -367.000; -321.000
317.456;  -74.175; -733.000; -805.000
317.593;  -97.675; -598.000; -641.000
317.729;   -3.200;  168.000;  -67.000
317.866; -202.300;-1434.000;-1285.000
318.002; -100.375; -708.000; -948.000
318.139; -104.875; -883.000; -867.000
318.275; -117.925;-1003.000; -738.000
318.412;  -70.925; -517.000; -336.000
318.548;  -50.550; -751.000; -720.000
318.685; -117.450; -985.000; -888.000
318.821; -106.250; -762.000; -735.000
318.957;  -10.150;   34.000;  -23.000
319.094;   35.425;  297.000;  154.000
319.230;  -72.050; -756.000; -742.000
319.367;  100.300; -471.000; -520.000
319.503;   40.975; -538.000; -436.000
319.639;  -88.000; -877.000; -793.000
319.775;  -65.700; -750.000; -685.000
319.912;  -51.150; -424.000; -519.000
320.048;  -97.800;-1184.000;-1184.000
320.184;   88.625;   59.000;   70.000
320.321;  -58.875; -497.000; -467.000
320.457;   67.175;  475.000;  662.000
320.593;  -65.475; -375.000; -382.000
320.729; -104.675; -732.000; -734.000
320.866;  -75.775; -577.000; -635.000
321.002;  -89.475; -759.000; -809.000
321.138;  -16.325; -135.000; -211.000
321.274;   53.200; -148.000; -115.000
321.410;  -32.250; -585.000; -353.000
321.546;  -52.200;-1011.000; -911.000
321.683;   39.275;  400.000;  185.000
321.819;   -5.950;  -48.000; -117.000
321.955; -120.650; -743.000; -722.000
322.091;  -46.850; -585.000; -540.000
322.227;  -15.050; -382.000; -202.000
322.363;  -22.625; -320.000; -215.000
322.499;  -58.250; -343.000; -331.000
322.635;  153.725;  636.000;  443.000
322.771;    5.900; -139.000;   12.000
322.907;   76.750;  129.000;  327.000
323.043;  -13.400; -115.000; -206.000
323.179;  -51.850; -394.000; -363.000
323.315;   -7.675; -401.000; -371.000
323.451;   66.750; -328.000; -236.000
323.587;   60.050;  -60.000;  -77.000
323.723;    3.075; -682.000; -601.000
323.859;  -18.750; -258.000;  -76.000
323.995;  -33.575; -467.000; -409.000
324.131; -123.650; -967.000; -892.000
324.267;  -37.350; -254.000; -276.000
324.402; -143.575; -960.000; -983.000
324.538;  -18.400; -279.000; -104.000
324.674;    3.825;  164.000;   77.000
324.810;  101.675;  226.000;  308.000
324.946;  -22.000; -810.000; -658.000
325.082;  -78.000; -568.000; -475.000
325.217;  -22.600;  -62.000;   16.000
325.353; -111.300; -764.000; -659.000
325.489;  -91.700; -540.000; -506.000
325.625;  -70.900; -579.000; -525.000
325.760;   72.575;  517.000;  376.000
325.896;  -39.425; -515.000; -702.000
326.032;  -50.775; -403.000; -352.000
326.168;  -60.925; -462.000; -369.000
326.303;  -60.925; -352.000; -461.000
326.439;  -26.475; -336.000; -276.000
326.575;   -7.900; -190.000;  -29.000
326.710;  -20.875; -156.000;  -30.000
326.846;  -22.250;  146.000;  103.000
326.982;  -92.650; -530.000; -548.000
327.117;  -72.875; -481.000; -442.000
327.253;  -89.675; -745.000; -742.000
327.388; -191.700;-1137.000;-1153.000
327.524;  -75.525; -811.000; -578.000
327.659;  -48.325;  -58.000;  -22.000
327.795;  -10.425;   69.000;   45.000
327.931;  -74.000; -723.000; -499.000
328.066;  -26.650; -417.000; -276.000
328.202;  -25.625;   12.000; -129.000
328.337;   95.125;  957.000;  713.000
328.473;   40.500;  -12.000;  -74.000
328.608;  -37.625; -256.000; -267.000
328.743;  -87.425; -799.000; -664.000
328.879;   15.550;  214.000;  114.000
329.014;  -43.925; -102.000; -122.000
329.150;  -85.525; -358.000; -483.000
329.285;  -90.000; -465.000; -466.000
329.421;  -62.075; -548.000; -246.000
329.556;  -29.875;  -36.000;   85.000
329.691; -101.275; -633.000; -615.000
329.827;  -77.525; -626.000; -480.000
329.962;  -48.725;  131.000; -301.000
330.097; -101.100; -673.000; -585.000
330.233;  -55.900; -410.000; -223.000
330.368; -133.650; -839.000; -628.000
330.503;  -27.975;    3.000;   98.000
330.638;   11.650;  -93.000; -125.000
330.774;  -54.650; -609.000; -530.000
330.909;  -47.225; -434.000; -244.000
331.044; -107.050; -714.000; -708.000
331.179; -180.900;-1217.000;-1109.000
331.315;   12.250;   77.000;   20.000
331.450;   12.400;  157.000;  285.000
331.585;  -84.125; -805.000; -706.000
331.720;  -84.700; -510.000; -460.000
331.855;  -15.525;  -35.000; -102.000
331.990;  269.650;   62.000;  138.000
332.126;  136.175; -110.000;   71.000
332.261;  -34.100; -379.000; -265.000
332.396;    2.175; -135.000; -242.000
332.531; -103.250;-1074.000;-1031.000
332.666;   39.950; -519.000; -363.000
332.801;  -93.100; -726.000; -807.000
332.936;  -34.525; -192.000; -122.000
333.071; -148.525; -870.000; -817.000
333.206;   23.100;  307.000;  379.000
333.341;   19.175;  344.000;  418.000
333.476;  -84.550; -627.000; -623.000
333.611;  -42.750; -251.000; -173.000
333.746;  -48.475; -381.000; -464.000
333.881; -121.900; -973.000; -935.000
334.016; -139.025; -936.000; -917.000
334.151; -119.750; -746.000; -702.000
334.286;   21.150;  152.000;  186.000
334.421;  -25.700; -125.000; -178.000
334.556;  -87.550; -611.000; -567.000
334.690;  -87.650; -631.000; -577.000
334.825;   30.950;  381.000;   83.000
334.960;  -63.375; -285.000; -413.000
335.095;   -6.300;  135.000;  -91.000
335.230; -109.225; -722.000; -738.000
335.365; -140.700;-1084.000; -990.000
335.499; -143.425;-1108.000;-1037.000
335.634;   13.125;    9.000;  534.000
335.769; -119.225; -755.000; -720.000
335.904;  -75.700; -603.000; -561.000
336.038;  -73.675; -735.000; -657.000
336.173; -126.525;-1206.000;-1194.000
336.308;    1.000; -116.000; -189.000
336.443;  -16.500; -544.000; -634.000
336.577;  -84.250; -936.000; -787.000
336.712;   40.925;   -4.000;  -12.000
336.847;  -46.050; -724.000; -607.000
336.981;   37.950; -272.000; -208.000
337.116;  247.075;  615.000;  501.000
337.250;  112.375; -434.000; -421.000
337.385;  268.325; -297.000; -208.000
337.520;   99.675; -632.000; -603.000
337.654;  -39.950; -215.000; -126.000
337.789; -136.875; -989.000; -933.000
337.923;  -29.025; -104.000; -205.000
338.058;  -93.275; -673.000; -738.000
338.192;  -33.375; -611.000; -488.000
338.327;  -23.000;  -18.000; -155.000
338.461;  -68.975; -299.000; -469.000
338.596;  -89.175; -780.000; -638.000
338.730; -113.525; -767.000; -803.000
338.865;  100.450;  -46.000; -140.000
338.999;  -56.600; -846.000; -702.000
339.134;  -42.175; -634.000; -536.000
339.268;   16.900; -741.000; -603.000
339.403;  366.150; -740.000; -775.000
339.537;  148.225; -894.000; -820.000
339.671; -120.300; -829.000; -813.000
339.806;  -55.950; -556.000; -512.000
339.940;   11.375; -261.000; -235.000
340.074;  -91.000; -685.000; -510.000
340.209;  -43.500; -351.000; -230.000
340.343;  -88.975; -517.000; -573.000
340.477;  154.575;  998.000; 1036.000
340.612;  -46.125;-1033.000; -900.000
340.746;  130.625; -199.000; -243.000
340.880;  -82.500; -924.000; -785.000
341.014;  -13.200;  -45.000; -154.000
341.149; -110.750; -756.000; -718.000
341.283; -116.350; -839.000; -754.000
341.417; -119.600;-1124.000; -938.000
341.551;   87.225; -768.000; -708.000
341.685;  -49.375; -633.000; -611.000
341.820;  -60.700; -562.000; -493.000
341.954;  -53.375; -218.000; -349.000
342.088; -147.025;-1102.000;-1019.000
342.222;   52.700;  565.000;  618.000
342.356;  -73.575; -395.000; -335.000
342.490; -109.450; -880.000; -841.000
342.624;  -52.975; -339.000; -242.000
342.758;  -23.800; -364.000; -312.000
342.892;  -91.575; -710.000; -585.000
343.026;  -38.300;  -58.000; -116.000
343.160;  -61.375; -426.000; -376.000
343.294;  -87.600; -474.000; -337.000
343.428;  -50.450; -488.000; -448.000
343.562;  -19.275; -172.000;  -23.000
343.696;  -21.025; -385.000; -314.000
343.830;  -26.225; -362.000; -356.000
343.964;    2.550; -231.000; -168.000
344.098;  756.225;  199.000;   70.000
344.232;  616.775; -266.000; -127.000
344.366;   67.100; -567.000; -453.000
344.500;   25.050; -665.000; -744.000
344.634;   11.825; -324.000; -164.000
344.768;  -30.475; -531.000; -341.000
344.902;   23.050;  278.000;  256.000
345.035;  -77.575; -556.000; -496.000
345.169; -138.500; -933.000; -656.000
345.303;  -61.675; -308.000; -482.000
345.437;  -90.575; -826.000; -717.000
345.571;  -73.900; -675.000; -594.000
345.704;  -71.825; -309.000; -532.000
345.838;  -15.300; -331.000; -284.000
345.972;  -52.725; -543.000; -495.000
346.106;  154.200; -179.000; -190.000
346.239;  407.925; -312.000; -243.000
346.373;   -1.625; -343.000; -302.000
346.507; -145.350; -950.000; -962.000
346.640;  109.900;  -30.000;   13.000
346.774;  -64.425; -650.000; -797.000
346.908;  -29.250; -138.000;  -11.000
347.041;  -98.650; -646.000; -593.000
347.175;    6.125;  259.000;   27.000
347.309;  -84.400; -698.000; -628.000
347.442; -104.300; -883.000; -732.000
347.576;  250.800;  670.000;  668.000
347.709;  165.650; -123.000;  -52.000
347.843; -106.200; -933.000; -825.000
347.976;   31.975;  235.000;  294.000
348.110; -177.475;-1268.000;-1186.000
348.243; -112.950; -679.000; -772.000
348.377;    2.250;  -26.000;   60.000
348.510;   56.025;  403.000;  540.000
348.644;  -31.950;  -37.000; -159.000
348.777;   -4.150;  180.000;  191.000
348.911;  -55.425; -142.000; -112.000
349.044;  135.250;  471.000;  448.000
349.178;  100.425;-1069.000;-1006.000
349.311;  101.025;  141.000;  255.000
349.444;  -10.450; -927.000; -813.000
349.578;  -50.750; -347.000; -200.000
349.711; -119.550; -959.000; -862.000
349.845;  -19.825; -661.000; -591.000
349.978; -155.100;-1224.000;-1137.000
350.111;  -97.025; -546.000; -612.000
350.244;  -88.000; -596.000; -700.000
350.378;  -14.125; -392.000; -393.000
350.511;  -76.475; -393.000; -426.000
350.644; -107.775; -808.000; -806.000
350.778;    9.100;  168.000;  104.000
350.911;    5.100;  134.000;  140.000
351.044;  -96.325; -685.000; -615.000
351.177;  -50.375; -321.000; -281.000
351.310;  -24.575;    3.000; -131.000
351.444;  -92.175; -888.000; -788.000
351.577;   89.300;  140.000;   90.000
351.710;   95.175;  593.000;  417.000
351.843;  -38.400; -165.000;  -77.000
351.976;    1.775;  149.000;  -79.000
352.109; -100.225; -621.000; -612.000
352.242;  -43.775; -464.000; -419.000
352.376;  -70.550; -580.000; -636.000
352.509;  131.850; -437.000; -356.000
352.642;  -28.925; -654.000; -604.000
352.775;   33.850; -141.000;  -98.000
352.908; -130.850; -933.000; -904.000
353.041; -108.000; -814.000; -824.000
353.174;  -60.975; -551.000; -424.000
353.307;  -94.350; -753.000; -764.000
353.440;   68.850;  541.000;  453.000
353.573; -125.800; -957.000;-1008.000
353.706;  -47.475; -384.000; -558.000
353.839;  -41.200; -264.000; -220.000
353.971;  -92.850; -657.000; -512.000
354.104; -106.100; -896.000; -835.000
354.237;  -38.275; -627.000; -662.000
354.370;  -90.625; -846.000; -879.000
354.503; -186.075;-1231.000;-1308.000
354.636;  -62.825; -529.000; -348.000
354.769; -139.425; -937.000; -860.000
354.902;  -25.050; -230.000; -139.000
355.034;  -24.750; -164.000; -220.000
355.167;  -25.750; -262.000; -162.000
355.300;  -88.625;-1061.000; -880.000
355.433;  975.800;  -71.000;  -14.000
355.565; 1514.200; -402.000; -384.000
355.698;  380.825; -356.000; -296.000
355.831;  -18.400; -882.000; -801.000
355.964;   68.150; -285.000; -170.000
356.096;  -86.125; -856.000; -843.000
356.229;  -20.475; -523.000; -530.000
356.362;  330.950; -373.000; -266.000
356.494;  614.350; -229.000; -162.000
356.627;  411.775;  269.000;  377.000
356.760;  650.775;  120.000;   53.000
356.892;  997.000; -286.000; -601.000
357.025;  571.550;  403.000;  389.000
357.157;  464.125; -167.000; -179.000
357.290;  731.900; -856.000; -713.000
357.423;  200.175; -667.000; -556.000
357.555;  101.675; -217.000; -228.000
357.688;   87.800; -483.000; -364.000
357.820;  396.550; -870.000; -877.000
357.953; 3345.325; -563.000; -589.000
358.085;  666.650; -632.000; -612.000
358.218;  829.975;-1131.000; -932.000
358.350;  146.675;  -58.000;  312.000
358.483; -137.350;-1300.000;-1187.000
358.615;  -61.725;-1182.000;-1078.000
358.747;  -96.800;-1187.000;-1058.000
358.880;   -7.475; -810.000; -744.000
359.012;  -23.150; -376.000; -202.000
359.145;  -45.000; -480.000; -511.000
359.277;   22.950; -962.000; -913.000
359.409; 2743.400;  536.000;  231.000
359.542;  688.550; -738.000; -688.000
359.674;   55.700;   46.000;   13.000
359.806;  -58.000; -565.000; -438.000
359.939;  -34.400; -617.000; -516.000
360.071;  -10.250; -583.000; -579.000
360.203;  -25.075; -411.000; -364.000
360.335;   43.525;  164.000;  -16.000
360.468;  155.825; -249.000; -307.000
360.600; 2255.650; -547.000; -454.000
360.732; 2956.750; -546.000; -423.000
360.864;  380.950;-1216.000;-1044.000
360.996;  188.925; -516.000; -554.000
361.129;   28.275; -389.000; -598.000
361.261;    6.875;  110.000; -113.000
361.393;  -31.750; -252.000; -214.000
361.525;   24.825;   94.000;  244.000
361.657;  -59.925; -821.000; -703.000
361.789;  -10.350; -139.000; -155.000
361.921;  160.125; -642.000; -593.000
362.053;  206.175;  524.000;  541.000
362.185;   32.225;  288.000;   72.000
362.318; -103.625; -709.000; -705.000
362.450;   96.800;  294.000;  444.000
362.582;   33.125; -913.000; -870.000
362.714;  -44.750; -353.000; -332.000
362.846; -105.175; -606.000; -490.000
362.978; -143.950; -941.000; -811.000
363.109;   17.600; -161.000; -260.000
363.241;  345.375; -739.000; -749.000
363.373;  436.400; -649.000; -564.000
363.505;  696.425; -186.000;  -91.000
363.637;  146.050; -787.000; -601.000
363.769; -131.425;-1067.000;-1080.000
363.901;  -88.100; -596.000; -654.000
364.033; -141.825;-1103.000;-1062.000
364.165;   -3.450; -283.000; -283.000
364.296;   66.175; -316.000; -177.000
364.428;   65.375;-1344.000;-1220.000
364.560;  -79.650; -679.000; -661.000
364.692;  -79.475; -738.000; -835.000
364.824;  180.700; -588.000; -456.000
364.955;  426.525; -402.000; -564.000
365.087; 1004.575;-1097.000; -852.000
365.219;   28.725; -686.000; -816.000
365.351;  -86.675; -526.000; -572.000
365.482;   41.975;  300.000;  240.000
365.614;  -57.325; -402.000; -314.000
365.746; -116.850; -729.000; -752.000
365.877; -102.725; -706.000; -672.000
366.009;  272.125;  -35.000;  -62.000
366.141; -100.500;-1249.000;-1134.000
366.272; -129.275; -803.000; -719.000
366.404; -113.575;-1005.000; -874.000
366.535;  -34.400; -139.000;  -12.000
366.667; -110.575; -644.000; -649.000
366.799;   39.550;  353.000;  203.000
366.930; -139.375; -862.000; -996.000
367.062;  121.350; -639.000; -613.000
367.193;  149.625; -872.000; -842.000
367.325;  -68.725; -580.000; -684.000
367.456;   14.500; -246.000;   31.000
367.588;  162.725; -371.000; -318.000
367.719;   -2.275;  -44.000;  -45.000
367.851;  -26.200; -222.000; -241.000
367.982;  -69.500; -875.000; -732.000
368.113;   53.900; -475.000; -358.000
368.245; -133.650; -960.000; -841.000
368.376;  -33.775; -254.000; -302.000
368.508;  -54.950; -188.000; -263.000
368.639; -149.400;-1166.000;-1034.000
368.770;  -33.350; -670.000; -589.000
368.902;  -79.925; -836.000; -926.000
369.033; -109.650; -906.000; -855.000
369.164;  -64.975; -720.000; -653.000
369.296; -119.700; -452.000; -601.000
369.427;  -14.725; -209.000; -144.000
369.558;  -53.450; -593.000; -377.000
369.689;  -88.450; -721.000; -569.000
369.821; -139.275; -951.000; -845.000
369.952;  -24.850;   42.000; -108.000
370.083;  -52.075; -229.000; -108.000
370.214;  -92.825; -735.000; -650.000
370.345;  -16.400;   65.000;   81.000
370.477; -107.225; -810.000; -790.000
370.608;  166.500; -328.000; -264.000
370.739;  -80.675;-1233.000;-1292.000
370.870;  -69.075;-1102.000; -923.000
371.001;   53.650; -378.000; -467.000
371.132;  -87.400; -754.000; -735.000
371.263;  -30.500;  -42.000; -148.000
371.394; -141.400; -841.000; -748.000
371.525;   33.525;  345.000;  225.000
371.657; -104.475; -808.000; -670.000
371.788;   55.300;  103.000;  199.000
371.919;  135.750; -384.000; -304.000
372.050; 3184.500;  -91.000; -156.000
372.181;  895.975; -188.000; -294.000
372.311;  297.600;   42.000; -127.000
372.442;    7.875; -457.000; -451.000
372.573;  -26.775; -444.000; -340.000
372.704; -129.850;-1008.000; -980.000
372.835;   54.675; -228.000; -289.000
372.966;  -64.475; -646.000; -554.000
373.097;  -88.975; -575.000; -711.000
373.228;  -62.600; -717.000; -542.000
373.359;   83.475; -824.000; -536.000
373.490;  756.075; -881.000; -727.000
373.620;  925.150;-1001.000; -803.000
373.751; 1488.500; -332.000; -396.000
373.882;  623.975; -663.000; -733.000
374.013;   32.775; -449.000; -262.000
374.143;  -64.900; -581.000; -659.000
374.274; -128.900; -987.000; -908.000
374.405;  136.000; -388.000; -276.000
374.536;  347.775; -526.000; -387.000
374.666;  875.575; -759.000; -807.000
374.797;  167.125; -817.000; -868.000
374.928;  670.750; -710.000; -560.000
375.058;  712.275; -535.000; -500.000
375.189;   21.525;  -59.000;  -93.000
375.320; -123.675; -928.000;-1034.000
375.450;  -57.975; -625.000; -616.000
375.581;  -55.400; -526.000; -436.000
375.712;  -42.775; -574.000; -250.000
375.842;  220.500; -438.000; -415.000
375.973;  150.850; -554.000; -513.000
376.103;  -72.975; -665.000; -648.000
376.234;  -81.125; -531.000; -552.000
376.364;  -64.700; -944.000; -867.000
376.495;  259.225;  925.000;  529.000
376.625;  -40.775; -472.000; -485.000
376.756;   30.725; -709.000; -678.000
376.886; -109.725;-1178.000;-1026.000
377.017;   50.475;-1048.000;-1061.000
377.147;  370.675; -786.000; -782.000
377.278;   46.050;  174.000;  228.000
377.408; -125.225; -801.000; -815.000
377.538; -113.700; -707.000; -693.000
377.669;  -96.975; -537.000; -613.000
377.799; -101.750; -645.000; -635.000
377.929;  -62.600; -610.000; -428.000
378.060; -141.725; -781.000; -847.000
378.190;  -64.275; -726.000; -531.000
378.320;  -66.825; -401.000; -406.000
378.451;  -35.725; -131.000;  -22.000
378.581;  -26.625;  -67.000; -110.000
378.711;  130.175; 1035.000;  866.000
378.841;  -49.825; -533.000; -675.000
378.972;  -92.750; -871.000; -751.000
379.102;  -28.300; -652.000; -579.000
379.232;  -35.400; -126.000;  -73.000
379.362; -123.925;-1001.000; -885.000
379.492;   -6.550; -373.000; -424.000
379.623;   66.700;    0.000;  111.000
379.753; -120.400;-1107.000; -974.000
379.883;  162.375;   59.000;  156.000
380.013;  -33.000;-1081.000;-1017.000
380.143; -127.400;-1097.000;-1056.000
380.273; -115.800; -985.000; -861.000
380.403;  -16.750; -344.000; -257.000
380.533;  -48.625; -651.000; -664.000
380.663;   60.100;  173.000;  128.000
380.793; -121.200;-1027.000;-1074.000
380.923;  -27.575; -103.000;  -34.000
381.053;  -94.375; -613.000; -623.000
381.183;  -43.650; -106.000; -248.000
381.313;   -2.950; -656.000; -470.000
381.443;   10.575; -692.000; -473.000
381.573;  148.450; -402.000; -409.000
381.703;  180.475;-1249.000;-1095.000
381.833; -151.275;-1454.000;-1336.000
381.963;   97.050; -134.000;  -87.000
382.093; 1191.975; -925.000; -909.000
382.223;  357.700; -713.000; -602.000
382.353;  -14.400; -801.000; -608.000
382.482;  292.475;-1091.000; -964.000
382.612;  631.775; -872.000; -644.000
382.742;  350.900; -695.000; -622.000
382.872;  177.550; -565.000; -551.000
383.002;   44.525;  347.000; -132.000
383.131;  -22.725; -226.000; -160.000
383.261;  -47.225; -706.000; -768.000
383.391;  278.475; -552.000; -377.000
383.521; 3407.225;  451.000;  263.000
383.650;  793.350; -947.000; -904.000
383.780;  -22.575; -783.000; -656.000
383.910;   84.375;  880.000;  802.000
384.039;  -23.475; -794.000; -656.000
384.169;  144.525;-1205.000;-1017.000
384.299;  -44.425; -650.000; -662.000
384.428;  -99.300; -764.000; -680.000
384.558;  -58.400; -308.000; -275.000
384.687;  -79.800; -414.000; -334.000
384.817;  -12.675;   75.000;   -2.000
384.947;   -1.800; -234.000; -141.000
385.076;  261.900;  982.000;  912.000
385.206;   77.250;  369.000;  480.000
385.335;  -54.125; -549.000; -417.000
385.465; -102.325; -655.000; -663.000
385.594;   69.525;  -53.000;  -44.000
385.724;  318.225; -868.000; -838.000
385.853;   81.225; -296.000; -270.000
385.982; 1158.375; -743.000; -787.000
386.112; 1808.750;-1052.000; -871.000
386.241;   93.850; -307.000; -312.000
386.371;    3.225; -174.000;  -87.000
386.500;  -29.725; -825.000; -789.000
386.629;    0.825; -874.000; -817.000
386.759;   47.700;  -43.000;   68.000
386.888;  -26.400; -170.000; -250.000
387.017;  -87.550; -648.000; -620.000
387.147; -100.075; -771.000; -798.000
387.276;  -25.325; -410.000; -397.000
387.405;  -15.700; -398.000; -342.000
387.535;  -62.175; -452.000; -361.000
387.664;  -71.100; -692.000; -620.000
387.793;   37.600; -198.000; -113.000
387.922;  403.925;  255.000;  200.000
388.052;  -15.675; -576.000; -423.000
388.181;  -16.200; -342.000; -472.000
388.310;  -47.825; -889.000; -710.000
388.439;  -73.500; -749.000; -742.000
388.568;  133.200;  365.000;  244.000
388.697;  847.175; -756.000; -653.000
388.826;  138.900; -768.000; -666.000
388.956;   32.700; -285.000; -307.000
389.085;  -41.025; -347.000; -287.000
389.214; -127.025; -842.000; -872.000
389.343;  -74.725; -645.000; -413.000
389.472;  409.800;  126.000;  149.000
389.601;  497.425;   91.000;    0.000
389.730;   -7.700; -568.000; -687.000
389.859;   44.925;  226.000;   46.000
389.988;  141.750; -423.000; -408.000
390.117;  118.475; -168.000; -146.000
390.246;  -21.575; -331.000; -320.000
390.375;   60.500; -673.000; -626.000
390.504;  -78.250; -703.000; -621.000
390.633; -111.450; -672.000; -726.000
390.761;  -93.975; -732.000; -645.000
390.890;    6.825;   -4.000; -130.000
391.019;  -57.275; -421.000; -441.000
391.148; -137.450; -826.000; -855.000
391.277;  -81.050; -576.000; -493.000
391.406; -110.450; -821.000; -805.000
391.534;   11.675;  574.000; -301.000
391.663;  -85.850; -583.000; -645.000
391.792;  -92.975; -673.000; -701.000
391.921;   57.050;   -3.000;   15.000
392.050;  119.000; -287.000; -228.000
392.178;  -85.325;-1206.000;-1061.000
392.307;   92.150; -758.000; -712.000
392.436;   35.250; -427.000; -641.000
392.564;   11.600;  166.000;   -6.000
392.693; -114.475; -860.000; -682.000
392.822;  142.650; -529.000; -534.000
392.950;   37.975; -880.000; -714.000
393.079;  260.725; -188.000; -328.000
393.208;  -15.700; -488.000; -511.000
393.336;  -23.550; -170.000; -145.000
393.465;  -49.075; -317.000; -199.000
393.593;    1.800;   62.000;   79.000
393.722; -159.325;-1121.000; -916.000
393.850;  -39.400; -188.000;  -61.000
393.979; -163.375; -926.000; -805.000
394.107;  -73.150; -517.000; -537.000
394.236;  -37.275; -570.000; -507.000
394.364;  135.700;  383.000;  206.000
394.493;  200.900; -911.000; -767.000
394.621;  -37.550; -955.000; -916.000
394.750;  737.225; -873.000; -923.000
394.878; 3071.575; -247.000; -149.000
395.007; 4132.250; -721.000; -807.000
395.135;  292.725; -790.000; -721.000
395.263;  -74.950;-1038.000;-1040.000
395.392;   -5.850;  -25.000; -107.000
395.520; -138.125; -818.000; -679.000
395.648;  -97.875; -865.000; -915.000
395.777;  -33.375; -366.000; -405.000
395.905;  -52.425; -449.000; -564.000
396.033;    4.700;  217.000;  172.000
396.162;  365.450; -399.000; -453.000
396.290;  316.850;  -17.000;   -2.000
396.418;   48.875; -555.000; -514.000
396.546;  -86.975; -571.000; -466.000
396.674; -112.950; -850.000; -878.000
396.803;   -8.925;  -72.000;  -23.000
396.931;   44.300; -179.000; -199.000
397.059;   -8.175;-1026.000; -989.000
397.187; -129.000;-1026.000; -975.000
397.315; -151.950; -884.000; -649.000
397.443; -115.850; -592.000; -443.000
397.572; -100.675; -578.000; -424.000
397.700;  -50.000; -607.000; -614.000
397.828;  -17.050;  120.000;  -90.000
397.956;  -44.325; -508.000; -478.000
398.084;  -77.375; -767.000; -626.000
398.212;   21.275;  137.000;  124.000
398.340;    3.150;  -56.000;  159.000
398.468;    1.050; -390.000; -169.000
398.596; -157.225; -993.000; -953.000
398.724; -134.125; -762.000; -767.000
398.852; -178.175;-1024.000; -976.000
398.980;  -75.000; -560.000; -560.000
399.108;  -59.425; -982.000; -735.000
399.236;   21.250;   13.000;    8.000
399.363;    9.325;  222.000;  196.000
399.491;  -79.225; -404.000; -398.000
399.619; -127.900; -829.000; -800.000
399.747; -112.350; -859.000; -771.000
399.875;   47.275;  220.000;  234.000
400.003;  -61.600; -359.000; -284.000
400.130;  -91.450; -421.000; -341.000
400.258;  -33.400;  -83.000;   38.000
400.386;  -80.725; -352.000; -168.000
400.514;  -69.275; -526.000; -587.000
400.641; -106.200; -928.000; -802.000
400.769; -154.925; -979.000; -888.000
400.897; -128.025; -838.000; -793.000
401.025;  -28.750; -166.000; -152.000
401.152;  -18.425;  220.000;   38.000
401.280;  -81.300; -430.000; -429.000
401.408; -127.200; -712.000; -576.000
401.535; -112.600; -735.000; -758.000
401.663; -192.125;-1134.000;-1054.000
401.790;  -91.500; -514.000; -525.000
401.918;   29.250;  436.000;  405.000
402.046;  -26.100;  134.000;  122.000
402.173;  -56.125;  -18.000;    7.000
402.301;  -90.225; -519.000; -397.000
402.428;   33.250;  528.000;  383.000
402.556; -156.200;-1188.000; -913.000
402.683;  -41.900;  -20.000;   -1.000
402.811;  -29.475;  -37.000; -206.000
402.938;  -15.700;   20.000;   27.000
403.066;  145.950; -574.000; -558.000
403.193;  255.975;  299.000;  239.000
403.321;  196.100; -396.000; -574.000
403.448;  238.700;   83.000;   27.000
403.575;  117.575;  -90.000;  -46.000
403.703; -102.900; -732.000; -557.000
403.830;  -72.925; -531.000; -496.000
403.957; -159.100;-1117.000;-1023.000
404.085;   11.800;  -61.000; -172.000
404.212;   94.650;  -50.000;   63.000
404.339;  275.050; -566.000; -306.000
404.467; 6057.675; -612.000; -524.000
404.594; 3740.425; -287.000; -227.000
404.721;  804.250; -869.000; -764.000
404.848;   74.700; -113.000; -202.000
404.976; -118.975; -856.000; -783.000
405.103;  -18.000;  -14.000;  -82.000
405.230;   -4.650;  190.000;  226.000
405.357;   22.550;  117.000;   44.000
405.484;  287.375;  -49.000;    5.000
405.612;   43.150; -548.000; -563.000
405.739;  -70.700; -488.000; -243.000
405.866;   71.075;  669.000;  385.000
405.993;  -54.550; -398.000; -102.000
406.120; -142.875; -801.000; -887.000
406.247;  -71.500; -323.000; -342.000
406.374;  342.225;  540.000;  629.000
406.501;   33.200; -632.000; -702.000
406.628;  -84.000; -621.000; -589.000
406.755;  -94.375; -803.000; -620.000
406.882;  -41.575; -228.000; -277.000
407.009; -113.675; -719.000; -628.000
407.136;    6.475; -480.000; -401.000
407.263;   50.175; -939.000; -829.000
407.390; -107.050; -692.000; -614.000
407.517; -200.300;-1139.000;-1187.000
407.644;  -75.450; -332.000; -256.000
407.771;  -81.400; -249.000; -287.000
407.898;  -12.075;  168.000;  328.000
408.025;  -82.400; -421.000; -313.000
408.151;  -21.650;   82.000;  153.000
408.278;  -83.375; -267.000; -216.000
408.405; -125.025; -931.000; -899.000
408.532;  -85.650; -549.000; -542.000
408.659; -124.075; -677.000; -648.000
408.785; -202.350;-1298.000;-1170.000
408.912;  -70.550; -412.000; -296.000
409.039; -134.175; -610.000; -686.000
409.166; -114.700; -591.000; -555.000
409.292; -124.275; -571.000; -534.000
409.419; -133.625; -665.000; -649.000
409.546;  -92.050; -431.000; -192.000
409.672; -121.550; -713.000; -545.000
409.799;  -28.075;  -36.000;   34.000
409.926;  -56.925; -180.000; -179.000
410.052; -186.400;-1127.000;-1091.000
410.179;  -75.000; -368.000; -392.000
410.305;  -99.425; -375.000; -493.000
410.432;  -51.800; -220.000; -333.000
410.558;  -94.200; -305.000; -380.000
410.685; -115.200; -688.000; -431.000
410.812; -105.850; -409.000; -588.000
410.938; -153.525; -964.000; -808.000
411.065; -107.050; -671.000; -645.000
411.191;  -33.650; -189.000; -174.000
411.317; -133.000; -823.000; -742.000
411.444;  -75.325; -317.000; -246.000
411.570;  -77.075; -339.000; -294.000
411.697; -133.725; -758.000; -752.000
411.823; -177.150; -989.000; -999.000
411.949;  -57.975;  -56.000;   17.000
412.076; -128.425; -539.000; -519.000
412.202; -129.775; -758.000; -757.000
412.329; -135.650; -798.000; -752.000
412.455; -128.900; -821.000; -657.000
412.581;  -39.000;  -15.000;  172.000
412.707;  -84.700; -540.000; -457.000
412.834;    3.850;  156.000;  219.000
412.960;  -92.900; -785.000; -784.000
413.086; -107.250; -743.000; -701.000
413.212;  121.025;  604.000;  578.000
413.339;  -84.700; -685.000; -701.000
413.465;  -30.250; -364.000; -310.000
413.591; -103.950; -757.000; -474.000
413.717;  -70.550; -358.000; -366.000
413.843; -144.200; -839.000; -861.000
413.969;  -61.375;  -47.000; -292.000
414.096; -110.125; -679.000; -679.000
414.222;  -18.600;  -33.000;   85.000
414.348;  -47.875; -652.000; -385.000
414.474;   60.950;   38.000;  -52.000
414.600;  -29.775; -126.000; -144.000
414.726;  -24.875;  -96.000;  -55.000
414.852;  -51.750; -365.000; -342.000
414.978;   17.400;  104.000;  -18.000
415.104;   41.275;   38.000;   80.000
415.230;   10.050; -329.000; -330.000
415.356;   34.725; -409.000; -514.000
415.482;  199.975;   13.000;  -35.000
415.608;  272.800; -247.000; -323.000
415.734;  988.325;   67.000;   38.000
415.860;20627.050; -875.000; -767.000
415.986;14510.800; -685.000; -607.000
416.111; 1250.750; -798.000; -652.000
416.237;  253.675; -424.000; -571.000
416.363; 1217.875; -765.000; -733.000
416.489; 4374.325; -324.000; -251.000
416.615;  431.150; -707.000; -742.000
416.741;  -26.150; -677.000; -784.000
416.866;  -91.675; -673.000; -736.000
416.992; -134.475; -801.000; -818.000
417.118;  -39.100;  -41.000;  -80.000
417.244;  -78.000; -798.000; -531.000
417.369;  -79.125; -801.000; -612.000
417.495;  -22.275; -325.000; -254.000
417.621; -104.600;-1015.000; -803.000
417.746;   -3.350; -579.000; -572.000
417.872;   53.350; -254.000; -144.000
417.998;   55.375; -515.000; -530.000
418.123; 1113.075;-1073.000; -845.000
418.249; 5629.825; -512.000; -601.000
418.374;  771.500; -916.000; -824.000
418.500;  102.675; -383.000; -482.000
418.626;  108.775;   70.000;  -59.000
418.751;  113.625; -549.000; -448.000
418.877;  185.625; -637.000; -643.000
419.002; 1909.400; -688.000; -560.000
419.128;13137.925; -930.000; -721.000
419.253; 3111.500; -967.000; -837.000
419.379;  431.525; -391.000; -338.000
419.504;  400.200;  325.000;  415.000
419.629;  533.850; -393.000; -212.000
419.755; 3888.100; -317.000; -254.000
419.880;22563.400;  -98.000;   67.000
420.006;12017.050; -280.000; -221.000
420.131;30422.800; -662.000; -775.000
420.256; 4256.900; -315.000; -316.000
420.382;  545.050; -665.000; -687.000
420.507;   59.700; -649.000; -778.000
420.632;   85.325; -337.000; -339.000
420.758;  166.000; -251.000; -425.000
420.883;  -95.575; -876.000; -672.000
421.008; -108.950; -775.000; -619.000
421.133;  -91.675; -509.000; -467.000
421.259;  -62.275; -325.000; -259.000
421.384; -128.050; -834.000; -693.000
421.509;  -73.650;-1052.000; -862.000
421.634;  869.700; -936.000; -820.000
421.759;  352.200; -359.000; -327.000
421.885;  -89.100; -717.000; -656.000
422.010;  -97.350; -673.000; -542.000
422.135; -149.925; -695.000; -727.000
422.260;   25.100;  340.000;  280.000
422.385;  -49.450;   12.000;  -98.000
422.510;   -5.150;  151.000;  -26.000
422.635;   -1.550;  -87.000;  -43.000
422.760;   68.675; -766.000; -791.000
422.885;   41.900;  -57.000;  -80.000
423.010;  -34.175; -112.000; -169.000
423.135; -103.250; -481.000; -561.000
423.260;  -30.825; -150.000; -245.000
423.385;   50.775;  476.000;  222.000
423.510;   10.375;   71.000;  -22.000
423.635;   52.575;  133.000;   45.000
423.760;   37.550;  383.000;  328.000
423.885;   36.975;  336.000;  391.000
424.010;    3.175;  -68.000;  -13.000
424.135;  -19.800;    5.000;  -33.000
424.259;  -90.300; -654.000; -457.000
424.384;  -72.625; -279.000; -272.000
424.509;  -38.525; -260.000; -186.000
424.634; -105.250; -761.000; -623.000
424.759;  -25.725; -688.000; -544.000
424.883;  -24.825; -506.000; -527.000
425.008;  172.875; -502.000; -410.000
425.133; 2074.850; -679.000; -653.000
425.258;  939.150; -517.000; -381.000
425.382;  898.900; -867.000; -774.000
425.507; 2280.350; -487.000; -543.000
425.632;  393.000; -802.000; -663.000
425.756;  457.550; -256.000; -146.000
425.881; 7277.025; -831.000; -857.000
426.006;19098.400; -604.000; -355.000
426.130; 2857.900; -696.000; -508.000
426.255;  345.500; -611.000; -491.000
426.379;  155.950; -189.000; -577.000
426.504;  391.950;  660.000;  544.000
426.629; 4204.500; -519.000; -466.000
426.753; 2756.675;   64.000;  -46.000
426.878;  322.150; -252.000; -288.000
427.002;  168.550; -651.000; -668.000
427.127; 1656.450;  -35.000; -158.000
427.251;11983.250;  372.000;  401.000
427.375; 3284.050; -191.000; -173.000
427.500; 2070.025; -616.000; -610.000
427.624;  669.350; -234.000; -400.000
427.749;   69.350; -216.000; -225.000
427.873;  -48.475; -499.000; -412.000
427.997;  -53.700; -222.000; -230.000
428.122;   64.375;  795.000;  703.000
428.246;   62.325;  433.000;  434.000
428.371; -133.500; -869.000; -773.000
428.495; -114.575; -624.000; -646.000
428.619;  -36.925; -186.000; -117.000
428.743;    7.125;   65.000;  132.000
428.868;   -6.750; -732.000; -643.000
428.992; 1197.600; -219.000; -326.000
429.116;  448.200; -329.000; -357.000
429.240;  203.875;  419.000;  426.000
429.365;  -48.600; -454.000; -574.000
429.489;  -53.600; -638.000; -647.000
429.613;   10.100; -236.000; -177.000
429.737;   24.025; -563.000; -432.000
429.861;  274.925; -247.000; -133.000
429.985; 5891.425; -425.000; -305.000
430.109; 6272.350; -770.000; -908.000
430.234;  694.900;   76.000;  -50.000
430.358;   28.300; -250.000; -160.000
430.482;  -78.375; -672.000; -564.000
430.606;  -77.550; -655.000; -375.000
430.730;  -16.725; -437.000; -388.000
430.854;   47.575; -909.000; -835.000
430.978;  -88.075; -795.000; -764.000
431.102; -100.950; -499.000; -422.000
431.226; -138.425; -874.000; -815.000
431.350;   14.750;  345.000;  422.000
431.474;  -87.150; -661.000; -373.000
431.597; -160.325;-1060.000; -848.000
431.721;  -80.650; -276.000; -267.000
431.845; -137.725; -704.000; -472.000
431.969;  -80.000; -304.000; -349.000
432.093;  -96.450; -395.000; -317.000
432.217;  -19.375;   32.000;   82.000
432.341;  -87.225; -523.000; -518.000
432.464;  -16.150;   96.000;   40.000
432.588;  136.025; -401.000; -329.000
432.712;   73.900;  -52.000;  -52.000
432.836;   41.125;  213.000;  263.000
432.959;  -20.800; -372.000; -311.000
433.083;   74.275;   11.000;    2.000
433.207;  379.550;  285.000;  930.000
433.330; 5377.550; -391.000; -200.000
433.454; 6505.600; -654.000; -638.000
433.578; 3724.450;  583.000;  278.000
433.701;  646.050; -623.000; -675.000
433.825;  129.175; -292.000; -299.000
433.949;  102.075;   28.000;  -72.000
434.072;   12.525; -410.000; -323.000
434.196;   -5.925; -309.000; -117.000
434.319; 3760.350;25482.000;25124.000
434.443;  720.125; -656.000; -603.000
434.566; 2745.875;  281.000;   62.000
434.690;  418.250; -637.000; -383.000
434.813;   51.300; -251.000; -173.000
434.937;  -77.825; -569.000; -696.000
435.060;  -62.075; -423.000; -332.000
435.184;  183.025; -492.000; -217.000
435.307;   87.850;  159.000;  102.000
435.431;  -30.950;  -40.000;   24.000
435.554;  -76.925; -399.000; -240.000
435.677;  -92.550; -350.000; -258.000
435.801;  -50.675;  -25.000;   49.000
435.924;  -23.500;    1.000;  -67.000
436.048; -140.450;-1019.000; -732.000
436.171;  -86.300; -240.000;  -66.000
436.294;  -33.850; -248.000; -229.000
436.417;   94.875; -963.000; -849.000
436.541;  -85.975; -814.000; -840.000
436.664;  -55.800; -242.000; -316.000
436.787;  -40.925;   13.000;  113.000
436.910; -117.675; -792.000; -422.000
437.034;  -14.625;  142.000;  143.000
437.157;   11.775;  -11.000;    0.000
437.280;  -65.350; -392.000; -292.000
437.403; -111.675; -982.000; -869.000
437.526;  434.725; -903.000; -865.000
437.649; 1634.675; -505.000; -332.000
437.772;  176.925; -692.000; -540.000
437.896;   85.350;  700.000;  544.000
438.019; -112.775; -758.000; -503.000
438.142;  -91.550; -596.000; -506.000
438.265;  -49.100; -639.000; -670.000
438.388;  402.325; -520.000; -410.000
438.511;   46.475; -597.000; -394.000
438.634;  -54.900; -247.000; -125.000
438.757; -155.250; -693.000; -619.000
438.880;  -31.350;  -34.000;  -57.000
439.003;  -84.950; -417.000; -437.000
439.126;  -77.550; -287.000; -167.000
439.248;  -65.375;  -98.000; -139.000
439.371;  -56.375;    9.000;  -53.000
439.494;   11.750;  510.000;  439.000
439.617;  -58.975;   65.000;  -88.000
439.740; -191.525; -968.000; -816.000
439.863; -147.575; -755.000; -595.000
439.986; -126.275; -476.000; -431.000
440.108;  -42.275; -161.000; -112.000
440.231; -166.700; -950.000; -836.000
440.354;  -63.850;  -64.000; -150.000
440.477;   -7.650; -566.000; -542.000
440.599;  -32.350; -200.000; -225.000
440.722; -140.900; -709.000; -586.000
440.845;   68.400;  751.000;  928.000
440.968; -114.150; -415.000; -311.000
441.090;  -73.075; -199.000;  -33.000
441.213; -196.725;-1021.000; -825.000
441.336;  -61.925; -159.000;   -5.000
441.458;  -89.375; -549.000; -396.000
441.581; -107.850; -628.000; -629.000
441.703;  -76.750; -152.000;   13.000
441.826; -116.525; -557.000; -400.000
441.948;  -61.725;   56.000;   51.000
442.071;   25.100;  555.000;  424.000
442.193; -135.600; -531.000; -485.000
442.316;   16.425;  152.000;   97.000
442.438;   45.300; -233.000;  -10.000
442.561;   46.300;  272.000;  262.000
442.683;  360.250; -809.000; -522.000
442.806;  832.125;   -8.000;   74.000
442.928;  -46.025; -859.000; -604.000
443.051;  -89.800; -577.000; -373.000
443.173;  -91.975; -341.000; -339.000
443.295;  -89.725; -263.000; -371.000
443.418;  -71.500; -321.000;  -29.000
443.540;  -14.525; -106.000;   -4.000
443.662; -120.350; -563.000; -465.000
443.785;  -21.050;  335.000;  199.000
443.907; -115.125; -362.000; -208.000
444.029; -136.300; -767.000; -494.000
444.152; -149.250; -644.000; -554.000
444.274;  -38.750;  -18.000;  -24.000
444.396; -121.675; -461.000; -221.000
444.518; -123.075; -691.000; -454.000
444.640; -116.225; -268.000; -111.000
444.763;  -18.575;  388.000;  249.000
444.885; -124.075; -432.000; -392.000
445.007;  -45.125;   35.000;   86.000
445.129; -123.300; -610.000; -515.000
445.251; -108.675; -372.000; -439.000
445.373; -147.925; -537.000; -386.000
445.495;    3.350;  242.000;  350.000
445.617;   41.225;  853.000;  753.000
445.739;  -94.325; -215.000;  -97.000
445.861;  -47.050; -245.000; -112.000
445.984;  -53.075; -267.000; -101.000
446.105;  132.100; -418.000; -251.000
446.227;  466.375; -176.000;  -19.000
446.349;  -26.725; -358.000; -249.000
446.471; -116.975; -615.000; -448.000
446.593;  -66.400; -316.000;   19.000
446.715;  -19.875;  -67.000;   41.000
446.837;   65.050;  697.000;  832.000
446.959; -102.500; -457.000; -478.000
447.081; -149.275; -628.000; -518.000
447.203;   53.650;  862.000;  834.000
447.325;  -87.425; -270.000;   42.000
447.446;  -19.825;  286.000;  530.000
447.568; -176.650; -921.000; -803.000
447.690; -104.725; -236.000; -245.000
447.812; -162.475; -798.000; -519.000
447.933;  -35.125;  155.000;  127.000
448.055;  -72.650; -306.000; -261.000
448.177;   97.225;   31.000;   79.000
448.299;    5.950; -935.000; -727.000
448.420;   18.625;  -25.000;  159.000
448.542;  -60.750;   -3.000;   33.000
448.664;  -34.875;  109.000;  322.000
448.785;  -42.775;  265.000;   83.000
448.907;  -89.050; -614.000; -353.000
449.028;  -57.150; -771.000; -471.000
449.150;   49.600;  492.000;  589.000
449.272; -186.425;-1044.000; -913.000
449.393;   22.425;  612.000;  694.000
449.515; -161.925; -634.000; -581.000
449.636;  -84.475; -264.000; -155.000
449.758;   56.550;  763.000;  622.000
449.879; -103.275; -498.000; -396.000
450.001;  -80.125; -149.000;  -49.000
450.122;  -43.875;  -95.000;  162.000
450.244;  -34.300;   37.000;  364.000
450.365; -103.625; -495.000; -301.000
450.486;  -32.450;   80.000;  268.000
450.608;   -1.050;  393.000;  326.000
450.729;   59.975;  578.000;  645.000
450.850;    4.575; -574.000; -466.000
450.972;  823.425; -552.000; -389.000
451.093; 5282.500;  190.000;  588.000
451.214; 2207.675; -516.000; -337.000
451.336;  367.000;  773.000;  579.000
451.457;   64.300;  264.000;  393.000
451.578;  -36.075; -118.000;  -74.000
451.699; -122.025; -546.000; -540.000
451.821;  -63.350; -284.000;  -50.000
451.942;    2.675;  278.000;  285.000
452.063;   42.200;  228.000;  419.000
452.184;  592.875;  -54.000;  -49.000
452.305; 1119.075;  103.000;  170.000
452.427;  132.725; -549.000; -301.000
452.548;  -32.225;   23.000;   79.000
452.669;  -71.250; -257.000;  -89.000
452.790;  -63.700;    3.000;  -18.000
452.911;  -15.675;  195.000;  259.000
453.032;  -69.775; -289.000;  -60.000
453.153;  -62.575;  -29.000;   81.000
453.274;   53.375;  737.000;  868.000
453.395;  -57.250;  -51.000;  175.000
453.516;  112.450; 1317.000; 1388.000
453.637;  -78.125; -205.000; -150.000
453.758;  -71.600;   15.000;   69.000
453.879; -121.850; -462.000; -250.000
454.000;   71.400; 1086.000;  948.000
454.121; -127.850; -554.000; -326.000
454.242; -128.725; -599.000; -383.000
454.362;  -53.475;  -99.000;  114.000
454.483;  -53.675; -309.000; -229.000
454.604;   49.100;  512.000;  580.000
454.725; -145.650; -627.000; -555.000
454.846; -119.825; -474.000; -406.000
454.967;  -16.525;  230.000;  539.000
455.087;  -42.225;  179.000;  153.000
455.208;   14.725;  554.000;  856.000
455.329;  -65.575;  -22.000;   82.000
455.450;   49.650;  473.000;  633.000
455.570;  -73.650; -234.000; -211.000
455.691;  -44.450;  201.000;  407.000
455.812; -119.575; -270.000;  -92.000
455.932;  -70.725;  107.000;  -97.000
456.053;  -86.775;   36.000;   24.000
456.173; -124.400; -433.000; -355.000
456.294; -142.750; -476.000; -303.000
456.415;  -69.125;  -73.000;   70.000
456.535;  -36.150;  297.000;  273.000
456.656;  -49.200;  132.000;  240.000
456.776;  -60.250;    3.000;  298.000
456.897;  -15.700;  308.000;  513.000
457.017;  -68.725; -153.000;   -3.000
457.138; -120.400; -402.000; -249.000
457.258;  -39.625;  263.000;  224.000
457.379;  -20.800;  509.000;  521.000
457.499;  -38.150;  443.000;  432.000
457.620; -120.850; -407.000; -231.000
457.740;  -90.975; -132.000;  -11.000
457.860;  -60.825;   87.000;   44.000
457.981;  -53.200;  132.000;  124.000
458.101; -101.100;  -89.000;   40.000
458.221;  -12.775;  336.000;  402.000
458.342;  -65.250;   -4.000;  -37.000
458.462;   27.075;  617.000;  352.000
458.582;  -43.200; -302.000; -294.000
458.703;    8.975;  303.000;  154.000
458.823;  -18.500;   22.000;  163.000
458.943;   14.425;  341.000;  467.000
459.063;  -16.975; 1124.000;  192.000
459.183;  -16.750;  328.000;  313.000
459.304;   -4.775;  315.000;  517.000
459.424;  -73.825; -246.000;  -89.000
459.544;  345.325;  388.000;  764.000
459.664;  891.425;  499.000;  506.000
459.784;  322.925; 1004.000; 1175.000
459.904;   37.875;  867.000;  744.000
460.024;   69.400;  867.000;  684.000
460.144;   -0.800;  449.000;  554.000
460.264;  -18.150;  515.000;  327.000
460.385;  -93.075; -145.000; -119.000
460.505;   40.300;  905.000;  858.000
460.625; -100.500;  -17.000;  -68.000
460.745;  -22.600;  396.000;  541.000
460.864;  -53.750;  153.000;  469.000
460.984;   -8.175;  499.000;  573.000
461.104;  128.025; 1656.000; 1775.000
461.224;    9.100;  657.000;  650.000
461.344;  -32.075;  431.000;  360.000
461.464;  -41.800;  258.000;  513.000
461.584;  -29.425;  283.000;  466.000
461.704;  -63.225;   58.000;  108.000
461.824;  -75.850;  238.000;  259.000
461.943;  -42.025;  191.000;  130.000
462.063;  -88.450;    2.000;  324.000
462.183;   18.200;  639.000;  717.000
462.303;   96.800; 1678.000; 1230.000
462.422;   25.025;  781.000;  840.000
462.542;  -40.900;  271.000;  391.000
462.662;   16.750;  353.000;  380.000
462.782;  264.325;  833.000;  572.000
462.901;  505.900;  545.000;  717.000
463.021;  277.575; 1702.000; 1638.000
463.141;   -2.775;  337.000;  770.000
463.260;  -23.600;  614.000;  474.000
463.380;   15.400;  902.000;  884.000
463.499;  -57.300;  342.000;  332.000
463.619;  -43.350;  581.000;  559.000
463.738;  107.775; 1644.000;  903.000
463.858;   18.375;  657.000;  811.000
463.978;  -32.650;  542.000;  396.000
464.097;   38.750;  921.000; 1114.000
464.217;  122.725; 1196.000; 1143.000
464.336;  124.875; 1068.000; 1130.000
464.455;  -30.600;  328.000;  659.000
464.575;   22.275;  597.000;  602.000
464.694;  150.275; 1204.000; 1179.000
464.814;  119.675; 1190.000; 1138.000
464.933;   64.425; 1095.000; 1027.000
465.052;   81.900; 1412.000; 1054.000
465.172;   70.900;  922.000;  799.000
465.291;  125.125; 1376.000; 1320.000
465.410;    8.650;  462.000;  735.000
465.530;   75.175; 1355.000; 1310.000
465.649;   56.825; 1209.000; 1273.000
465.768;  137.125; 1673.000; 1508.000
465.888;   48.150;  941.000; 1174.000
466.007;   87.200; 1335.000; 1440.000
466.126;    5.575;  721.000;  641.000
466.245;   38.675; 1176.000; 1187.000
466.364;    6.475;  950.000; 1060.000
466.484;   55.950; 1024.000; 1213.000
466.603;   36.050; 1101.000; 1222.000
466.722;  123.300; 1490.000; 1769.000
466.841;   72.850; 1151.000; 1401.000
466.960;   40.150; 1069.000;  972.000
467.079;  127.600; 1971.000; 1786.000
467.198;   54.625; 1238.000; 1181.000
467.317;   78.900; 1768.000; 1162.000
467.436;   59.750; 1709.000; 1261.000
467.555;  119.650; 1796.000; 1746.000
467.674;   62.300; 1227.000; 1329.000
467.793;   33.825; 1376.000; 1374.000
467.912;   70.675; 1658.000; 1539.000
468.031;  148.050; 2038.000; 1930.000
468.150;  131.850; 1842.000; 1837.000
468.269;  190.250; 2313.000; 2090.000
468.388;  173.400; 2168.000; 2339.000
468.507;  257.325; 2884.000; 2903.000
468.626;  240.300; 2555.000; 2541.000
468.744;  138.600; 2018.000; 2174.000
468.863;  192.150; 2312.000; 2523.000
468.982;   82.825; 1503.000; 1555.000
469.101;  224.250; 2788.000; 2692.000
469.220;  156.625; 2333.000; 2176.000
469.338;  222.550; 2935.000; 3051.000
469.457;  197.950; 2719.000; 2545.000
469.576;  346.975; 3953.000; 3784.000
469.695;  247.900; 2877.000; 3066.000
469.813;  427.000; 4148.000; 4192.000
469.932;  406.900; 4255.000; 4485.000
470.051;  418.725; 4075.000; 4161.000
470.169;  900.475; 4470.000; 4338.000
470.288; 1526.275; 4700.000; 4809.000
470.406;  911.875; 5059.000; 5194.000
470.525;  628.800; 6101.000; 5787.000
470.644;  661.750; 6847.000; 6794.000
470.762;  820.800; 8397.000; 7873.000
470.881;  922.375; 8651.000; 8464.000
470.999; 1039.875; 9685.000; 9151.000
471.118; 1108.125;11174.000;10711.000

