
Integration time [ms]: 100.000
Averaging Nr. [scans]: 40
Smoothing Nr. [pixels]: 0
Data measured with spectrometer [name]: 2101012U2
Wave   ;Sample   ;Dark     ;Reference
[nm]   ;[counts] ;[counts] ;[counts] 

197.733;   62.200;  516.000;  404.000
197.879;  -91.550; -610.000; -634.000
198.025;  -54.600; -475.000; -420.000
198.171;  -73.425; -602.000; -612.000
198.317;  -30.625; -401.000; -316.000
198.463;  -60.975; -655.000; -404.000
198.609;   29.925;  181.000; -137.000
198.755;  -83.250; -644.000; -410.000
198.901;  -61.725; -505.000; -424.000
199.047;  -70.850; -615.000; -488.000
199.193;  -35.175; -230.000; -468.000
199.339;  -56.875; -222.000; -369.000
199.485;   43.125;  330.000;  271.000
199.631;   11.775;  227.000;  310.000
199.777;  -47.250; -466.000; -398.000
199.923;  -75.225; -610.000; -424.000
200.069;   -0.325; -141.000;  -58.000
200.215;   60.025;  128.000;  453.000
200.361;   39.925;  243.000;  477.000
200.507;  -65.525; -600.000; -373.000
200.653;  -27.125; -371.000; -194.000
200.798;  -42.650; -215.000; -125.000
200.944;    3.975; -146.000;  -41.000
201.090;   42.075;   61.000;  222.000
201.236;   -4.500; -116.000; -158.000
201.382;  130.500;  874.000;  903.000
201.528;    2.925;  -58.000;  -48.000
201.674;  -62.100; -386.000; -293.000
201.819;  -53.850; -540.000; -439.000
201.965;  -83.150; -699.000; -447.000
202.111;  -11.400; -273.000; -226.000
202.257;  -36.400; -250.000; -238.000
202.402;    9.925;   13.000;  -36.000
202.548;  -21.975; -169.000; -116.000
202.694;   86.225;  410.000; -183.000
202.840;  -84.925; -603.000; -531.000
202.985;  -68.125; -681.000; -639.000
203.131; -116.475; -832.000; -666.000
203.277;  -18.050; -199.000; -262.000
203.423;  -62.400; -434.000; -520.000
203.568;  -49.150; -462.000; -237.000
203.714;  -59.025; -535.000; -542.000
203.860;  -82.100; -682.000; -641.000
204.005;    8.750;  112.000;  167.000
204.151;   82.600;  561.000;  556.000
204.296;  -47.625; -354.000; -221.000
204.442;  -64.850; -600.000; -547.000
204.588;  -86.600; -592.000; -579.000
204.733;   21.800;  178.000;  168.000
204.879; -125.625;-1018.000; -822.000
205.025;    6.850;  -99.000;  126.000
205.170;   -6.250;  -17.000;   94.000
205.316;   78.300;  438.000;  661.000
205.461;  -88.975; -698.000; -554.000
205.607;   87.475;  609.000;  665.000
205.752;  -84.100; -626.000; -551.000
205.898;  -51.925; -501.000; -391.000
206.043;  -72.425; -578.000; -506.000
206.189;  -46.050; -243.000; -285.000
206.334;   84.075;  554.000;  606.000
206.480;   85.225;  409.000;  239.000
206.625;  -75.300; -529.000; -552.000
206.771;  -40.175; -451.000; -373.000
206.916;  -35.050; -210.000; -537.000
207.062;  -87.000; -545.000; -591.000
207.207;  -67.675; -546.000; -443.000
207.353;   59.175;  185.000;  460.000
207.498;   22.050;  196.000;   85.000
207.643;  -44.800; -501.000; -370.000
207.789; -126.575;-1069.000; -910.000
207.934;  -96.925; -665.000; -713.000
208.080;  -29.450; -154.000;   66.000
208.225;   -3.500;  -22.000;  -57.000
208.370;  -79.375; -727.000; -619.000
208.516;  -80.325; -741.000; -487.000
208.661;  -43.100; -127.000;  -69.000
208.806;  -29.075; -165.000; -171.000
208.952; -124.275;-1044.000; -731.000
209.097;   71.350;  378.000;  349.000
209.242;  -44.775; -307.000; -382.000
209.387;   59.600;  392.000;  350.000
209.533;  -58.425; -321.000; -350.000
209.678;   86.400;  472.000;  543.000
209.823;  -49.925; -408.000; -310.000
209.969; -107.450; -860.000; -757.000
210.114; -114.250; -907.000; -719.000
210.259; -119.750; -939.000; -889.000
210.404;  -12.025; -171.000;  103.000
210.549;   10.325;  108.000;    3.000
210.695;  -25.775;   -3.000;  -95.000
210.840;   39.025;   94.000;   67.000
210.985;  -73.425; -484.000; -303.000
211.130;   66.475;  268.000;  406.000
211.275;    7.025;  207.000;  199.000
211.420;  -49.875; -300.000; -289.000
211.566;  -76.175; -536.000; -489.000
211.711;   29.325;  218.000;  157.000
211.856;  -61.875; -545.000; -519.000
212.001;    3.550;  151.000;   44.000
212.146;   28.025;  153.000;   49.000
212.291;  -26.950; -210.000; -186.000
212.436;  -18.775; -280.000;   -6.000
212.581;  -84.075; -685.000; -653.000
212.726;  -77.000; -487.000; -538.000
212.871;  -51.775; -552.000; -217.000
213.016; -155.550;-1172.000;-1029.000
213.161;   65.275;  406.000;  291.000
213.306;  -72.875; -435.000; -577.000
213.451;  -98.025; -778.000; -689.000
213.596;  -54.150; -455.000; -347.000
213.741;  -42.825; -448.000; -538.000
213.886;  -82.450; -498.000; -517.000
214.031;  -13.900; -294.000; -124.000
214.176;  -48.925; -408.000; -341.000
214.321;  -12.900; -296.000; -157.000
214.466;  -23.125; -163.000;  -43.000
214.611;   -1.050;  -61.000;  -10.000
214.756; -121.475; -948.000; -858.000
214.901;  -31.500; -388.000; -226.000
215.046; -123.975; -797.000; -825.000
215.191;    6.325;  128.000;   35.000
215.336;  -12.825; -157.000;  -19.000
215.480;  -58.775; -684.000; -505.000
215.625;  -23.150; -175.000;  -19.000
215.770;  -81.750; -757.000; -662.000
215.915;   -8.125;   -5.000;  -97.000
216.060;    9.750; -113.000;  -21.000
216.205; -117.300; -731.000; -779.000
216.349;  -78.775; -470.000; -533.000
216.494; -141.825; -939.000; -867.000
216.639; -114.225; -823.000; -888.000
216.784;  -81.100; -577.000; -525.000
216.929;   55.550;  392.000;  281.000
217.073;  -10.050; -244.000;  -31.000
217.218;   11.850;   78.000;  -47.000
217.363;  -92.625; -656.000; -618.000
217.507;  -77.850; -623.000; -588.000
217.652; -130.550; -845.000; -874.000
217.797; -109.825; -708.000; -659.000
217.942; -120.800; -856.000; -720.000
218.086;   77.375;  608.000;  539.000
218.231;  -24.500; -174.000;  -26.000
218.376;  -43.800; -337.000; -229.000
218.520;    7.200;  -41.000;   96.000
218.665;  -24.250; -338.000; -204.000
218.810;  -49.300; -275.000; -233.000
218.954;   18.075;  201.000;   35.000
219.099; -121.925; -713.000; -963.000
219.243;  -72.650; -589.000; -554.000
219.388;  -27.975; -264.000; -136.000
219.532;  -20.250; -116.000; -116.000
219.677;  -76.450; -564.000; -521.000
219.822;   -0.475;   33.000;   89.000
219.966;    1.100;   17.000;  -99.000
220.111;  -39.375; -328.000;  -40.000
220.255;  -98.800; -797.000; -750.000
220.400;  -30.200; -180.000; -146.000
220.544;  -73.100; -516.000; -450.000
220.689;  -51.350; -422.000; -451.000
220.833;  -28.125; -123.000;  -58.000
220.978;  -48.500; -393.000; -563.000
221.122;   16.275;  319.000;  307.000
221.267; -116.575; -906.000; -837.000
221.411;  -66.300; -478.000; -394.000
221.555;  -15.550; -104.000;  -23.000
221.700;  -55.000; -329.000; -222.000
221.844;   34.250;  255.000;  272.000
221.989;  -66.375; -328.000; -311.000
222.133;  -31.975; -289.000; -307.000
222.277;   -3.050;    5.000;   78.000
222.422;   27.000;  227.000;  113.000
222.566;  -41.975; -381.000; -214.000
222.711;  -53.675; -414.000; -479.000
222.855;  -78.975; -643.000; -586.000
222.999;  -87.000; -642.000; -717.000
223.144;  -34.525; -195.000; -194.000
223.288;   58.375;  423.000;  251.000
223.432;   26.900;  184.000;  230.000
223.576;   19.400;  152.000;  -21.000
223.721;   45.050;  364.000;  273.000
223.865;  -45.700; -472.000; -475.000
224.009;  246.950; 1673.000; 1631.000
224.153;  -80.150; -660.000; -671.000
224.298;  -73.750; -531.000; -489.000
224.442;   -9.700;  -74.000;  -33.000
224.586;   -7.325; -169.000; -106.000
224.730;  -96.125; -858.000; -670.000
224.875; -108.550; -739.000; -688.000
225.019;   18.450;  102.000;  188.000
225.163;   53.750;  208.000;  341.000
225.307;   17.675;   97.000;  -91.000
225.451;   49.075;  360.000;  481.000
225.595;   41.275;  264.000;  176.000
225.739;   -3.425; -170.000;  -94.000
225.884;    2.425;   86.000;    5.000
226.028;  -89.300; -760.000; -626.000
226.172;  -34.075; -260.000; -273.000
226.316; -140.625; -941.000; -902.000
226.460;  -65.350; -645.000; -493.000
226.604;  -50.025; -406.000; -400.000
226.748;  -91.725; -836.000; -733.000
226.892;  -41.850; -227.000; -181.000
227.036;  -44.550; -537.000; -447.000
227.180;  -66.225; -551.000; -375.000
227.324;  -70.700; -561.000; -580.000
227.468; -116.625; -819.000; -717.000
227.612;   14.700;  242.000;  -28.000
227.756; -111.400; -845.000; -698.000
227.900;   50.625;  342.000;  441.000
228.044;  -61.425; -509.000; -290.000
228.188;   64.375;  448.000;  568.000
228.332;  -89.900; -546.000; -472.000
228.476;  -27.175; -223.000; -149.000
228.620;  -34.650; -210.000; -150.000
228.764;   80.675;  431.000;  349.000
228.908;  -30.675; -155.000;   30.000
229.052;  -69.050; -615.000; -528.000
229.195;   -9.150; -172.000;   13.000
229.339;  -24.350; -235.000; -305.000
229.483;  -22.675;    5.000; -162.000
229.627;    9.050; -156.000;  139.000
229.771;  -56.225; -218.000; -294.000
229.915;   17.700;  230.000;   79.000
230.059; -106.875; -648.000; -663.000
230.202;  -46.625; -370.000; -317.000
230.346;   -9.975; -107.000;  107.000
230.490;  -70.400; -489.000; -521.000
230.634; -132.550; -736.000; -553.000
230.777;   79.675;  478.000;  509.000
230.921;  -59.325; -450.000; -359.000
231.065;  -39.200; -246.000; -286.000
231.209;   29.050;  261.000;  265.000
231.352;   38.675;   54.000;   40.000
231.496;   19.050;  568.000;  188.000
231.640;  -90.350; -693.000; -621.000
231.783;   62.750;  546.000;  525.000
231.927;  -44.725; -294.000; -365.000
232.071; -126.975; -962.000; -736.000
232.214; -109.700; -980.000; -764.000
232.358;  -99.750; -683.000; -599.000
232.502;    6.725;  -19.000;    7.000
232.645; -148.150;-1090.000; -927.000
232.789;  -21.000; -257.000; -218.000
232.933;  -54.400; -407.000; -224.000
233.076; -123.475;-1038.000; -897.000
233.220; -112.300; -752.000; -777.000
233.363;  -90.650; -669.000; -477.000
233.507;   47.550;  371.000;  129.000
233.650;  -83.125; -764.000; -834.000
233.794;   42.800;  438.000;  461.000
233.938;  -63.000; -530.000; -362.000
234.081;  -16.150;  -93.000;   31.000
234.225;  -74.650; -631.000; -539.000
234.368; -106.750; -773.000; -723.000
234.512;  -33.850; -385.000; -299.000
234.655; -102.675; -582.000; -555.000
234.798;  -74.700; -493.000; -466.000
234.942; -139.800; -884.000;-1002.000
235.085;  -67.175; -651.000; -443.000
235.229;  -76.450; -405.000; -410.000
235.372;  -41.900; -247.000; -191.000
235.516;  -73.000; -397.000; -321.000
235.659;   20.700;   92.000;  121.000
235.802;   -9.875;  -38.000;  -22.000
235.946;   27.300;  335.000;  215.000
236.089;   34.700;  126.000;  250.000
236.233;   49.525;  275.000;  298.000
236.376;  -56.875; -235.000; -378.000
236.519;  -48.950; -297.000; -319.000
236.663;  -19.550; -215.000; -117.000
236.806; -152.625;-1029.000; -999.000
236.949;   49.475;  543.000;  431.000
237.092;   49.100;  412.000;  391.000
237.236;  -89.050; -589.000; -502.000
237.379;   72.300;  352.000;  428.000
237.522; -123.125; -879.000; -768.000
237.666;  -30.150; -271.000;   18.000
237.809; -124.550; -851.000; -823.000
237.952;   37.050;  469.000;  271.000
238.095;  -74.925; -447.000; -442.000
238.238;   84.700;  688.000;  700.000
238.382;    1.275;  166.000;  103.000
238.525;  -70.900; -598.000; -511.000
238.668; -156.650;-1060.000; -985.000
238.811;  -87.500; -638.000; -643.000
238.954;  -59.350; -483.000; -334.000
239.097;  102.800;  617.000;  664.000
239.241;   29.075;  394.000;  326.000
239.384;  -32.150; -254.000; -214.000
239.527;  -54.900; -424.000; -224.000
239.670; -150.550; -994.000;-1091.000
239.813; -121.900; -696.000; -658.000
239.956;   75.550;  579.000;  473.000
240.099; -130.100; -778.000; -725.000
240.242;   69.700;  428.000;  432.000
240.385;   41.250;  466.000;  450.000
240.528;  -61.225; -706.000; -473.000
240.671;    9.700;  189.000;  134.000
240.814;  -42.650; -441.000; -158.000
240.957; -101.925; -767.000; -578.000
241.100;  -90.225; -779.000; -755.000
241.243; -151.500;-1234.000; -893.000
241.386;  -70.250; -508.000; -379.000
241.529;  -91.550; -735.000; -547.000
241.672;  -53.125; -566.000; -495.000
241.815; -124.225; -832.000; -808.000
241.958;  -31.975; -125.000; -182.000
242.101;  -82.525; -545.000; -390.000
242.244;  -49.300; -270.000; -325.000
242.387;  -43.550; -304.000; -246.000
242.530;   56.550;  470.000;  134.000
242.673;  -54.625; -381.000; -309.000
242.815; -115.325; -925.000; -899.000
242.958;  -59.425; -482.000; -381.000
243.101;   14.050;  132.000;  187.000
243.244;  -97.275; -564.000; -521.000
243.387;  -38.850; -313.000; -316.000
243.530; -102.225; -657.000; -674.000
243.672;    7.525;   43.000;  -92.000
243.815;  -47.325; -355.000; -283.000
243.958;   -0.700;   98.000;  -26.000
244.101;  -10.825;   59.000;  -16.000
244.243;  -34.925;  -47.000;  101.000
244.386; -132.925; -761.000; -630.000
244.529;  -27.225; -132.000; -139.000
244.672; -167.450;-1154.000; -951.000
244.814; -108.475; -621.000; -794.000
244.957;  -50.750; -380.000; -304.000
245.100;  -85.975; -489.000; -489.000
245.242;  -74.775; -387.000; -374.000
245.385;   -6.225;  -59.000;  -39.000
245.528; -116.100; -871.000; -705.000
245.670;  103.025;  612.000;  634.000
245.813;  -88.150; -599.000; -547.000
245.956;  -36.225; -324.000; -275.000
246.098;  -77.100; -508.000; -650.000
246.241;    1.875;  194.000;   48.000
246.383;   -8.025; -119.000;  -73.000
246.526;  -69.825; -454.000; -525.000
246.669; -123.250; -889.000; -780.000
246.811;    9.500;  172.000;   -1.000
246.954;  -59.650; -512.000; -426.000
247.096;  -27.875;  -84.000;   -6.000
247.239;  -85.675; -482.000; -445.000
247.381;  -79.200; -647.000; -488.000
247.524;   80.000;  645.000;  679.000
247.666;  -11.050;   58.000;   11.000
247.809; -120.550; -887.000; -691.000
247.951;   -3.450;  -75.000;  138.000
248.094;   28.450;  432.000;  308.000
248.236; -173.925;-1262.000;-1238.000
248.378;    4.425; -356.000;  -81.000
248.521;  -26.775; -334.000; -337.000
248.663;  -45.800; -236.000; -267.000
248.806;  -20.950; -300.000; -266.000
248.948; -105.050; -886.000; -763.000
249.090;  -42.075; -428.000; -398.000
249.233;  -47.100; -344.000; -381.000
249.375;  -59.875; -474.000; -451.000
249.518;  -34.975;  -83.000; -133.000
249.660;   -8.025; -103.000;    3.000
249.802; -180.100;-1303.000;-1189.000
249.945;  -58.975; -612.000; -540.000
250.087; -130.100; -834.000; -768.000
250.229;  -58.825; -362.000; -480.000
250.371;  -93.750; -494.000; -439.000
250.514;  -61.650; -310.000; -244.000
250.656;  -73.950;   69.000;  102.000
250.798; -117.275; -849.000; -800.000
250.940;  -66.225; -322.000; -322.000
251.083;  -25.350; -335.000; -111.000
251.225;   43.725;  338.000;  310.000
251.367;  -39.725; -274.000; -373.000
251.509;  -53.400; -265.000; -210.000
251.651; -103.125; -731.000; -671.000
251.794;   56.200;  538.000;  632.000
251.936; -107.025; -821.000; -747.000
252.078;  -78.000; -540.000; -461.000
252.220;  -70.225; -645.000; -477.000
252.362;   75.825;  344.000;  462.000
252.504;  -64.875; -677.000; -584.000
252.646; -121.175; -875.000; -722.000
252.788;    2.375;   14.000; -128.000
252.931;  -36.300; -257.000; -253.000
253.073;  -49.250; -376.000; -317.000
253.215;    3.750;  141.000;  122.000
253.357;  -21.175;   82.000; -153.000
253.499;  -54.850; -374.000; -234.000
253.641;  -90.050; -749.000; -594.000
253.783;  -96.250; -609.000; -527.000
253.925;  -94.975; -586.000; -591.000
254.067; -109.150; -744.000; -667.000
254.209;  -26.300; -391.000; -259.000
254.351; -159.725; -865.000; -883.000
254.493;  -55.500; -441.000; -417.000
254.635; -126.875; -936.000; -818.000
254.777;  -87.000; -752.000; -687.000
254.918;  -74.450; -512.000; -430.000
255.060;  -69.925; -551.000; -395.000
255.202;  -58.400; -473.000; -261.000
255.344;  -75.875; -658.000; -455.000
255.486;  -83.675; -471.000; -406.000
255.628; -110.475; -780.000; -781.000
255.770;  -96.275; -676.000; -536.000
255.912;  -72.500; -559.000; -468.000
256.053; -103.300; -730.000; -508.000
256.195;  168.375; 1008.000;  903.000
256.337; -101.550; -861.000; -595.000
256.479;   55.475;  532.000;  416.000
256.621;  -45.675; -394.000; -212.000
256.762;  -96.400; -789.000; -742.000
256.904;   44.250;  485.000;  487.000
257.046;  -42.175; -381.000; -271.000
257.188;  -53.175; -351.000; -264.000
257.329;  -82.150; -525.000; -464.000
257.471; -119.825; -939.000; -807.000
257.613;  -57.500; -584.000; -498.000
257.755; -157.900;-1073.000; -982.000
257.896;   33.475;  286.000;  392.000
258.038;  -78.975; -403.000; -352.000
258.180;  -36.700; -354.000; -279.000
258.321;  -92.575; -581.000; -457.000
258.463;   -5.375;  -71.000;  133.000
258.605;  -85.825; -562.000; -570.000
258.746; -105.875; -886.000; -772.000
258.888; -148.925;-1026.000;-1020.000
259.029;   27.175;  121.000;   -8.000
259.171;  -87.450; -614.000; -550.000
259.313;   -3.700;  -49.000;  -47.000
259.454;  -70.825; -536.000; -414.000
259.596;  -59.175; -483.000; -390.000
259.737;  -80.375; -590.000; -474.000
259.879;   41.050;  217.000;  311.000
260.020;   84.700;  901.000;  636.000
260.162;  -31.400; -146.000; -253.000
260.303; -128.000; -768.000; -687.000
260.445;  -84.550; -609.000; -613.000
260.586;   36.475;  392.000;  157.000
260.728;  -38.075; -360.000; -248.000
260.869; -120.675; -350.000; -343.000
261.011;   81.400;  706.000;  537.000
261.152;  -52.800; -479.000; -319.000
261.293;  -81.250; -576.000; -595.000
261.435;  -27.625; -219.000; -184.000
261.576;  -51.350; -455.000; -325.000
261.718;   50.650;  420.000;  470.000
261.859; -145.150; -940.000; -949.000
262.000; -135.575; -951.000;-1016.000
262.142;  -25.450;  -52.000;  -60.000
262.283; -116.150; -808.000; -691.000
262.424;  -92.575; -666.000; -625.000
262.566; -149.475;-1161.000; -983.000
262.707; -119.575; -840.000; -830.000
262.848; -121.650; -769.000; -726.000
262.990;  -53.125; -362.000; -345.000
263.131;   86.300;  650.000;  681.000
263.272;   -6.975;  -61.000;  -41.000
263.413;  -95.275; -589.000; -561.000
263.555;  -66.050; -669.000; -143.000
263.696;  -86.400; -550.000; -641.000
263.837;  -69.625; -449.000; -551.000
263.978;  -10.950;   -5.000;  -77.000
264.119;  -42.625; -283.000; -264.000
264.261; -120.950; -847.000; -630.000
264.402;   -9.175;   33.000;   40.000
264.543;  -78.900; -509.000; -524.000
264.684;  -20.500;   61.000;  -50.000
264.825;  -77.175; -816.000; -538.000
264.966;   -9.875;  -84.000;  -67.000
265.107; -124.400; -646.000; -670.000
265.248; -120.950; -825.000; -812.000
265.390;    2.575;  152.000;   -9.000
265.531;  -29.000; -238.000; -107.000
265.672;  -94.050; -557.000; -630.000
265.813;   76.475;  563.000;  439.000
265.954; -149.600; -959.000; -940.000
266.095;  -13.100; -372.000; -322.000
266.236; -104.750; -686.000; -548.000
266.377;  -30.925; -243.000; -297.000
266.518;  -65.625; -619.000; -547.000
266.659;   30.750;  170.000;  268.000
266.800;   10.350;   83.000;   85.000
266.941;  -71.450; -487.000; -478.000
267.082;    6.675;  354.000;   99.000
267.223;  -54.225; -344.000; -273.000
267.364; -121.750; -892.000; -686.000
267.504;   -7.975;    3.000;  135.000
267.645;   -6.400;  160.000;   67.000
267.786;  -51.000; -147.000;  -86.000
267.927;  -76.625; -473.000; -379.000
268.068;  -20.175; -186.000;  -61.000
268.209;  -42.625; -175.000; -413.000
268.350;  -56.975; -388.000; -532.000
268.490;  -81.725; -648.000; -521.000
268.631;   42.900;  127.000;  225.000
268.772; -115.675; -874.000; -647.000
268.913;  -52.150; -328.000; -476.000
269.054;  -17.375; -117.000;   12.000
269.194;  -43.500; -418.000; -402.000
269.335; -170.950;-1137.000;-1074.000
269.476;   -5.325;   33.000;  -35.000
269.617;  -65.850; -347.000; -392.000
269.757;  -83.700; -713.000; -646.000
269.898; -124.200; -856.000; -613.000
270.039;  -51.175; -415.000; -405.000
270.180; -141.350; -952.000; -816.000
270.320;  -18.175; -190.000; -250.000
270.461;  -33.525; -277.000; -249.000
270.602;  -10.600; -186.000; -156.000
270.742; -120.750; -868.000; -943.000
270.883;  -53.200; -442.000; -390.000
271.023;  -63.675; -358.000; -357.000
271.164;  -70.475; -607.000; -528.000
271.305;  -95.600; -666.000; -654.000
271.445;  -87.800; -722.000; -683.000
271.586;  -76.575; -462.000; -283.000
271.726;  -52.075; -397.000; -322.000
271.867;  -59.775; -594.000; -534.000
272.008;  186.125; -473.000; -285.000
272.148;  153.850;  462.000;  468.000
272.289;   11.975; -113.000; -181.000
272.429;   17.575;   19.000;  185.000
272.570;  -79.750; -633.000; -737.000
272.710; -103.575; -825.000; -775.000
272.851;   -3.650;  113.000; -130.000
272.991; -163.400;-1173.000;-1077.000
273.131;  -66.575; -419.000; -459.000
273.272; -105.875; -683.000; -723.000
273.412;   26.475; -143.000;  -31.000
273.553;  -51.425; -488.000; -507.000
273.693;  146.600;  913.000;  858.000
273.834;  -79.550; -894.000; -692.000
273.974;  -74.675; -664.000; -615.000
274.114;  -95.900; -772.000; -560.000
274.255;   93.825;  414.000;  373.000
274.395;    8.425; -180.000; -125.000
274.535;   41.575;  199.000;  350.000
274.676;   25.775;  225.000;   94.000
274.816;    8.125;  110.000;   34.000
274.956;  -80.400; -624.000; -690.000
275.097;  -57.100;-1014.000; -922.000
275.237; -109.400; -913.000; -803.000
275.377;  -94.850; -778.000; -689.000
275.517; -134.775; -878.000; -937.000
275.658;  -50.700; -590.000; -555.000
275.798;  -56.775; -606.000; -413.000
275.938;   19.225;  215.000;  323.000
276.078;  -76.375; -626.000; -395.000
276.218;   18.650;   99.000;  104.000
276.359; -122.850;-1026.000;-1024.000
276.499;  -64.275; -605.000; -446.000
276.639;  -20.825; -305.000; -151.000
276.779;  -51.225; -475.000; -357.000
276.919;  -98.650; -783.000; -624.000
277.059;  -13.900; -261.000; -212.000
277.199;  -43.125; -357.000; -259.000
277.340;   48.825;  287.000;  175.000
277.480; -110.025; -840.000; -693.000
277.620;   29.025;  192.000;   16.000
277.760; -186.825;-1533.000;-1294.000
277.900;   30.900;  113.000;   33.000
278.040;   26.050;  137.000;  159.000
278.180;   57.775;  270.000;  170.000
278.320;   -3.000;   21.000;   56.000
278.460;  -48.100; -443.000; -469.000
278.600;  -92.000; -708.000; -598.000
278.740;   61.050;  448.000;  224.000
278.880;  -27.200; -768.000; -791.000
279.020;   -2.200; -194.000; -144.000
279.160;  -80.250; -672.000; -595.000
279.300; -116.875; -926.000; -873.000
279.440;  -89.700; -709.000; -622.000
279.579;  -11.900;-1014.000; -929.000
279.719;  -61.750; -410.000; -394.000
279.859;   83.425;   -4.000;   41.000
279.999;   25.250; -208.000;  101.000
280.139;   -4.575; -435.000; -387.000
280.279;  -77.975; -708.000; -745.000
280.419;   -4.625; -229.000; -147.000
280.559;  -19.150; -259.000; -180.000
280.698;  -81.400; -790.000; -639.000
280.838;  -79.475; -778.000; -800.000
280.978; -105.375; -846.000; -790.000
281.118; -120.250; -811.000; -704.000
281.257;    9.950;   24.000;    6.000
281.397;  -91.175;-1094.000; -960.000
281.537;  -71.750; -599.000; -712.000
281.677;  -31.550; -150.000; -101.000
281.816;  -77.750; -700.000; -630.000
281.956;  -28.475; -193.000; -257.000
282.096;  -62.650; -539.000; -396.000
282.235;  -99.175; -672.000; -638.000
282.375;   -0.725; -243.000;  -98.000
282.515;  -98.225; -715.000; -707.000
282.654;   45.800;   29.000;  106.000
282.794;   27.100;  388.000;  244.000
282.934;  -59.275; -530.000; -491.000
283.073; -129.675;-1030.000; -857.000
283.213;  -51.525; -460.000; -467.000
283.353;  -28.525; -408.000; -349.000
283.492;  -13.875; -264.000; -296.000
283.632;  -39.550; -254.000; -168.000
283.771;  -94.475; -859.000; -730.000
283.911;  -34.325; -369.000; -260.000
284.050; -111.675; -794.000; -748.000
284.190; -154.275;-1229.000;-1096.000
284.329; -141.975;-1055.000; -964.000
284.469;  -49.325; -516.000; -591.000
284.608;  -57.500; -559.000; -598.000
284.748;  -78.975; -614.000; -570.000
284.887;  -10.375;  -87.000;  -20.000
285.027; -114.450; -844.000; -892.000
285.166;  -27.150; -192.000; -249.000
285.306;    8.700; -116.000;  -33.000
285.445;  -44.550; -229.000; -343.000
285.584;  -99.050; -630.000; -494.000
285.724;  -39.575; -282.000; -322.000
285.863; -110.450; -857.000; -507.000
286.002;  -60.000; -366.000; -276.000
286.142; -114.150; -715.000; -622.000
286.281;  -78.675; -525.000; -493.000
286.420;  -69.825; -554.000; -417.000
286.560;  110.100;  653.000;  623.000
286.699; -132.600; -958.000; -912.000
286.838;  -78.200; -590.000; -591.000
286.978;  -93.025; -533.000; -537.000
287.117; -137.275;-1085.000; -950.000
287.256;  -21.925; -228.000; -211.000
287.395;  -35.950; -197.000; -378.000
287.535;  -41.425; -370.000; -298.000
287.674;  -72.525; -509.000; -484.000
287.813;   68.675;  661.000;  533.000
287.952; -118.050;-1010.000; -871.000
288.091; -137.225;-1049.000; -915.000
288.231;   33.975;   13.000;   15.000
288.370; -174.650;-1217.000;-1200.000
288.509;  -82.250; -728.000; -645.000
288.648;  -92.875; -770.000; -548.000
288.787;  -30.125; -243.000;  -87.000
288.926;  -58.225; -454.000; -475.000
289.065;  133.350;  859.000;  672.000
289.204;  -48.550; -377.000; -217.000
289.344;  -81.975; -791.000; -690.000
289.483;   25.550;  416.000;  304.000
289.622;  -17.650; -291.000; -149.000
289.761;  -31.100; -309.000; -166.000
289.900; -104.575; -785.000; -626.000
290.039;  -21.850;  -12.000;  -95.000
290.178;  -25.875; -274.000; -180.000
290.317;  -65.800; -618.000; -479.000
290.456;  -61.425; -463.000; -451.000
290.595; -138.575; -961.000; -833.000
290.734; -137.750; -904.000; -891.000
290.873;  -68.000; -456.000; -420.000
291.011; -103.175; -833.000; -843.000
291.150;  -96.225; -770.000; -682.000
291.289;  -21.050; -343.000; -110.000
291.428;  -85.975; -599.000; -480.000
291.567;  -55.975; -370.000; -442.000
291.706;  -14.475;  109.000;  154.000
291.845;  -83.525; -597.000; -505.000
291.984; -166.300;-1234.000;-1061.000
292.122;   71.475;  602.000;  582.000
292.261;   51.400;  620.000;  463.000
292.400;   18.350; -144.000;  211.000
292.539; -123.075; -959.000; -813.000
292.678;  -32.100; -325.000; -300.000
292.816; -161.750;-1136.000; -965.000
292.955;  -87.475; -844.000; -684.000
293.094;  -25.125; -173.000; -337.000
293.233;  -57.075; -556.000; -400.000
293.371;  -27.000; -225.000;  -84.000
293.510; -109.875; -866.000; -780.000
293.649; -128.375; -959.000; -924.000
293.787;  -43.500;-1083.000;-1012.000
293.926;    2.250; -113.000;  -32.000
294.065;  -37.600; -379.000; -290.000
294.203;   64.000;  298.000;  406.000
294.342;   40.400;   74.000;  156.000
294.481; 6291.875;51180.000; -836.000
294.619;  -26.900; -425.000; -582.000
294.758; -138.250;-1230.000;-1137.000
294.896;  114.900; -125.000;    5.000
295.035; -121.550;-1040.000;-1006.000
295.174; -104.700;-1082.000; -954.000
295.312;  -22.500; -323.000; -203.000
295.451;   17.500; -307.000; -428.000
295.589;  -37.425; -389.000; -518.000
295.728;   32.800; -292.000; -165.000
295.866;   17.625;  -36.000;  -51.000
296.005;  -55.250; -584.000; -341.000
296.143;  -61.300; -558.000; -596.000
296.282;  -86.325; -957.000; -881.000
296.420;  -78.600; -657.000; -557.000
296.559;  -63.400; -892.000; -633.000
296.697;   68.675; -847.000; -665.000
296.835;  136.400;-1141.000;-1002.000
296.974;   55.550;  -23.000;   39.000
297.112;   54.925; -443.000; -504.000
297.251;  -61.925; -815.000; -755.000
297.389;  154.100; -576.000; -438.000
297.527;   62.000; -145.000;  -83.000
297.666;  -37.500; -486.000; -438.000
297.804;  -46.925; -404.000; -264.000
297.942;    0.575; -136.000; -161.000
298.081;   -8.725; -183.000;   63.000
298.219;   99.550;  -17.000;  -19.000
298.357;   72.475; -144.000;  -71.000
298.495;   67.750; -810.000; -812.000
298.634;  115.450;  245.000;  219.000
298.772;  114.000; -220.000; -338.000
298.910;  -27.150; -309.000; -182.000
299.048;    7.775; -130.000; -153.000
299.187;  -29.375; -350.000; -250.000
299.325;   40.350;   52.000;  122.000
299.463;   93.225; -389.000; -299.000
299.601;  164.900; -327.000; -271.000
299.739; -101.175; -908.000; -883.000
299.877;  -72.650; -791.000; -703.000
300.016;  -29.525;-1095.000; -935.000
300.154;  219.650;  -19.000; -161.000
300.292;   91.550; -428.000; -348.000
300.430;   68.900; -408.000; -291.000
300.568;  -88.800; -940.000; -874.000
300.706;  -45.175; -366.000; -469.000
300.844;  -54.650;-1108.000; -979.000
300.982;  150.825;  246.000;  282.000
301.120;  -97.800; -965.000; -866.000
301.258;  -47.075; -812.000; -705.000
301.396;   43.075;  104.000;  -41.000
301.534;  155.525; -218.000; -293.000
301.672;   35.025; -664.000; -521.000
301.810;   85.025; -613.000; -545.000
301.948;  171.225;   53.000;  149.000
302.086;  753.625; -250.000;  -32.000
302.224; 1219.850; -610.000; -585.000
302.362;   81.850; -558.000; -622.000
302.500;   21.575; -923.000; -893.000
302.638;  151.275;  128.000;  245.000
302.776;   28.600; -352.000; -408.000
302.913;   49.475;  447.000;  236.000
303.051;   14.200;  -86.000;  -23.000
303.189;   93.825;   90.000;  118.000
303.327;  -37.775; -341.000; -256.000
303.465;  -85.175; -832.000; -588.000
303.603;  -89.075; -805.000; -604.000
303.740;  122.975;  417.000;  241.000
303.878;   40.125; -800.000; -759.000
304.016;  -78.925; -915.000; -790.000
304.154; -115.450;-1123.000;-1152.000
304.291;  -20.975; -505.000; -554.000
304.429;   11.275;  102.000;   74.000
304.567; -115.575; -908.000; -893.000
304.705;  -41.725; -408.000; -515.000
304.842;  122.700; -616.000; -540.000
304.980;   78.325;  215.000;   35.000
305.118;   82.600; -367.000; -365.000
305.255;  -41.650; -945.000; -927.000
305.393;   68.625;  178.000;  239.000
305.531;  -79.225;-1173.000; -956.000
305.668;  -62.975; -663.000; -582.000
305.806;  110.225; -358.000; -439.000
305.943;  146.000; -629.000; -637.000
306.081;   81.550; -378.000; -267.000
306.219;  -96.175; -863.000; -748.000
306.356;   -1.125;  158.000;   27.000
306.494;  121.275;  981.000;  761.000
306.631;    3.775;  -11.000;  -55.000
306.769;   26.300; -613.000; -485.000
306.906;    6.125; -284.000; -258.000
307.044;  -48.450; -473.000; -488.000
307.181;  -58.800; -410.000; -332.000
307.319;   15.300;  112.000;   87.000
307.456; -176.575;-1191.000;-1153.000
307.594; -102.875; -980.000; -727.000
307.731;  -12.925; -371.000; -164.000
307.868;    9.875;  -15.000;   20.000
308.006; -121.475; -961.000; -847.000
308.143;  -56.775; -618.000; -330.000
308.281;  154.625;  -37.000; -254.000
308.418;   -0.600; -748.000; -640.000
308.555;  -62.650; -400.000; -250.000
308.693;  -73.675; -577.000; -573.000
308.830; -106.825; -712.000; -657.000
308.967;   -6.375; -215.000;  -95.000
309.105;  -41.550; -507.000; -396.000
309.242;   34.550; -468.000; -367.000
309.379;  279.300; -577.000; -655.000
309.517;  -48.675; -936.000; -948.000
309.654; -102.725; -910.000; -734.000
309.791;  -72.325; -662.000; -580.000
309.928; -107.025; -977.000; -914.000
310.065;  211.075;  819.000;  697.000
310.203;   31.525; -825.000; -850.000
310.340;   21.375; -465.000; -321.000
310.477;  -69.100; -412.000; -516.000
310.614;  -56.025; -383.000; -473.000
310.751;  -65.550; -427.000; -518.000
310.889;   -3.400;    1.000;   11.000
311.026; -160.325;-1161.000; -939.000
311.163;  -37.600; -386.000; -380.000
311.300;  -78.825; -512.000; -479.000
311.437;  -76.675; -658.000; -619.000
311.574; -139.100;-1226.000; -985.000
311.711;  -47.850; -595.000; -433.000
311.848;  -38.250; -380.000; -388.000
311.985;   29.325;  270.000;   93.000
312.122; -120.000; -932.000; -762.000
312.259; -107.325; -941.000; -994.000
312.396;  -92.200; -508.000; -551.000
312.533;  -76.275; -812.000; -790.000
312.670; -119.150;-1070.000; -898.000
312.807;  -26.675; -352.000; -367.000
312.944;  -72.725; -513.000; -611.000
313.081;  -19.800; -150.000; -415.000
313.218;  -98.925;-1111.000; -867.000
313.355;   28.650; -531.000; -449.000
313.492;   15.400; -455.000; -292.000
313.629;  158.500;  815.000;  735.000
313.766; -138.450;-1176.000;-1008.000
313.902;    0.100; -186.000;   21.000
314.039;  -47.775; -372.000; -289.000
314.176;   34.400;  286.000;  192.000
314.313;  -68.750; -569.000; -473.000
314.450;  -67.800; -788.000; -684.000
314.587;  -62.325; -468.000; -480.000
314.723;   27.375;  -78.000;  130.000
314.860;   44.900;  318.000;  332.000
314.997;   55.225;  223.000;  142.000
315.134;  -30.675; -385.000; -368.000
315.270;  -17.025; -480.000; -496.000
315.407; -124.450;-1094.000; -967.000
315.544;  -34.625; -657.000; -538.000
315.681;  -52.400; -681.000; -565.000
315.817;   53.125; -133.000; -176.000
315.954;   43.075; -613.000; -392.000
316.091; -113.250;-1045.000;-1023.000
316.227;  -25.375;  -71.000; -179.000
316.364;   10.025;   23.000;    6.000
316.500;  -41.025; -113.000; -300.000
316.637;  -42.475; -181.000; -302.000
316.774;  -80.175; -625.000; -358.000
316.910; -101.800; -598.000; -629.000
317.047;  -61.650; -487.000; -351.000
317.183;  -50.400; -435.000; -566.000
317.320;  -31.875; -367.000; -321.000
317.456;  -68.025; -733.000; -805.000
317.593;  -78.000; -598.000; -641.000
317.729;    6.275;  168.000;  -67.000
317.866; -196.125;-1434.000;-1285.000
318.002;  -82.300; -708.000; -948.000
318.139;  -97.175; -883.000; -867.000
318.275;  -92.475;-1003.000; -738.000
318.412;  -58.400; -517.000; -336.000
318.548;   -6.350; -751.000; -720.000
318.685;  -94.300; -985.000; -888.000
318.821; -101.025; -762.000; -735.000
318.957;  -11.275;   34.000;  -23.000
319.094;   38.150;  297.000;  154.000
319.230;  -47.225; -756.000; -742.000
319.367;  176.700; -471.000; -520.000
319.503;   84.050; -538.000; -436.000
319.639; -103.600; -877.000; -793.000
319.775;  -46.925; -750.000; -685.000
319.912;  -33.925; -424.000; -519.000
320.048;  -85.700;-1184.000;-1184.000
320.184;   69.125;   59.000;   70.000
320.321;  -68.700; -497.000; -467.000
320.457;   72.325;  475.000;  662.000
320.593;  -74.175; -375.000; -382.000
320.729;  -96.900; -732.000; -734.000
320.866;  -75.875; -577.000; -635.000
321.002;  -63.950; -759.000; -809.000
321.138;   -8.575; -135.000; -211.000
321.274;   85.700; -148.000; -115.000
321.410;   -0.625; -585.000; -353.000
321.546;   -6.025;-1011.000; -911.000
321.683;   68.250;  400.000;  185.000
321.819;   15.325;  -48.000; -117.000
321.955;  -98.650; -743.000; -722.000
322.091;  -41.850; -585.000; -540.000
322.227;  -20.825; -382.000; -202.000
322.363;   -5.875; -320.000; -215.000
322.499;  -26.775; -343.000; -331.000
322.635;  182.075;  636.000;  443.000
322.771;   41.500; -139.000;   12.000
322.907;  106.375;  129.000;  327.000
323.043;   -3.825; -115.000; -206.000
323.179;  -37.300; -394.000; -363.000
323.315;   68.450; -401.000; -371.000
323.451;  162.675; -328.000; -236.000
323.587;   78.775;  -60.000;  -77.000
323.723;   65.950; -682.000; -601.000
323.859;   -5.425; -258.000;  -76.000
323.995;  -28.925; -467.000; -409.000
324.131; -123.750; -967.000; -892.000
324.267;  -39.825; -254.000; -276.000
324.402; -112.450; -960.000; -983.000
324.538;    0.350; -279.000; -104.000
324.674;   33.525;  164.000;   77.000
324.810;  178.400;  226.000;  308.000
324.946;   26.250; -810.000; -658.000
325.082;  -56.750; -568.000; -475.000
325.217;   -0.275;  -62.000;   16.000
325.353; -104.325; -764.000; -659.000
325.489;  -65.350; -540.000; -506.000
325.625;  -71.550; -579.000; -525.000
325.760;   69.450;  517.000;  376.000
325.896;  -32.400; -515.000; -702.000
326.032;  -46.575; -403.000; -352.000
326.168;  -61.650; -462.000; -369.000
326.303;  -55.000; -352.000; -461.000
326.439;   -8.550; -336.000; -276.000
326.575;   17.450; -190.000;  -29.000
326.710;    1.800; -156.000;  -30.000
326.846;   11.575;  146.000;  103.000
326.982;  -94.600; -530.000; -548.000
327.117;  -70.675; -481.000; -442.000
327.253;  -94.000; -745.000; -742.000
327.388; -132.550;-1137.000;-1153.000
327.524;  -10.250; -811.000; -578.000
327.659;  -22.925;  -58.000;  -22.000
327.795;  -11.850;   69.000;   45.000
327.931;  -77.175; -723.000; -499.000
328.066;  -19.175; -417.000; -276.000
328.202;  -11.450;   12.000; -129.000
328.337;  108.575;  957.000;  713.000
328.473;   50.225;  -12.000;  -74.000
328.608;   -2.175; -256.000; -267.000
328.743;  -70.350; -799.000; -664.000
328.879;   28.550;  214.000;  114.000
329.014;  -31.900; -102.000; -122.000
329.150;  -75.000; -358.000; -483.000
329.285;  -71.825; -465.000; -466.000
329.421;  -44.125; -548.000; -246.000
329.556;  -14.175;  -36.000;   85.000
329.691;  -88.500; -633.000; -615.000
329.827;  -84.850; -626.000; -480.000
329.962;  -53.100;  131.000; -301.000
330.097;  -85.450; -673.000; -585.000
330.233;  -52.525; -410.000; -223.000
330.368; -123.275; -839.000; -628.000
330.503;    0.375;    3.000;   98.000
330.638;   23.250;  -93.000; -125.000
330.774;  -39.450; -609.000; -530.000
330.909;  -41.100; -434.000; -244.000
331.044;  -81.700; -714.000; -708.000
331.179; -165.875;-1217.000;-1109.000
331.315;   21.700;   77.000;   20.000
331.450;   15.325;  157.000;  285.000
331.585;  -82.525; -805.000; -706.000
331.720;  -82.400; -510.000; -460.000
331.855;  -11.025;  -35.000; -102.000
331.990;  175.250;   62.000;  138.000
332.126;   84.200; -110.000;   71.000
332.261;  -33.750; -379.000; -265.000
332.396;   -0.175; -135.000; -242.000
332.531; -112.500;-1074.000;-1031.000
332.666;    1.775; -519.000; -363.000
332.801; -107.550; -726.000; -807.000
332.936;   -1.325; -192.000; -122.000
333.071; -146.375; -870.000; -817.000
333.206;   37.775;  307.000;  379.000
333.341;   53.350;  344.000;  418.000
333.476;  -75.225; -627.000; -623.000
333.611;  -37.800; -251.000; -173.000
333.746;  -42.075; -381.000; -464.000
333.881;  -97.950; -973.000; -935.000
334.016; -121.000; -936.000; -917.000
334.151; -119.350; -746.000; -702.000
334.286;   44.200;  152.000;  186.000
334.421;  -12.400; -125.000; -178.000
334.556;  -62.100; -611.000; -567.000
334.690;  -64.275; -631.000; -577.000
334.825;   74.150;  381.000;   83.000
334.960;  -31.550; -285.000; -413.000
335.095;   35.150;  135.000;  -91.000
335.230;  -86.250; -722.000; -738.000
335.365; -107.875;-1084.000; -990.000
335.499; -112.125;-1108.000;-1037.000
335.634;   50.425;    9.000;  534.000
335.769;  -69.700; -755.000; -720.000
335.904;  -37.425; -603.000; -561.000
336.038;  -51.425; -735.000; -657.000
336.173;  -93.225;-1206.000;-1194.000
336.308;   35.250; -116.000; -189.000
336.443;   25.200; -544.000; -634.000
336.577;  -40.950; -936.000; -787.000
336.712;  113.975;   -4.000;  -12.000
336.847;   -3.100; -724.000; -607.000
336.981;  135.200; -272.000; -208.000
337.116;  360.150;  615.000;  501.000
337.250;  232.850; -434.000; -421.000
337.385;  171.125; -297.000; -208.000
337.520;   37.750; -632.000; -603.000
337.654;  -40.300; -215.000; -126.000
337.789; -122.750; -989.000; -933.000
337.923;  -25.875; -104.000; -205.000
338.058;  -62.525; -673.000; -738.000
338.192;  -16.875; -611.000; -488.000
338.327;   -2.325;  -18.000; -155.000
338.461;  -51.950; -299.000; -469.000
338.596;  -78.325; -780.000; -638.000
338.730; -107.450; -767.000; -803.000
338.865;   67.850;  -46.000; -140.000
338.999;  -82.725; -846.000; -702.000
339.134;  -43.575; -634.000; -536.000
339.268;  -13.450; -741.000; -603.000
339.403;  275.025; -740.000; -775.000
339.537;   39.200; -894.000; -820.000
339.671; -111.875; -829.000; -813.000
339.806;  -65.475; -556.000; -512.000
339.940;    6.400; -261.000; -235.000
340.074;  -93.900; -685.000; -510.000
340.209;  -47.700; -351.000; -230.000
340.343;  -86.700; -517.000; -573.000
340.477;  162.650;  998.000; 1036.000
340.612;  -80.175;-1033.000; -900.000
340.746;   85.475; -199.000; -243.000
340.880;  -35.850; -924.000; -785.000
341.014;   -2.525;  -45.000; -154.000
341.149; -112.000; -756.000; -718.000
341.283; -111.900; -839.000; -754.000
341.417;  -63.100;-1124.000; -938.000
341.551;  249.050; -768.000; -708.000
341.685;  -10.950; -633.000; -611.000
341.820;  -53.150; -562.000; -493.000
341.954;  -44.275; -218.000; -349.000
342.088; -157.875;-1102.000;-1019.000
342.222;   64.925;  565.000;  618.000
342.356;  -45.200; -395.000; -335.000
342.490;  -75.900; -880.000; -841.000
342.624;  -29.825; -339.000; -242.000
342.758;   15.775; -364.000; -312.000
342.892;  -40.400; -710.000; -585.000
343.026;  -44.400;  -58.000; -116.000
343.160;  -51.825; -426.000; -376.000
343.294;  -79.825; -474.000; -337.000
343.428;    6.950; -488.000; -448.000
343.562;    1.000; -172.000;  -23.000
343.696;   -8.425; -385.000; -314.000
343.830;   -4.025; -362.000; -356.000
343.964;   35.550; -231.000; -168.000
344.098; 1218.450;  199.000;   70.000
344.232; 1029.550; -266.000; -127.000
344.366;   84.700; -567.000; -453.000
344.500;  105.650; -665.000; -744.000
344.634;   65.425; -324.000; -164.000
344.768;   17.200; -531.000; -341.000
344.902;   25.650;  278.000;  256.000
345.035;  -61.725; -556.000; -496.000
345.169; -136.400; -933.000; -656.000
345.303;   -8.825; -308.000; -482.000
345.437;  -49.650; -826.000; -717.000
345.571;  -75.100; -675.000; -594.000
345.704;  -60.900; -309.000; -532.000
345.838;   -9.350; -331.000; -284.000
345.972;  -25.200; -543.000; -495.000
346.106;  140.700; -179.000; -190.000
346.239;  422.050; -312.000; -243.000
346.373;   19.750; -343.000; -302.000
346.507; -142.300; -950.000; -962.000
346.640;  213.450;  -30.000;   13.000
346.774;  -12.750; -650.000; -797.000
346.908;   -3.750; -138.000;  -11.000
347.041;  -90.650; -646.000; -593.000
347.175;    9.825;  259.000;   27.000
347.309;  -45.225; -698.000; -628.000
347.442;  -93.050; -883.000; -732.000
347.576;  341.300;  670.000;  668.000
347.709;  299.250; -123.000;  -52.000
347.843;  -68.875; -933.000; -825.000
347.976;   54.000;  235.000;  294.000
348.110; -177.525;-1268.000;-1186.000
348.243; -100.075; -679.000; -772.000
348.377;    3.600;  -26.000;   60.000
348.510;   60.550;  403.000;  540.000
348.644;  -24.550;  -37.000; -159.000
348.777;    2.350;  180.000;  191.000
348.911;  -29.525; -142.000; -112.000
349.044;  221.000;  471.000;  448.000
349.178;  267.825;-1069.000;-1006.000
349.311;  136.050;  141.000;  255.000
349.444;  -32.675; -927.000; -813.000
349.578;    9.800; -347.000; -200.000
349.711;  -79.525; -959.000; -862.000
349.845;   34.700; -661.000; -591.000
349.978; -145.675;-1224.000;-1137.000
350.111;  -85.975; -546.000; -612.000
350.244;  -61.100; -596.000; -700.000
350.378;   19.050; -392.000; -393.000
350.511;  -76.350; -393.000; -426.000
350.644; -102.775; -808.000; -806.000
350.778;   -7.550;  168.000;  104.000
350.911;   10.500;  134.000;  140.000
351.044;  -68.800; -685.000; -615.000
351.177;   -7.400; -321.000; -281.000
351.310;   -7.725;    3.000; -131.000
351.444;  -50.375; -888.000; -788.000
351.577;  167.900;  140.000;   90.000
351.710;  122.050;  593.000;  417.000
351.843;  -22.450; -165.000;  -77.000
351.976;   12.950;  149.000;  -79.000
352.109;  -78.600; -621.000; -612.000
352.242;   -3.825; -464.000; -419.000
352.376;  -35.800; -580.000; -636.000
352.509;  281.975; -437.000; -356.000
352.642;   79.450; -654.000; -604.000
352.775;   89.575; -141.000;  -98.000
352.908;  -86.900; -933.000; -904.000
353.041;  -94.450; -814.000; -824.000
353.174;  -35.425; -551.000; -424.000
353.307;  -68.525; -753.000; -764.000
353.440;   82.500;  541.000;  453.000
353.573; -101.825; -957.000;-1008.000
353.706;  -42.375; -384.000; -558.000
353.839;    1.900; -264.000; -220.000
353.971;  -85.200; -657.000; -512.000
354.104;  -77.750; -896.000; -835.000
354.237;  -21.950; -627.000; -662.000
354.370;  -73.775; -846.000; -879.000
354.503; -176.275;-1231.000;-1308.000
354.636;  -20.275; -529.000; -348.000
354.769; -109.100; -937.000; -860.000
354.902;   10.250; -230.000; -139.000
355.034;  -13.125; -164.000; -220.000
355.167;   -2.425; -262.000; -162.000
355.300;  -97.125;-1061.000; -880.000
355.433;  781.675;  -71.000;  -14.000
355.565; 1138.750; -402.000; -384.000
355.698;  295.725; -356.000; -296.000
355.831;    6.400; -882.000; -801.000
355.964;  113.450; -285.000; -170.000
356.096;  -70.475; -856.000; -843.000
356.229;   44.925; -523.000; -530.000
356.362;  256.425; -373.000; -266.000
356.494;  475.250; -229.000; -162.000
356.627;  578.125;  269.000;  377.000
356.760;  561.550;  120.000;   53.000
356.892;  709.500; -286.000; -601.000
357.025;  833.675;  403.000;  389.000
357.157;  812.525; -167.000; -179.000
357.290;  443.675; -856.000; -713.000
357.423;  151.800; -667.000; -556.000
357.555;  153.775; -217.000; -228.000
357.688;  179.600; -483.000; -364.000
357.820;  563.825; -870.000; -877.000
357.953; 4324.625; -563.000; -589.000
358.085; 1055.975; -632.000; -612.000
358.218; 1794.450;-1131.000; -932.000
358.350;  305.150;  -58.000;  312.000
358.483;  -98.350;-1300.000;-1187.000
358.615;   63.450;-1182.000;-1078.000
358.747;   -5.400;-1187.000;-1058.000
358.880;   84.550; -810.000; -744.000
359.012;    8.575; -376.000; -202.000
359.145;  -23.775; -480.000; -511.000
359.277;   99.550; -962.000; -913.000
359.409; 3643.175;  536.000;  231.000
359.542;  947.075; -738.000; -688.000
359.674;   97.125;   46.000;   13.000
359.806;  -64.525; -565.000; -438.000
359.939;  -44.200; -617.000; -516.000
360.071;  -35.400; -583.000; -579.000
360.203;   -1.325; -411.000; -364.000
360.335;   57.900;  164.000;  -16.000
360.468;  244.300; -249.000; -307.000
360.600; 2810.550; -547.000; -454.000
360.732; 2139.975; -546.000; -423.000
360.864;  296.975;-1216.000;-1044.000
360.996;  425.875; -516.000; -554.000
361.129;   81.000; -389.000; -598.000
361.261;   30.675;  110.000; -113.000
361.393;  -17.800; -252.000; -214.000
361.525;   43.350;   94.000;  244.000
361.657;  -38.425; -821.000; -703.000
361.789;   34.950; -139.000; -155.000
361.921;  349.650; -642.000; -593.000
362.053;  354.275;  524.000;  541.000
362.185;   69.575;  288.000;   72.000
362.318;  -59.400; -709.000; -705.000
362.450;  189.525;  294.000;  444.000
362.582;  303.925; -913.000; -870.000
362.714;   -5.425; -353.000; -332.000
362.846;  -87.625; -606.000; -490.000
362.978; -132.750; -941.000; -811.000
363.109;   88.600; -161.000; -260.000
363.241;  608.375; -739.000; -749.000
363.373;  337.500; -649.000; -564.000
363.505;  463.400; -186.000;  -91.000
363.637;  104.925; -787.000; -601.000
363.769; -110.650;-1067.000;-1080.000
363.901;  -57.425; -596.000; -654.000
364.033;  -90.150;-1103.000;-1062.000
364.165;    7.250; -283.000; -283.000
364.296;   56.750; -316.000; -177.000
364.428;    9.650;-1344.000;-1220.000
364.560;  -72.975; -679.000; -661.000
364.692;  -47.050; -738.000; -835.000
364.824;  427.575; -588.000; -456.000
364.955;  421.250; -402.000; -564.000
365.087;  552.400;-1097.000; -852.000
365.219;    6.250; -686.000; -816.000
365.351;  -75.975; -526.000; -572.000
365.482;   65.750;  300.000;  240.000
365.614;  -40.300; -402.000; -314.000
365.746;  -93.700; -729.000; -752.000
365.877; -102.750; -706.000; -672.000
366.009;  179.325;  -35.000;  -62.000
366.141; -119.675;-1249.000;-1134.000
366.272;  -91.200; -803.000; -719.000
366.404; -109.275;-1005.000; -874.000
366.535;  -10.350; -139.000;  -12.000
366.667; -104.425; -644.000; -649.000
366.799;   32.775;  353.000;  203.000
366.930; -103.650; -862.000; -996.000
367.062;  106.050; -639.000; -613.000
367.193;   46.900; -872.000; -842.000
367.325;  -66.500; -580.000; -684.000
367.456;  142.350; -246.000;   31.000
367.588;  122.800; -371.000; -318.000
367.719;   17.850;  -44.000;  -45.000
367.851;    4.725; -222.000; -241.000
367.982;   -5.775; -875.000; -732.000
368.113;  167.925; -475.000; -358.000
368.245; -109.750; -960.000; -841.000
368.376;   -6.950; -254.000; -302.000
368.508;  -24.975; -188.000; -263.000
368.639; -129.875;-1166.000;-1034.000
368.770;   20.675; -670.000; -589.000
368.902;  -34.975; -836.000; -926.000
369.033;  -94.900; -906.000; -855.000
369.164;  -59.850; -720.000; -653.000
369.296; -105.475; -452.000; -601.000
369.427;   22.125; -209.000; -144.000
369.558;  -32.500; -593.000; -377.000
369.689;  -84.250; -721.000; -569.000
369.821; -140.775; -951.000; -845.000
369.952;  -13.725;   42.000; -108.000
370.083;  -32.700; -229.000; -108.000
370.214;  -78.750; -735.000; -650.000
370.345;   15.775;   65.000;   81.000
370.477;  -73.800; -810.000; -790.000
370.608;  352.375; -328.000; -264.000
370.739;    4.725;-1233.000;-1292.000
370.870;   -2.100;-1102.000; -923.000
371.001;  145.375; -378.000; -467.000
371.132;  -42.300; -754.000; -735.000
371.263;  -14.175;  -42.000; -148.000
371.394; -110.925; -841.000; -748.000
371.525;   32.875;  345.000;  225.000
371.657;  -69.350; -808.000; -670.000
371.788;   86.150;  103.000;  199.000
371.919;  250.400; -384.000; -304.000
372.050; 4681.075;  -91.000; -156.000
372.181; 1382.675; -188.000; -294.000
372.311;  514.425;   42.000; -127.000
372.442;   79.325; -457.000; -451.000
372.573;   -0.775; -444.000; -340.000
372.704; -114.975;-1008.000; -980.000
372.835;  127.275; -228.000; -289.000
372.966;  -42.625; -646.000; -554.000
373.097;  -33.975; -575.000; -711.000
373.228;   -2.525; -717.000; -542.000
373.359;  226.650; -824.000; -536.000
373.490; 1329.850; -881.000; -727.000
373.620; 1586.550;-1001.000; -803.000
373.751; 2483.125; -332.000; -396.000
373.882; 1086.000; -663.000; -733.000
374.013;  131.950; -449.000; -262.000
374.143;  -35.075; -581.000; -659.000
374.274;  -85.875; -987.000; -908.000
374.405;  232.475; -388.000; -276.000
374.536;  657.600; -526.000; -387.000
374.666; 1575.575; -759.000; -807.000
374.797;  346.050; -817.000; -868.000
374.928; 1232.275; -710.000; -560.000
375.058; 1199.900; -535.000; -500.000
375.189;  120.225;  -59.000;  -93.000
375.320;  -92.975; -928.000;-1034.000
375.450;  -23.500; -625.000; -616.000
375.581;  -36.725; -526.000; -436.000
375.712;  -12.650; -574.000; -250.000
375.842;  427.025; -438.000; -415.000
375.973;  332.700; -554.000; -513.000
376.103;    9.375; -665.000; -648.000
376.234;  -69.675; -531.000; -552.000
376.364;    5.800; -944.000; -867.000
376.495;  410.825;  925.000;  529.000
376.625;   62.600; -472.000; -485.000
376.756;  127.400; -709.000; -678.000
376.886;  -34.575;-1178.000;-1026.000
377.017;   16.650;-1048.000;-1061.000
377.147;  226.400; -786.000; -782.000
377.278;   65.075;  174.000;  228.000
377.408; -123.050; -801.000; -815.000
377.538;  -96.800; -707.000; -693.000
377.669;  -56.850; -537.000; -613.000
377.799;  -63.675; -645.000; -635.000
377.929;  -11.900; -610.000; -428.000
378.060; -131.325; -781.000; -847.000
378.190;  -62.375; -726.000; -531.000
378.320;  -39.100; -401.000; -406.000
378.451;    0.075; -131.000;  -22.000
378.581;   10.375;  -67.000; -110.000
378.711;  196.250; 1035.000;  866.000
378.841;   25.425; -533.000; -675.000
378.972;  -43.000; -871.000; -751.000
379.102;   22.250; -652.000; -579.000
379.232;    7.175; -126.000;  -73.000
379.362;  -92.900;-1001.000; -885.000
379.492;   57.900; -373.000; -424.000
379.623;  145.650;    0.000;  111.000
379.753;  -61.175;-1107.000; -974.000
379.883;  260.000;   59.000;  156.000
380.013;   56.875;-1081.000;-1017.000
380.143;  -72.700;-1097.000;-1056.000
380.273;  -72.725; -985.000; -861.000
380.403;   15.300; -344.000; -257.000
380.533;  -10.950; -651.000; -664.000
380.663;  107.475;  173.000;  128.000
380.793;  -52.475;-1027.000;-1074.000
380.923;    3.525; -103.000;  -34.000
381.053;  -96.325; -613.000; -623.000
381.183;  -21.700; -106.000; -248.000
381.313;   90.875; -656.000; -470.000
381.443;   97.550; -692.000; -473.000
381.573;  319.425; -402.000; -409.000
381.703;  476.200;-1249.000;-1095.000
381.833; -108.050;-1454.000;-1336.000
381.963;  147.150; -134.000;  -87.000
382.093; 1735.225; -925.000; -909.000
382.223;  549.950; -713.000; -602.000
382.353;    9.375; -801.000; -608.000
382.482;  587.025;-1091.000; -964.000
382.612;  998.050; -872.000; -644.000
382.742;  552.550; -695.000; -622.000
382.872;  384.250; -565.000; -551.000
383.002;   90.225;  347.000; -132.000
383.131;   -5.900; -226.000; -160.000
383.261;  -32.875; -706.000; -768.000
383.391;  281.025; -552.000; -377.000
383.521; 2300.450;  451.000;  263.000
383.650;  435.350; -947.000; -904.000
383.780;  -36.525; -783.000; -656.000
383.910;  111.825;  880.000;  802.000
384.039;   72.375; -794.000; -656.000
384.169;  344.075;-1205.000;-1017.000
384.299;    9.125; -650.000; -662.000
384.428;  -67.200; -764.000; -680.000
384.558;  -38.375; -308.000; -275.000
384.687;  -17.475; -414.000; -334.000
384.817;   33.725;   75.000;   -2.000
384.947;   53.950; -234.000; -141.000
385.076;  374.300;  982.000;  912.000
385.206;  123.100;  369.000;  480.000
385.335;   -1.800; -549.000; -417.000
385.465;  -59.825; -655.000; -663.000
385.594;  215.275;  -53.000;  -44.000
385.724;  651.050; -868.000; -838.000
385.853;  194.125; -296.000; -270.000
385.982; 1904.875; -743.000; -787.000
386.112; 2896.375;-1052.000; -871.000
386.241;  210.425; -307.000; -312.000
386.371;   40.150; -174.000;  -87.000
386.500;   50.350; -825.000; -789.000
386.629;   37.650; -874.000; -817.000
386.759;   70.800;  -43.000;   68.000
386.888;   24.725; -170.000; -250.000
387.017;  -66.675; -648.000; -620.000
387.147;  -57.850; -771.000; -798.000
387.276;   28.500; -410.000; -397.000
387.405;   57.550; -398.000; -342.000
387.535;  -27.975; -452.000; -361.000
387.664;  -32.325; -692.000; -620.000
387.793;  106.350; -198.000; -113.000
387.922;  728.275;  255.000;  200.000
388.052;   80.250; -576.000; -423.000
388.181;   91.650; -342.000; -472.000
388.310;   88.750; -889.000; -710.000
388.439;    8.825; -749.000; -742.000
388.568;  288.475;  365.000;  244.000
388.697; 1501.600; -756.000; -653.000
388.826;  326.275; -768.000; -666.000
388.956;  110.225; -285.000; -307.000
389.085;  -20.975; -347.000; -287.000
389.214;  -95.025; -842.000; -872.000
389.343;  -55.250; -645.000; -413.000
389.472;  341.575;  126.000;  149.000
389.601;  479.425;   91.000;    0.000
389.730;   46.125; -568.000; -687.000
389.859;   82.500;  226.000;   46.000
389.988;  286.300; -423.000; -408.000
390.117;  199.750; -168.000; -146.000
390.246;    4.475; -331.000; -320.000
390.375;  189.850; -673.000; -626.000
390.504;  -29.925; -703.000; -621.000
390.633;  -90.475; -672.000; -726.000
390.761;  -37.800; -732.000; -645.000
390.890;   72.600;   -4.000; -130.000
391.019;    5.550; -421.000; -441.000
391.148; -116.000; -826.000; -855.000
391.277;  -52.525; -576.000; -493.000
391.406;  -44.950; -821.000; -805.000
391.534;   30.250;  574.000; -301.000
391.663;  -41.175; -583.000; -645.000
391.792;  -74.300; -673.000; -701.000
391.921;  194.000;   -3.000;   15.000
392.050;  324.100; -287.000; -228.000
392.178;   15.400;-1206.000;-1061.000
392.307;  241.400; -758.000; -712.000
392.436;  127.775; -427.000; -641.000
392.564;   28.125;  166.000;   -6.000
392.693;  -79.700; -860.000; -682.000
392.822;  329.625; -529.000; -534.000
392.950;  172.450; -880.000; -714.000
393.079;  465.975; -188.000; -328.000
393.208;   76.325; -488.000; -511.000
393.336;   -6.325; -170.000; -145.000
393.465;  -36.775; -317.000; -199.000
393.593;   10.250;   62.000;   79.000
393.722; -141.850;-1121.000; -916.000
393.850;  -23.275; -188.000;  -61.000
393.979; -159.525; -926.000; -805.000
394.107;  -53.525; -517.000; -537.000
394.236;   -5.925; -570.000; -507.000
394.364;  223.250;  383.000;  206.000
394.493;  300.825; -911.000; -767.000
394.621;  -33.600; -955.000; -916.000
394.750;  515.875; -873.000; -923.000
394.878; 2317.375; -247.000; -149.000
395.007; 3020.175; -721.000; -807.000
395.135;  214.650; -790.000; -721.000
395.263; -105.150;-1038.000;-1040.000
395.392;    3.325;  -25.000; -107.000
395.520; -148.525; -818.000; -679.000
395.648;  -71.750; -865.000; -915.000
395.777;   19.800; -366.000; -405.000
395.905;  -33.725; -449.000; -564.000
396.033;    2.775;  217.000;  172.000
396.162;  550.275; -399.000; -453.000
396.290;  472.675;  -17.000;   -2.000
396.418;  153.375; -555.000; -514.000
396.546;  -65.750; -571.000; -466.000
396.674;  -74.150; -850.000; -878.000
396.803;   24.350;  -72.000;  -23.000
396.931;  165.425; -179.000; -199.000
397.059;  152.175;-1026.000; -989.000
397.187;  -98.625;-1026.000; -975.000
397.315; -130.675; -884.000; -649.000
397.443;  -86.875; -592.000; -443.000
397.572; -102.500; -578.000; -424.000
397.700;   37.400; -607.000; -614.000
397.828;   60.150;  120.000;  -90.000
397.956;  -47.325; -508.000; -478.000
398.084;  -83.000; -767.000; -626.000
398.212;   65.050;  137.000;  124.000
398.340;   26.450;  -56.000;  159.000
398.468;   79.700; -390.000; -169.000
398.596; -129.550; -993.000; -953.000
398.724; -123.150; -762.000; -767.000
398.852; -165.750;-1024.000; -976.000
398.980;  -45.625; -560.000; -560.000
399.108;  -40.025; -982.000; -735.000
399.236;   57.400;   13.000;    8.000
399.363;   20.300;  222.000;  196.000
399.491;  -65.625; -404.000; -398.000
399.619; -123.250; -829.000; -800.000
399.747;  -91.625; -859.000; -771.000
399.875;   90.050;  220.000;  234.000
400.003;  -53.625; -359.000; -284.000
400.130;  -99.525; -421.000; -341.000
400.258;  -30.200;  -83.000;   38.000
400.386;  -63.900; -352.000; -168.000
400.514;  -20.075; -526.000; -587.000
400.641;  -59.900; -928.000; -802.000
400.769; -131.975; -979.000; -888.000
400.897;  -94.625; -838.000; -793.000
401.025;  -13.100; -166.000; -152.000
401.152;   -0.500;  220.000;   38.000
401.280;  -74.000; -430.000; -429.000
401.408; -111.625; -712.000; -576.000
401.535;  -81.400; -735.000; -758.000
401.663; -186.675;-1134.000;-1054.000
401.790;  -85.825; -514.000; -525.000
401.918;   37.350;  436.000;  405.000
402.046;  -16.450;  134.000;  122.000
402.173;  -31.650;  -18.000;    7.000
402.301;  -63.950; -519.000; -397.000
402.428;   34.275;  528.000;  383.000
402.556; -139.125;-1188.000; -913.000
402.683;  -24.050;  -20.000;   -1.000
402.811;  -20.975;  -37.000; -206.000
402.938;  -13.575;   20.000;   27.000
403.066;  308.300; -574.000; -558.000
403.193;  468.500;  299.000;  239.000
403.321;  386.700; -396.000; -574.000
403.448;  454.775;   83.000;   27.000
403.575;  212.875;  -90.000;  -46.000
403.703;  -83.425; -732.000; -557.000
403.830;  -64.500; -531.000; -496.000
403.957; -135.700;-1117.000;-1023.000
404.085;   21.475;  -61.000; -172.000
404.212;  122.300;  -50.000;   63.000
404.339;  195.000; -566.000; -306.000
404.467; 4396.250; -612.000; -524.000
404.594; 3345.900; -287.000; -227.000
404.721;  943.825; -869.000; -764.000
404.848;   92.875; -113.000; -202.000
404.976;  -98.050; -856.000; -783.000
405.103;   -0.350;  -14.000;  -82.000
405.230;   -2.850;  190.000;  226.000
405.357;   37.975;  117.000;   44.000
405.484;  201.125;  -49.000;    5.000
405.612;   21.000; -548.000; -563.000
405.739;  -58.225; -488.000; -243.000
405.866;  105.250;  669.000;  385.000
405.993;  -45.000; -398.000; -102.000
406.120; -143.725; -801.000; -887.000
406.247;  -51.350; -323.000; -342.000
406.374;  629.775;  540.000;  629.000
406.501;  193.250; -632.000; -702.000
406.628;  -80.025; -621.000; -589.000
406.755;  -82.300; -803.000; -620.000
406.882;  -40.200; -228.000; -277.000
407.009; -104.475; -719.000; -628.000
407.136;   94.900; -480.000; -401.000
407.263;  244.450; -939.000; -829.000
407.390;  -60.200; -692.000; -614.000
407.517; -161.200;-1139.000;-1187.000
407.644;  -54.125; -332.000; -256.000
407.771;  -60.825; -249.000; -287.000
407.898;    7.525;  168.000;  328.000
408.025;  -41.700; -421.000; -313.000
408.151;  -10.975;   82.000;  153.000
408.278;  -59.900; -267.000; -216.000
408.405; -106.150; -931.000; -899.000
408.532;  -75.125; -549.000; -542.000
408.659; -114.775; -677.000; -648.000
408.785; -210.325;-1298.000;-1170.000
408.912;  -61.700; -412.000; -296.000
409.039; -130.225; -610.000; -686.000
409.166;  -99.525; -591.000; -555.000
409.292; -108.250; -571.000; -534.000
409.419; -129.675; -665.000; -649.000
409.546;  -84.250; -431.000; -192.000
409.672; -106.950; -713.000; -545.000
409.799;  -29.475;  -36.000;   34.000
409.926;  -48.050; -180.000; -179.000
410.052; -180.325;-1127.000;-1091.000
410.179;  -49.275; -368.000; -392.000
410.305;  -74.975; -375.000; -493.000
410.432;  -31.925; -220.000; -333.000
410.558;  -92.250; -305.000; -380.000
410.685; -105.675; -688.000; -431.000
410.812;  -93.200; -409.000; -588.000
410.938; -131.800; -964.000; -808.000
411.065; -101.800; -671.000; -645.000
411.191;   -0.050; -189.000; -174.000
411.317; -120.275; -823.000; -742.000
411.444;  -67.925; -317.000; -246.000
411.570;  -73.400; -339.000; -294.000
411.697; -125.725; -758.000; -752.000
411.823; -168.125; -989.000; -999.000
411.949;  -24.750;  -56.000;   17.000
412.076; -113.175; -539.000; -519.000
412.202; -114.600; -758.000; -757.000
412.329; -126.800; -798.000; -752.000
412.455; -119.150; -821.000; -657.000
412.581;  -29.825;  -15.000;  172.000
412.707;  -40.200; -540.000; -457.000
412.834;   23.250;  156.000;  219.000
412.960;  -85.450; -785.000; -784.000
413.086; -110.050; -743.000; -701.000
413.212;  187.600;  604.000;  578.000
413.339;  -47.750; -685.000; -701.000
413.465;   39.250; -364.000; -310.000
413.591;  -88.850; -757.000; -474.000
413.717;  -47.600; -358.000; -366.000
413.843; -133.250; -839.000; -861.000
413.969;  -52.050;  -47.000; -292.000
414.096; -110.450; -679.000; -679.000
414.222;   -5.125;  -33.000;   85.000
414.348;    0.075; -652.000; -385.000
414.474;  154.400;   38.000;  -52.000
414.600;   -3.975; -126.000; -144.000
414.726;  -17.000;  -96.000;  -55.000
414.852;  -72.025; -365.000; -342.000
414.978;   22.425;  104.000;  -18.000
415.104;   37.125;   38.000;   80.000
415.230;   16.375; -329.000; -330.000
415.356;   42.950; -409.000; -514.000
415.482;  204.200;   13.000;  -35.000
415.608;  222.925; -247.000; -323.000
415.734;  819.675;   67.000;   38.000
415.860;16977.675; -875.000; -767.000
415.986;11858.850; -685.000; -607.000
416.111;  954.575; -798.000; -652.000
416.237;  181.800; -424.000; -571.000
416.363;  863.725; -765.000; -733.000
416.489; 3157.950; -324.000; -251.000
416.615;  294.175; -707.000; -742.000
416.741;  -35.250; -677.000; -784.000
416.866; -108.675; -673.000; -736.000
416.992; -122.375; -801.000; -818.000
417.118;  -16.800;  -41.000;  -80.000
417.244;  -65.650; -798.000; -531.000
417.369;  -93.475; -801.000; -612.000
417.495;   14.275; -325.000; -254.000
417.621;  -87.550;-1015.000; -803.000
417.746;   13.650; -579.000; -572.000
417.872;   30.000; -254.000; -144.000
417.998;   35.600; -515.000; -530.000
418.123;  816.900;-1073.000; -845.000
418.249; 4160.225; -512.000; -601.000
418.374;  504.525; -916.000; -824.000
418.500;   78.175; -383.000; -482.000
418.626;   91.650;   70.000;  -59.000
418.751;  100.825; -549.000; -448.000
418.877;  150.425; -637.000; -643.000
419.002; 1441.325; -688.000; -560.000
419.128; 9718.000; -930.000; -721.000
419.253; 2230.675; -967.000; -837.000
419.379;  269.700; -391.000; -338.000
419.504;  310.525;  325.000;  415.000
419.629;  401.850; -393.000; -212.000
419.755; 2654.150; -317.000; -254.000
419.880;15306.325;  -98.000;   67.000
420.006; 9040.575; -280.000; -221.000
420.131;23572.925; -662.000; -775.000
420.256; 3300.475; -315.000; -316.000
420.382;  436.725; -665.000; -687.000
420.507;   42.175; -649.000; -778.000
420.632;  201.150; -337.000; -339.000
420.758;  386.250; -251.000; -425.000
420.883;  -68.625; -876.000; -672.000
421.008;  -96.175; -775.000; -619.000
421.133;  -70.000; -509.000; -467.000
421.259;  -43.225; -325.000; -259.000
421.384;  -91.900; -834.000; -693.000
421.509;  -11.250;-1052.000; -862.000
421.634; 1881.725; -936.000; -820.000
421.759;  784.175; -359.000; -327.000
421.885;  -37.500; -717.000; -656.000
422.010;  -71.150; -673.000; -542.000
422.135; -143.500; -695.000; -727.000
422.260;   48.675;  340.000;  280.000
422.385;  -43.650;   12.000;  -98.000
422.510;    6.850;  151.000;  -26.000
422.635;   28.325;  -87.000;  -43.000
422.760;  117.725; -766.000; -791.000
422.885;   62.450;  -57.000;  -80.000
423.010;  -36.550; -112.000; -169.000
423.135; -101.275; -481.000; -561.000
423.260;    4.000; -150.000; -245.000
423.385;   76.500;  476.000;  222.000
423.510;   32.875;   71.000;  -22.000
423.635;   95.325;  133.000;   45.000
423.760;   75.325;  383.000;  328.000
423.885;   41.625;  336.000;  391.000
424.010;    4.500;  -68.000;  -13.000
424.135;  -16.700;    5.000;  -33.000
424.259;  -80.450; -654.000; -457.000
424.384;  -65.325; -279.000; -272.000
424.509;  -33.975; -260.000; -186.000
424.634;  -89.525; -761.000; -623.000
424.759;  -21.875; -688.000; -544.000
424.883;  -40.550; -506.000; -527.000
425.008;  155.325; -502.000; -410.000
425.133; 1596.725; -679.000; -653.000
425.258;  720.600; -517.000; -381.000
425.382; 1315.775; -867.000; -774.000
425.507; 3321.225; -487.000; -543.000
425.632;  451.425; -802.000; -663.000
425.756;  351.575; -256.000; -146.000
425.881; 4670.275; -831.000; -857.000
426.006;11902.900; -604.000; -355.000
426.130; 1917.425; -696.000; -508.000
426.255;  230.300; -611.000; -491.000
426.379;   99.650; -189.000; -577.000
426.504;  322.775;  660.000;  544.000
426.629; 3430.425; -519.000; -466.000
426.753; 2270.425;   64.000;  -46.000
426.878;  261.150; -252.000; -288.000
427.002;  144.525; -651.000; -668.000
427.127; 1372.750;  -35.000; -158.000
427.251; 8977.025;  372.000;  401.000
427.375; 2489.500; -191.000; -173.000
427.500; 2856.350; -616.000; -610.000
427.624;  939.750; -234.000; -400.000
427.749;  120.300; -216.000; -225.000
427.873;  -25.725; -499.000; -412.000
427.997;  -40.750; -222.000; -230.000
428.122;   80.475;  795.000;  703.000
428.246;   90.550;  433.000;  434.000
428.371; -120.150; -869.000; -773.000
428.495; -104.700; -624.000; -646.000
428.619;  -11.625; -186.000; -117.000
428.743;   33.075;   65.000;  132.000
428.868;   53.425; -732.000; -643.000
428.992; 1852.625; -219.000; -326.000
429.116;  769.625; -329.000; -357.000
429.240;  370.100;  419.000;  426.000
429.365;    6.650; -454.000; -574.000
429.489;  -15.675; -638.000; -647.000
429.613;   32.400; -236.000; -177.000
429.737;   25.650; -563.000; -432.000
429.861;  225.400; -247.000; -133.000
429.985; 4539.425; -425.000; -305.000
430.109; 4749.700; -770.000; -908.000
430.234;  536.250;   76.000;  -50.000
430.358;   40.600; -250.000; -160.000
430.482;  -74.100; -672.000; -564.000
430.606;  -66.750; -655.000; -375.000
430.730;   68.650; -437.000; -388.000
430.854;  241.050; -909.000; -835.000
430.978;  -59.025; -795.000; -764.000
431.102;  -60.525; -499.000; -422.000
431.226;  -86.525; -874.000; -815.000
431.350;   38.900;  345.000;  422.000
431.474;  -66.225; -661.000; -373.000
431.597; -146.750;-1060.000; -848.000
431.721;  -83.800; -276.000; -267.000
431.845; -136.425; -704.000; -472.000
431.969;  -81.775; -304.000; -349.000
432.093;  -92.950; -395.000; -317.000
432.217;  -24.600;   32.000;   82.000
432.341; -100.775; -523.000; -518.000
432.464;   18.950;   96.000;   40.000
432.588;  321.400; -401.000; -329.000
432.712;  153.775;  -52.000;  -52.000
432.836;   39.225;  213.000;  263.000
432.959;  -34.250; -372.000; -311.000
433.083;   47.950;   11.000;    2.000
433.207;  294.050;  285.000;  930.000
433.330; 3916.175; -391.000; -200.000
433.454; 4619.900; -654.000; -638.000
433.578; 2807.725;  583.000;  278.000
433.701;  509.325; -623.000; -675.000
433.825;  218.750; -292.000; -299.000
433.949;  332.475;   28.000;  -72.000
434.072;  145.950; -410.000; -323.000
434.196;   -7.800; -309.000; -117.000
434.319; 3783.000;25482.000;25124.000
434.443;  727.150; -656.000; -603.000
434.566; 2133.525;  281.000;   62.000
434.690;  298.225; -637.000; -383.000
434.813;   39.025; -251.000; -173.000
434.937;  -71.475; -569.000; -696.000
435.060;   -7.275; -423.000; -332.000
435.184;  596.400; -492.000; -217.000
435.307;  298.775;  159.000;  102.000
435.431;  -10.550;  -40.000;   24.000
435.554;  -76.650; -399.000; -240.000
435.677;  -89.650; -350.000; -258.000
435.801;  -35.600;  -25.000;   49.000
435.924;   18.125;    1.000;  -67.000
436.048;  -84.450;-1019.000; -732.000
436.171;  -71.500; -240.000;  -66.000
436.294;  -31.900; -248.000; -229.000
436.417;   34.800; -963.000; -849.000
436.541; -106.325; -814.000; -840.000
436.664;  -43.300; -242.000; -316.000
436.787;  -20.800;   13.000;  113.000
436.910;  -99.350; -792.000; -422.000
437.034;   25.000;  142.000;  143.000
437.157;  116.900;  -11.000;    0.000
437.280;  -11.600; -392.000; -292.000
437.403;  -45.025; -982.000; -869.000
437.526; 1156.350; -903.000; -865.000
437.649; 3705.700; -505.000; -332.000
437.772;  576.175; -692.000; -540.000
437.896;  186.825;  700.000;  544.000
438.019;  -93.325; -758.000; -503.000
438.142;  -79.275; -596.000; -506.000
438.265;   36.175; -639.000; -670.000
438.388;  874.075; -520.000; -410.000
438.511;  196.675; -597.000; -394.000
438.634;  -39.325; -247.000; -125.000
438.757; -140.225; -693.000; -619.000
438.880;  -15.450;  -34.000;  -57.000
439.003;  -77.800; -417.000; -437.000
439.126;  -72.000; -287.000; -167.000
439.248;  -68.050;  -98.000; -139.000
439.371;  -25.500;    9.000;  -53.000
439.494;   25.775;  510.000;  439.000
439.617;  -59.525;   65.000;  -88.000
439.740; -173.725; -968.000; -816.000
439.863; -139.550; -755.000; -595.000
439.986; -119.275; -476.000; -431.000
440.108;  -40.725; -161.000; -112.000
440.231; -166.475; -950.000; -836.000
440.354;  -40.850;  -64.000; -150.000
440.477;   99.575; -566.000; -542.000
440.599;   46.925; -200.000; -225.000
440.722; -114.700; -709.000; -586.000
440.845;   71.100;  751.000;  928.000
440.968; -106.375; -415.000; -311.000
441.090;  -75.900; -199.000;  -33.000
441.213; -173.325;-1021.000; -825.000
441.336;  -51.450; -159.000;   -5.000
441.458;  -78.175; -549.000; -396.000
441.581;  -82.525; -628.000; -629.000
441.703;  -69.950; -152.000;   13.000
441.826; -120.775; -557.000; -400.000
441.948;  -45.375;   56.000;   51.000
442.071;   27.550;  555.000;  424.000
442.193; -117.250; -531.000; -485.000
442.316;   18.575;  152.000;   97.000
442.438;   24.600; -233.000;  -10.000
442.561;   86.175;  272.000;  262.000
442.683;  918.475; -809.000; -522.000
442.806; 1802.850;   -8.000;   74.000
442.928;  114.650; -859.000; -604.000
443.051;  -40.175; -577.000; -373.000
443.173;  -84.525; -341.000; -339.000
443.295;  -91.050; -263.000; -371.000
443.418;  -57.875; -321.000;  -29.000
443.540;   -6.725; -106.000;   -4.000
443.662; -123.375; -563.000; -465.000
443.785;  -14.850;  335.000;  199.000
443.907; -128.750; -362.000; -208.000
444.029; -128.525; -767.000; -494.000
444.152; -145.400; -644.000; -554.000
444.274;  -23.550;  -18.000;  -24.000
444.396; -121.675; -461.000; -221.000
444.518; -142.300; -691.000; -454.000
444.640; -111.825; -268.000; -111.000
444.763;  -21.050;  388.000;  249.000
444.885; -127.000; -432.000; -392.000
445.007;  -29.550;   35.000;   86.000
445.129; -125.075; -610.000; -515.000
445.251;  -99.725; -372.000; -439.000
445.373; -146.925; -537.000; -386.000
445.495;   -7.700;  242.000;  350.000
445.617;   61.100;  853.000;  753.000
445.739;  -70.650; -215.000;  -97.000
445.861;  -31.050; -245.000; -112.000
445.984;  -22.400; -267.000; -101.000
446.105;  311.975; -418.000; -251.000
446.227;  897.050; -176.000;  -19.000
446.349;   36.600; -358.000; -249.000
446.471;  -93.025; -615.000; -448.000
446.593;  -52.300; -316.000;   19.000
446.715;   10.350;  -67.000;   41.000
446.837;   69.675;  697.000;  832.000
446.959;  -93.600; -457.000; -478.000
447.081; -142.675; -628.000; -518.000
447.203;   63.650;  862.000;  834.000
447.325;  -97.350; -270.000;   42.000
447.446;   -0.925;  286.000;  530.000
447.568; -159.125; -921.000; -803.000
447.690;  -80.575; -236.000; -245.000
447.812; -163.050; -798.000; -519.000
447.933;  -44.325;  155.000;  127.000
448.055;  -63.450; -306.000; -261.000
448.177;  214.825;   31.000;   79.000
448.299;  174.500; -935.000; -727.000
448.420;   35.225;  -25.000;  159.000
448.542;  -50.225;   -3.000;   33.000
448.664;  -18.550;  109.000;  322.000
448.785;  -42.100;  265.000;   83.000
448.907;  -57.750; -614.000; -353.000
449.028;  -11.925; -771.000; -471.000
449.150;   58.050;  492.000;  589.000
449.272; -177.875;-1044.000; -913.000
449.393;   26.050;  612.000;  694.000
449.515; -152.325; -634.000; -581.000
449.636;  -48.700; -264.000; -155.000
449.758;   89.550;  763.000;  622.000
449.879; -100.625; -498.000; -396.000
450.001;  -83.525; -149.000;  -49.000
450.122;  -41.800;  -95.000;  162.000
450.244;  -36.550;   37.000;  364.000
450.365; -107.175; -495.000; -301.000
450.486;  -48.350;   80.000;  268.000
450.608;    1.700;  393.000;  326.000
450.729;   58.850;  578.000;  645.000
450.850;  -39.225; -574.000; -466.000
450.972;  531.200; -552.000; -389.000
451.093; 3563.525;  190.000;  588.000
451.214; 1430.825; -516.000; -337.000
451.336;  289.450;  773.000;  579.000
451.457;   45.600;  264.000;  393.000
451.578;  -47.875; -118.000;  -74.000
451.699; -127.450; -546.000; -540.000
451.821;  -68.700; -284.000;  -50.000
451.942;   -4.900;  278.000;  285.000
452.063;   18.075;  228.000;  419.000
452.184;  431.200;  -54.000;  -49.000
452.305;  836.825;  103.000;  170.000
452.427;   55.475; -549.000; -301.000
452.548;  -24.500;   23.000;   79.000
452.669;  -43.400; -257.000;  -89.000
452.790;  -34.200;    3.000;  -18.000
452.911;   -0.500;  195.000;  259.000
453.032;  -60.400; -289.000;  -60.000
453.153;  -31.325;  -29.000;   81.000
453.274;   63.450;  737.000;  868.000
453.395;  -42.950;  -51.000;  175.000
453.516;  127.775; 1317.000; 1388.000
453.637;  -59.225; -205.000; -150.000
453.758;  -61.125;   15.000;   69.000
453.879; -121.725; -462.000; -250.000
454.000;   69.300; 1086.000;  948.000
454.121; -119.950; -554.000; -326.000
454.242; -118.200; -599.000; -383.000
454.362;  -66.425;  -99.000;  114.000
454.483;  -39.150; -309.000; -229.000
454.604;   68.400;  512.000;  580.000
454.725; -119.125; -627.000; -555.000
454.846; -115.975; -474.000; -406.000
454.967;  -28.225;  230.000;  539.000
455.087;  -40.325;  179.000;  153.000
455.208;    2.800;  554.000;  856.000
455.329;  -72.000;  -22.000;   82.000
455.450;   21.275;  473.000;  633.000
455.570; -107.825; -234.000; -211.000
455.691;  -29.650;  201.000;  407.000
455.812; -107.800; -270.000;  -92.000
455.932;  -53.900;  107.000;  -97.000
456.053;  -94.075;   36.000;   24.000
456.173; -122.900; -433.000; -355.000
456.294; -130.200; -476.000; -303.000
456.415;  -61.275;  -73.000;   70.000
456.535;  -33.925;  297.000;  273.000
456.656;  -58.475;  132.000;  240.000
456.776;  -57.050;    3.000;  298.000
456.897;   10.325;  308.000;  513.000
457.017;  -93.550; -153.000;   -3.000
457.138; -102.900; -402.000; -249.000
457.258;  -15.525;  263.000;  224.000
457.379;   -7.150;  509.000;  521.000
457.499;  -14.000;  443.000;  432.000
457.620; -136.475; -407.000; -231.000
457.740;  -97.675; -132.000;  -11.000
457.860;  -61.225;   87.000;   44.000
457.981;  -56.150;  132.000;  124.000
458.101;  -78.800;  -89.000;   40.000
458.221;  -32.650;  336.000;  402.000
458.342;  -62.300;   -4.000;  -37.000
458.462;   -2.050;  617.000;  352.000
458.582;  -67.075; -302.000; -294.000
458.703;  -25.850;  303.000;  154.000
458.823;  -32.800;   22.000;  163.000
458.943;    6.775;  341.000;  467.000
459.063;  -14.250; 1124.000;  192.000
459.183;  -17.100;  328.000;  313.000
459.304;   -0.075;  315.000;  517.000
459.424;  -79.900; -246.000;  -89.000
459.544;  260.300;  388.000;  764.000
459.664;  624.500;  499.000;  506.000
459.784;  246.700; 1004.000; 1175.000
459.904;   51.175;  867.000;  744.000
460.024;   74.400;  867.000;  684.000
460.144;   13.725;  449.000;  554.000
460.264;   -5.000;  515.000;  327.000
460.385; -102.050; -145.000; -119.000
460.505;   45.175;  905.000;  858.000
460.625; -117.600;  -17.000;  -68.000
460.745;  -13.075;  396.000;  541.000
460.864;  -43.350;  153.000;  469.000
460.984;   25.200;  499.000;  573.000
461.104;  131.525; 1656.000; 1775.000
461.224;   25.575;  657.000;  650.000
461.344;  -31.475;  431.000;  360.000
461.464;  -32.900;  258.000;  513.000
461.584;  -16.275;  283.000;  466.000
461.704;  -34.650;   58.000;  108.000
461.824;  -66.675;  238.000;  259.000
461.943;  -40.700;  191.000;  130.000
462.063;  -82.475;    2.000;  324.000
462.183;   56.600;  639.000;  717.000
462.303;  114.900; 1678.000; 1230.000
462.422;   11.700;  781.000;  840.000
462.542;  -46.550;  271.000;  391.000
462.662;   51.300;  353.000;  380.000
462.782;  206.200;  833.000;  572.000
462.901;  379.775;  545.000;  717.000
463.021;  233.175; 1702.000; 1638.000
463.141;  -25.800;  337.000;  770.000
463.260;  -20.025;  614.000;  474.000
463.380;   22.025;  902.000;  884.000
463.499;  -42.750;  342.000;  332.000
463.619;  -35.650;  581.000;  559.000
463.738;  115.575; 1644.000;  903.000
463.858;   17.425;  657.000;  811.000
463.978;  -29.950;  542.000;  396.000
464.097;   57.925;  921.000; 1114.000
464.217;   91.825; 1196.000; 1143.000
464.336;   81.175; 1068.000; 1130.000
464.455;  -39.200;  328.000;  659.000
464.575;   46.925;  597.000;  602.000
464.694;  194.150; 1204.000; 1179.000
464.814;  132.575; 1190.000; 1138.000
464.933;   90.425; 1095.000; 1027.000
465.052;   91.025; 1412.000; 1054.000
465.172;  101.875;  922.000;  799.000
465.291;  162.400; 1376.000; 1320.000
465.410;   10.625;  462.000;  735.000
465.530;   90.925; 1355.000; 1310.000
465.649;   72.650; 1209.000; 1273.000
465.768;  152.500; 1673.000; 1508.000
465.888;   39.425;  941.000; 1174.000
466.007;   84.950; 1335.000; 1440.000
466.126;  -14.575;  721.000;  641.000
466.245;   35.525; 1176.000; 1187.000
466.364;   23.575;  950.000; 1060.000
466.484;   61.025; 1024.000; 1213.000
466.603;   33.075; 1101.000; 1222.000
466.722;  123.700; 1490.000; 1769.000
466.841;   74.325; 1151.000; 1401.000
466.960;   42.025; 1069.000;  972.000
467.079;  146.850; 1971.000; 1786.000
467.198;   47.100; 1238.000; 1181.000
467.317;   76.100; 1768.000; 1162.000
467.436;   68.325; 1709.000; 1261.000
467.555;  113.525; 1796.000; 1746.000
467.674;   62.725; 1227.000; 1329.000
467.793;   53.175; 1376.000; 1374.000
467.912;   90.625; 1658.000; 1539.000
468.031;  137.875; 2038.000; 1930.000
468.150;  154.250; 1842.000; 1837.000
468.269;  212.725; 2313.000; 2090.000
468.388;  196.175; 2168.000; 2339.000
468.507;  245.875; 2884.000; 2903.000
468.626;  266.600; 2555.000; 2541.000
468.744;  142.750; 2018.000; 2174.000
468.863;  200.900; 2312.000; 2523.000
468.982;   83.800; 1503.000; 1555.000
469.101;  232.950; 2788.000; 2692.000
469.220;  132.725; 2333.000; 2176.000
469.338;  267.275; 2935.000; 3051.000
469.457;  188.975; 2719.000; 2545.000
469.576;  336.950; 3953.000; 3784.000
469.695;  249.625; 2877.000; 3066.000
469.813;  421.875; 4148.000; 4192.000
469.932;  410.450; 4255.000; 4485.000
470.051;  405.875; 4075.000; 4161.000
470.169;  783.200; 4470.000; 4338.000
470.288; 1228.025; 4700.000; 4809.000
470.406;  766.325; 5059.000; 5194.000
470.525;  620.000; 6101.000; 5787.000
470.644;  653.975; 6847.000; 6794.000
470.762;  812.925; 8397.000; 7873.000
470.881;  891.325; 8651.000; 8464.000
470.999; 1028.550; 9685.000; 9151.000
471.118; 1103.700;11174.000;10711.000

