
Integration time [ms]: 100.000
Averaging Nr. [scans]: 40
Smoothing Nr. [pixels]: 0
Data measured with spectrometer [name]: 2101012U2
Wave   ;Sample   ;Dark     ;Reference
[nm]   ;[counts] ;[counts] ;[counts] 

197.733;   45.325;  516.000;  404.000
197.879;  -70.725; -610.000; -634.000
198.025;  -55.800; -475.000; -420.000
198.171;  -87.875; -602.000; -612.000
198.317;  -28.925; -401.000; -316.000
198.463;  -60.725; -655.000; -404.000
198.609;   25.700;  181.000; -137.000
198.755;  -80.125; -644.000; -410.000
198.901;  -74.475; -505.000; -424.000
199.047;  -65.675; -615.000; -488.000
199.193;  -31.850; -230.000; -468.000
199.339;  -37.125; -222.000; -369.000
199.485;   45.700;  330.000;  271.000
199.631;   17.775;  227.000;  310.000
199.777;  -46.775; -466.000; -398.000
199.923;  -70.675; -610.000; -424.000
200.069;    8.000; -141.000;  -58.000
200.215;   53.075;  128.000;  453.000
200.361;   35.325;  243.000;  477.000
200.507;  -80.750; -600.000; -373.000
200.653;  -16.100; -371.000; -194.000
200.798;  -40.725; -215.000; -125.000
200.944;   -3.800; -146.000;  -41.000
201.090;   22.375;   61.000;  222.000
201.236;  -10.600; -116.000; -158.000
201.382;  134.075;  874.000;  903.000
201.528;   -2.275;  -58.000;  -48.000
201.674;  -26.600; -386.000; -293.000
201.819;  -72.100; -540.000; -439.000
201.965;  -82.175; -699.000; -447.000
202.111;  -19.125; -273.000; -226.000
202.257;  -34.000; -250.000; -238.000
202.402;   -2.750;   13.000;  -36.000
202.548;  -36.925; -169.000; -116.000
202.694;   75.350;  410.000; -183.000
202.840;  -56.950; -603.000; -531.000
202.985;  -70.425; -681.000; -639.000
203.131; -108.050; -832.000; -666.000
203.277;  -31.750; -199.000; -262.000
203.423;  -54.575; -434.000; -520.000
203.568;  -28.275; -462.000; -237.000
203.714;  -75.525; -535.000; -542.000
203.860;  -83.300; -682.000; -641.000
204.005;   12.575;  112.000;  167.000
204.151;   78.575;  561.000;  556.000
204.296;  -45.100; -354.000; -221.000
204.442;  -62.300; -600.000; -547.000
204.588;  -82.400; -592.000; -579.000
204.733;   19.675;  178.000;  168.000
204.879; -132.625;-1018.000; -822.000
205.025;  -10.000;  -99.000;  126.000
205.170;   -0.725;  -17.000;   94.000
205.316;   71.750;  438.000;  661.000
205.461;  -80.975; -698.000; -554.000
205.607;   88.500;  609.000;  665.000
205.752;  -85.475; -626.000; -551.000
205.898;  -56.375; -501.000; -391.000
206.043;  -56.975; -578.000; -506.000
206.189;  -49.075; -243.000; -285.000
206.334;   76.375;  554.000;  606.000
206.480;   63.425;  409.000;  239.000
206.625;  -83.175; -529.000; -552.000
206.771;  -50.400; -451.000; -373.000
206.916;  -32.550; -210.000; -537.000
207.062;  -71.650; -545.000; -591.000
207.207;  -70.675; -546.000; -443.000
207.353;   48.275;  185.000;  460.000
207.498;   12.525;  196.000;   85.000
207.643;  -51.500; -501.000; -370.000
207.789; -134.700;-1069.000; -910.000
207.934;  -94.750; -665.000; -713.000
208.080;  -20.850; -154.000;   66.000
208.225;   -6.625;  -22.000;  -57.000
208.370;  -84.225; -727.000; -619.000
208.516;  -81.050; -741.000; -487.000
208.661;  -30.800; -127.000;  -69.000
208.806;  -25.850; -165.000; -171.000
208.952; -113.900;-1044.000; -731.000
209.097;   64.275;  378.000;  349.000
209.242;  -44.650; -307.000; -382.000
209.387;   63.475;  392.000;  350.000
209.533;  -52.275; -321.000; -350.000
209.678;   73.875;  472.000;  543.000
209.823;  -45.025; -408.000; -310.000
209.969;  -96.450; -860.000; -757.000
210.114; -125.800; -907.000; -719.000
210.259; -125.300; -939.000; -889.000
210.404;   -5.700; -171.000;  103.000
210.549;   13.600;  108.000;    3.000
210.695;  -34.950;   -3.000;  -95.000
210.840;   33.200;   94.000;   67.000
210.985;  -63.400; -484.000; -303.000
211.130;   59.800;  268.000;  406.000
211.275;   24.725;  207.000;  199.000
211.420;  -59.300; -300.000; -289.000
211.566;  -78.550; -536.000; -489.000
211.711;   11.575;  218.000;  157.000
211.856;  -66.250; -545.000; -519.000
212.001;   18.200;  151.000;   44.000
212.146;   29.025;  153.000;   49.000
212.291;  -26.050; -210.000; -186.000
212.436;  -32.325; -280.000;   -6.000
212.581;  -87.500; -685.000; -653.000
212.726;  -73.275; -487.000; -538.000
212.871;  -49.300; -552.000; -217.000
213.016; -149.075;-1172.000;-1029.000
213.161;   67.800;  406.000;  291.000
213.306;  -68.800; -435.000; -577.000
213.451;  -86.800; -778.000; -689.000
213.596;  -54.475; -455.000; -347.000
213.741;  -62.275; -448.000; -538.000
213.886;  -75.725; -498.000; -517.000
214.031;  -31.075; -294.000; -124.000
214.176;  -48.975; -408.000; -341.000
214.321;  -16.675; -296.000; -157.000
214.466;  -26.150; -163.000;  -43.000
214.611;    3.875;  -61.000;  -10.000
214.756; -123.475; -948.000; -858.000
214.901;  -28.825; -388.000; -226.000
215.046; -130.625; -797.000; -825.000
215.191;   12.575;  128.000;   35.000
215.336;  -23.575; -157.000;  -19.000
215.480;  -73.025; -684.000; -505.000
215.625;  -13.600; -175.000;  -19.000
215.770;  -79.300; -757.000; -662.000
215.915;  -16.700;   -5.000;  -97.000
216.060;   -7.100; -113.000;  -21.000
216.205; -107.200; -731.000; -779.000
216.349;  -76.800; -470.000; -533.000
216.494; -144.125; -939.000; -867.000
216.639; -119.800; -823.000; -888.000
216.784;  -90.900; -577.000; -525.000
216.929;   53.400;  392.000;  281.000
217.073;  -15.050; -244.000;  -31.000
217.218;    6.525;   78.000;  -47.000
217.363;  -85.475; -656.000; -618.000
217.507;  -77.675; -623.000; -588.000
217.652; -131.850; -845.000; -874.000
217.797;  -88.525; -708.000; -659.000
217.942;  -99.925; -856.000; -720.000
218.086;   71.700;  608.000;  539.000
218.231;  -15.925; -174.000;  -26.000
218.376;  -23.025; -337.000; -229.000
218.520;  -15.375;  -41.000;   96.000
218.665;  -43.175; -338.000; -204.000
218.810;  -35.800; -275.000; -233.000
218.954;   16.400;  201.000;   35.000
219.099; -114.850; -713.000; -963.000
219.243;  -65.725; -589.000; -554.000
219.388;  -26.875; -264.000; -136.000
219.532;  -13.275; -116.000; -116.000
219.677;  -76.500; -564.000; -521.000
219.822;   -0.125;   33.000;   89.000
219.966;   15.425;   17.000;  -99.000
220.111;  -41.850; -328.000;  -40.000
220.255; -103.975; -797.000; -750.000
220.400;  -26.400; -180.000; -146.000
220.544;  -66.350; -516.000; -450.000
220.689;  -60.400; -422.000; -451.000
220.833;  -21.500; -123.000;  -58.000
220.978;  -55.275; -393.000; -563.000
221.122;   23.525;  319.000;  307.000
221.267; -119.475; -906.000; -837.000
221.411;  -64.075; -478.000; -394.000
221.555;  -18.275; -104.000;  -23.000
221.700;  -47.850; -329.000; -222.000
221.844;   34.225;  255.000;  272.000
221.989;  -50.950; -328.000; -311.000
222.133;  -39.400; -289.000; -307.000
222.277;  -11.250;    5.000;   78.000
222.422;    0.050;  227.000;  113.000
222.566;  -43.100; -381.000; -214.000
222.711;  -62.000; -414.000; -479.000
222.855;  -80.450; -643.000; -586.000
222.999;  -88.375; -642.000; -717.000
223.144;  -27.075; -195.000; -194.000
223.288;   48.475;  423.000;  251.000
223.432;   19.925;  184.000;  230.000
223.576;   17.950;  152.000;  -21.000
223.721;   42.425;  364.000;  273.000
223.865;  -49.900; -472.000; -475.000
224.009;  257.625; 1673.000; 1631.000
224.153;  -76.100; -660.000; -671.000
224.298;  -72.450; -531.000; -489.000
224.442;  -23.850;  -74.000;  -33.000
224.586;  -11.975; -169.000; -106.000
224.730;  -96.525; -858.000; -670.000
224.875; -114.250; -739.000; -688.000
225.019;    3.075;  102.000;  188.000
225.163;   60.150;  208.000;  341.000
225.307;    7.775;   97.000;  -91.000
225.451;   52.800;  360.000;  481.000
225.595;   34.475;  264.000;  176.000
225.739;  -24.925; -170.000;  -94.000
225.884;   -8.875;   86.000;    5.000
226.028; -113.925; -760.000; -626.000
226.172;  -44.950; -260.000; -273.000
226.316; -116.450; -941.000; -902.000
226.460;  -74.500; -645.000; -493.000
226.604;  -34.325; -406.000; -400.000
226.748; -107.050; -836.000; -733.000
226.892;  -41.625; -227.000; -181.000
227.036;  -46.700; -537.000; -447.000
227.180;  -51.900; -551.000; -375.000
227.324;  -69.250; -561.000; -580.000
227.468; -127.675; -819.000; -717.000
227.612;   11.800;  242.000;  -28.000
227.756;  -95.650; -845.000; -698.000
227.900;   37.250;  342.000;  441.000
228.044;  -66.225; -509.000; -290.000
228.188;   59.275;  448.000;  568.000
228.332;  -88.950; -546.000; -472.000
228.476;  -37.150; -223.000; -149.000
228.620;  -25.400; -210.000; -150.000
228.764;   64.200;  431.000;  349.000
228.908;  -30.975; -155.000;   30.000
229.052;  -68.450; -615.000; -528.000
229.195;  -12.475; -172.000;   13.000
229.339;  -33.300; -235.000; -305.000
229.483;  -32.500;    5.000; -162.000
229.627;   -3.950; -156.000;  139.000
229.771;  -43.250; -218.000; -294.000
229.915;    9.525;  230.000;   79.000
230.059;  -99.850; -648.000; -663.000
230.202;  -53.250; -370.000; -317.000
230.346;  -17.725; -107.000;  107.000
230.490;  -67.600; -489.000; -521.000
230.634; -113.000; -736.000; -553.000
230.777;   72.625;  478.000;  509.000
230.921;  -54.475; -450.000; -359.000
231.065;  -37.850; -246.000; -286.000
231.209;   28.800;  261.000;  265.000
231.352;    8.650;   54.000;   40.000
231.496;   20.525;  568.000;  188.000
231.640;  -88.300; -693.000; -621.000
231.783;   68.900;  546.000;  525.000
231.927;  -50.775; -294.000; -365.000
232.071; -131.700; -962.000; -736.000
232.214; -105.125; -980.000; -764.000
232.358; -103.850; -683.000; -599.000
232.502;   16.050;  -19.000;    7.000
232.645; -142.675;-1090.000; -927.000
232.789;  -22.950; -257.000; -218.000
232.933;  -48.425; -407.000; -224.000
233.076; -135.300;-1038.000; -897.000
233.220; -109.975; -752.000; -777.000
233.363;  -76.075; -669.000; -477.000
233.507;   61.125;  371.000;  129.000
233.650; -103.825; -764.000; -834.000
233.794;   53.175;  438.000;  461.000
233.938;  -63.075; -530.000; -362.000
234.081;  -21.100;  -93.000;   31.000
234.225;  -75.725; -631.000; -539.000
234.368; -125.300; -773.000; -723.000
234.512;  -53.400; -385.000; -299.000
234.655;  -90.900; -582.000; -555.000
234.798;  -71.575; -493.000; -466.000
234.942; -132.575; -884.000;-1002.000
235.085;  -77.725; -651.000; -443.000
235.229;  -66.025; -405.000; -410.000
235.372;  -57.900; -247.000; -191.000
235.516;  -55.900; -397.000; -321.000
235.659;   22.275;   92.000;  121.000
235.802;  -25.725;  -38.000;  -22.000
235.946;   16.375;  335.000;  215.000
236.089;   20.550;  126.000;  250.000
236.233;   42.450;  275.000;  298.000
236.376;  -50.950; -235.000; -378.000
236.519;  -60.775; -297.000; -319.000
236.663;  -10.750; -215.000; -117.000
236.806; -137.525;-1029.000; -999.000
236.949;   38.325;  543.000;  431.000
237.092;   63.275;  412.000;  391.000
237.236;  -97.700; -589.000; -502.000
237.379;   53.975;  352.000;  428.000
237.522; -125.000; -879.000; -768.000
237.666;  -28.025; -271.000;   18.000
237.809; -120.300; -851.000; -823.000
237.952;   35.150;  469.000;  271.000
238.095;  -59.450; -447.000; -442.000
238.238;   88.800;  688.000;  700.000
238.382;   -5.625;  166.000;  103.000
238.525;  -78.100; -598.000; -511.000
238.668; -145.950;-1060.000; -985.000
238.811;  -87.025; -638.000; -643.000
238.954;  -76.300; -483.000; -334.000
239.097;   78.700;  617.000;  664.000
239.241;   22.500;  394.000;  326.000
239.384;  -34.550; -254.000; -214.000
239.527;  -50.150; -424.000; -224.000
239.670; -163.300; -994.000;-1091.000
239.813; -120.775; -696.000; -658.000
239.956;   87.600;  579.000;  473.000
240.099; -122.225; -778.000; -725.000
240.242;   65.250;  428.000;  432.000
240.385;   57.450;  466.000;  450.000
240.528;  -66.425; -706.000; -473.000
240.671;   14.850;  189.000;  134.000
240.814;  -66.900; -441.000; -158.000
240.957; -101.800; -767.000; -578.000
241.100; -100.625; -779.000; -755.000
241.243; -137.700;-1234.000; -893.000
241.386;  -64.525; -508.000; -379.000
241.529;  -89.700; -735.000; -547.000
241.672;  -80.075; -566.000; -495.000
241.815; -114.275; -832.000; -808.000
241.958;  -26.125; -125.000; -182.000
242.101;  -80.075; -545.000; -390.000
242.244;  -42.825; -270.000; -325.000
242.387;  -40.750; -304.000; -246.000
242.530;   43.675;  470.000;  134.000
242.673;  -53.125; -381.000; -309.000
242.815; -116.625; -925.000; -899.000
242.958;  -76.550; -482.000; -381.000
243.101;   -1.175;  132.000;  187.000
243.244;  -81.500; -564.000; -521.000
243.387;  -54.200; -313.000; -316.000
243.530; -101.075; -657.000; -674.000
243.672;    7.275;   43.000;  -92.000
243.815;  -53.575; -355.000; -283.000
243.958;   -1.525;   98.000;  -26.000
244.101;   -8.500;   59.000;  -16.000
244.243;  -13.550;  -47.000;  101.000
244.386; -113.925; -761.000; -630.000
244.529;  -18.700; -132.000; -139.000
244.672; -158.400;-1154.000; -951.000
244.814; -113.050; -621.000; -794.000
244.957;  -57.525; -380.000; -304.000
245.100;  -67.350; -489.000; -489.000
245.242;  -77.725; -387.000; -374.000
245.385;  -13.375;  -59.000;  -39.000
245.528; -110.900; -871.000; -705.000
245.670;   80.025;  612.000;  634.000
245.813;  -95.875; -599.000; -547.000
245.956;  -39.100; -324.000; -275.000
246.098;  -86.350; -508.000; -650.000
246.241;    1.075;  194.000;   48.000
246.383;  -17.550; -119.000;  -73.000
246.526;  -77.525; -454.000; -525.000
246.669; -122.475; -889.000; -780.000
246.811;   24.050;  172.000;   -1.000
246.954;  -77.000; -512.000; -426.000
247.096;  -20.825;  -84.000;   -6.000
247.239;  -69.000; -482.000; -445.000
247.381;  -68.950; -647.000; -488.000
247.524;   82.625;  645.000;  679.000
247.666;  -10.725;   58.000;   11.000
247.809; -117.275; -887.000; -691.000
247.951;  -18.200;  -75.000;  138.000
248.094;   19.400;  432.000;  308.000
248.236; -158.075;-1262.000;-1238.000
248.378;   -2.500; -356.000;  -81.000
248.521;  -31.825; -334.000; -337.000
248.663;  -57.875; -236.000; -267.000
248.806;  -27.025; -300.000; -266.000
248.948;  -97.825; -886.000; -763.000
249.090;  -51.275; -428.000; -398.000
249.233;  -51.900; -344.000; -381.000
249.375;  -73.425; -474.000; -451.000
249.518;  -24.025;  -83.000; -133.000
249.660;  -11.150; -103.000;    3.000
249.802; -168.275;-1303.000;-1189.000
249.945;  -72.375; -612.000; -540.000
250.087; -115.500; -834.000; -768.000
250.229;  -58.775; -362.000; -480.000
250.371;  -77.425; -494.000; -439.000
250.514;  -57.125; -310.000; -244.000
250.656;  -77.125;   69.000;  102.000
250.798; -123.650; -849.000; -800.000
250.940;  -77.650; -322.000; -322.000
251.083;  -30.550; -335.000; -111.000
251.225;   56.850;  338.000;  310.000
251.367;  -38.325; -274.000; -373.000
251.509;  -33.175; -265.000; -210.000
251.651; -107.700; -731.000; -671.000
251.794;   63.825;  538.000;  632.000
251.936;  -97.050; -821.000; -747.000
252.078;  -71.525; -540.000; -461.000
252.220;  -75.075; -645.000; -477.000
252.362;   81.700;  344.000;  462.000
252.504;  -80.225; -677.000; -584.000
252.646; -119.875; -875.000; -722.000
252.788;   -6.025;   14.000; -128.000
252.931;  -31.825; -257.000; -253.000
253.073;  -44.625; -376.000; -317.000
253.215;  -15.775;  141.000;  122.000
253.357;  -17.275;   82.000; -153.000
253.499;  -52.875; -374.000; -234.000
253.641;  -96.050; -749.000; -594.000
253.783;  -99.925; -609.000; -527.000
253.925;  -96.850; -586.000; -591.000
254.067; -111.150; -744.000; -667.000
254.209;  -36.400; -391.000; -259.000
254.351; -144.375; -865.000; -883.000
254.493;  -62.050; -441.000; -417.000
254.635; -134.500; -936.000; -818.000
254.777;  -96.875; -752.000; -687.000
254.918;  -53.525; -512.000; -430.000
255.060;  -56.600; -551.000; -395.000
255.202;  -68.750; -473.000; -261.000
255.344;  -80.325; -658.000; -455.000
255.486;  -71.575; -471.000; -406.000
255.628; -119.475; -780.000; -781.000
255.770;  -88.275; -676.000; -536.000
255.912;  -69.400; -559.000; -468.000
256.053;  -95.325; -730.000; -508.000
256.195;  150.625; 1008.000;  903.000
256.337;  -87.025; -861.000; -595.000
256.479;   49.025;  532.000;  416.000
256.621;  -50.525; -394.000; -212.000
256.762;  -85.650; -789.000; -742.000
256.904;   58.875;  485.000;  487.000
257.046;  -41.850; -381.000; -271.000
257.188;  -48.625; -351.000; -264.000
257.329;  -73.550; -525.000; -464.000
257.471; -124.450; -939.000; -807.000
257.613;  -61.375; -584.000; -498.000
257.755; -155.875;-1073.000; -982.000
257.896;   35.425;  286.000;  392.000
258.038;  -73.600; -403.000; -352.000
258.180;  -38.475; -354.000; -279.000
258.321;  -89.600; -581.000; -457.000
258.463;   -9.875;  -71.000;  133.000
258.605;  -97.500; -562.000; -570.000
258.746; -111.100; -886.000; -772.000
258.888; -175.325;-1026.000;-1020.000
259.029;   19.500;  121.000;   -8.000
259.171;  -84.075; -614.000; -550.000
259.313;   -5.125;  -49.000;  -47.000
259.454;  -65.850; -536.000; -414.000
259.596;  -61.775; -483.000; -390.000
259.737;  -82.875; -590.000; -474.000
259.879;   21.000;  217.000;  311.000
260.020;   91.675;  901.000;  636.000
260.162;  -28.500; -146.000; -253.000
260.303; -124.550; -768.000; -687.000
260.445;  -78.100; -609.000; -613.000
260.586;   19.975;  392.000;  157.000
260.728;  -58.125; -360.000; -248.000
260.869; -121.600; -350.000; -343.000
261.011;   92.200;  706.000;  537.000
261.152;  -54.250; -479.000; -319.000
261.293;  -91.375; -576.000; -595.000
261.435;  -38.150; -219.000; -184.000
261.576;  -63.250; -455.000; -325.000
261.718;   36.100;  420.000;  470.000
261.859; -140.875; -940.000; -949.000
262.000; -131.225; -951.000;-1016.000
262.142;  -25.275;  -52.000;  -60.000
262.283; -110.700; -808.000; -691.000
262.424;  -84.825; -666.000; -625.000
262.566; -146.625;-1161.000; -983.000
262.707; -118.075; -840.000; -830.000
262.848; -123.575; -769.000; -726.000
262.990;  -47.275; -362.000; -345.000
263.131;   76.825;  650.000;  681.000
263.272;  -20.450;  -61.000;  -41.000
263.413;  -93.475; -589.000; -561.000
263.555;  -79.700; -669.000; -143.000
263.696;  -97.550; -550.000; -641.000
263.837;  -64.050; -449.000; -551.000
263.978;  -12.425;   -5.000;  -77.000
264.119;  -46.450; -283.000; -264.000
264.261; -117.850; -847.000; -630.000
264.402;    0.900;   33.000;   40.000
264.543;  -95.775; -509.000; -524.000
264.684;   -7.625;   61.000;  -50.000
264.825;  -76.700; -816.000; -538.000
264.966;  -14.400;  -84.000;  -67.000
265.107; -113.850; -646.000; -670.000
265.248; -123.250; -825.000; -812.000
265.390;  -18.950;  152.000;   -9.000
265.531;  -29.625; -238.000; -107.000
265.672;  -82.675; -557.000; -630.000
265.813;   38.050;  563.000;  439.000
265.954; -158.925; -959.000; -940.000
266.095;  -17.725; -372.000; -322.000
266.236; -108.775; -686.000; -548.000
266.377;  -36.200; -243.000; -297.000
266.518;  -73.575; -619.000; -547.000
266.659;   20.100;  170.000;  268.000
266.800;   -8.925;   83.000;   85.000
266.941;  -75.400; -487.000; -478.000
267.082;   27.250;  354.000;   99.000
267.223;  -56.825; -344.000; -273.000
267.364; -115.775; -892.000; -686.000
267.504;  -20.550;    3.000;  135.000
267.645;    3.400;  160.000;   67.000
267.786;  -21.300; -147.000;  -86.000
267.927;  -72.125; -473.000; -379.000
268.068;  -32.150; -186.000;  -61.000
268.209;  -43.650; -175.000; -413.000
268.350;  -80.275; -388.000; -532.000
268.490;  -87.275; -648.000; -521.000
268.631;   23.200;  127.000;  225.000
268.772; -123.800; -874.000; -647.000
268.913;  -53.075; -328.000; -476.000
269.054;  -29.475; -117.000;   12.000
269.194;  -58.275; -418.000; -402.000
269.335; -159.750;-1137.000;-1074.000
269.476;  -31.650;   33.000;  -35.000
269.617;  -50.225; -347.000; -392.000
269.757;  -92.650; -713.000; -646.000
269.898; -103.950; -856.000; -613.000
270.039;  -73.850; -415.000; -405.000
270.180; -132.125; -952.000; -816.000
270.320;  -28.075; -190.000; -250.000
270.461;  -49.500; -277.000; -249.000
270.602;  -11.975; -186.000; -156.000
270.742; -122.350; -868.000; -943.000
270.883;  -53.100; -442.000; -390.000
271.023;  -70.300; -358.000; -357.000
271.164;  -93.375; -607.000; -528.000
271.305; -102.175; -666.000; -654.000
271.445; -103.025; -722.000; -683.000
271.586;  -67.300; -462.000; -283.000
271.726;  -48.725; -397.000; -322.000
271.867;  -66.450; -594.000; -534.000
272.008;  180.975; -473.000; -285.000
272.148;  144.300;  462.000;  468.000
272.289;   11.700; -113.000; -181.000
272.429;    3.000;   19.000;  185.000
272.570;  -89.100; -633.000; -737.000
272.710; -105.725; -825.000; -775.000
272.851;  -33.275;  113.000; -130.000
272.991; -154.725;-1173.000;-1077.000
273.131;  -72.800; -419.000; -459.000
273.272; -117.950; -683.000; -723.000
273.412;    5.700; -143.000;  -31.000
273.553;  -59.475; -488.000; -507.000
273.693;  133.625;  913.000;  858.000
273.834; -103.000; -894.000; -692.000
273.974;  -82.375; -664.000; -615.000
274.114; -106.300; -772.000; -560.000
274.255;   83.050;  414.000;  373.000
274.395;   -1.900; -180.000; -125.000
274.535;   41.550;  199.000;  350.000
274.676;   16.500;  225.000;   94.000
274.816;   -7.325;  110.000;   34.000
274.956;  -85.000; -624.000; -690.000
275.097;  -54.100;-1014.000; -922.000
275.237; -108.850; -913.000; -803.000
275.377; -107.875; -778.000; -689.000
275.517; -160.950; -878.000; -937.000
275.658;  -62.675; -590.000; -555.000
275.798;  -81.950; -606.000; -413.000
275.938;   19.400;  215.000;  323.000
276.078;  -99.000; -626.000; -395.000
276.218;   -5.050;   99.000;  104.000
276.359; -121.250;-1026.000;-1024.000
276.499;  -68.850; -605.000; -446.000
276.639;  -45.000; -305.000; -151.000
276.779;  -47.400; -475.000; -357.000
276.919; -106.925; -783.000; -624.000
277.059;  -21.425; -261.000; -212.000
277.199;  -45.050; -357.000; -259.000
277.340;   35.175;  287.000;  175.000
277.480; -125.600; -840.000; -693.000
277.620;   26.525;  192.000;   16.000
277.760; -202.475;-1533.000;-1294.000
277.900;   15.500;  113.000;   33.000
278.040;   14.825;  137.000;  159.000
278.180;   38.875;  270.000;  170.000
278.320;   -5.700;   21.000;   56.000
278.460;  -72.900; -443.000; -469.000
278.600;  -89.925; -708.000; -598.000
278.740;   44.100;  448.000;  224.000
278.880;  -55.800; -768.000; -791.000
279.020;  -24.325; -194.000; -144.000
279.160;  -96.450; -672.000; -595.000
279.300; -128.525; -926.000; -873.000
279.440;  -83.475; -709.000; -622.000
279.579;  -10.325;-1014.000; -929.000
279.719;  -41.175; -410.000; -394.000
279.859;   69.775;   -4.000;   41.000
279.999;   35.950; -208.000;  101.000
280.139;  -29.400; -435.000; -387.000
280.279;  -77.075; -708.000; -745.000
280.419;   -7.125; -229.000; -147.000
280.559;  -34.100; -259.000; -180.000
280.698;  -87.550; -790.000; -639.000
280.838;  -93.975; -778.000; -800.000
280.978; -103.975; -846.000; -790.000
281.118; -111.975; -811.000; -704.000
281.257;   -3.725;   24.000;    6.000
281.397; -115.175;-1094.000; -960.000
281.537;  -84.700; -599.000; -712.000
281.677;  -21.525; -150.000; -101.000
281.816; -104.275; -700.000; -630.000
281.956;  -34.075; -193.000; -257.000
282.096;  -66.225; -539.000; -396.000
282.235; -119.975; -672.000; -638.000
282.375;  -31.800; -243.000;  -98.000
282.515; -101.275; -715.000; -707.000
282.654;    4.450;   29.000;  106.000
282.794;   20.475;  388.000;  244.000
282.934;  -55.275; -530.000; -491.000
283.073; -145.300;-1030.000; -857.000
283.213;  -49.150; -460.000; -467.000
283.353;  -35.875; -408.000; -349.000
283.492;  -24.800; -264.000; -296.000
283.632;  -57.875; -254.000; -168.000
283.771; -104.300; -859.000; -730.000
283.911;  -55.425; -369.000; -260.000
284.050; -121.050; -794.000; -748.000
284.190; -179.900;-1229.000;-1096.000
284.329; -146.475;-1055.000; -964.000
284.469;  -74.825; -516.000; -591.000
284.608;  -54.750; -559.000; -598.000
284.748;  -87.625; -614.000; -570.000
284.887;   -4.875;  -87.000;  -20.000
285.027; -128.700; -844.000; -892.000
285.166;  -36.525; -192.000; -249.000
285.306;   11.075; -116.000;  -33.000
285.445;  -45.200; -229.000; -343.000
285.584;  -88.725; -630.000; -494.000
285.724;  -60.000; -282.000; -322.000
285.863; -109.600; -857.000; -507.000
286.002;  -56.775; -366.000; -276.000
286.142; -109.775; -715.000; -622.000
286.281;  -70.250; -525.000; -493.000
286.420;  -85.475; -554.000; -417.000
286.560;   93.875;  653.000;  623.000
286.699; -141.150; -958.000; -912.000
286.838;  -89.100; -590.000; -591.000
286.978;  -83.800; -533.000; -537.000
287.117; -137.150;-1085.000; -950.000
287.256;  -34.425; -228.000; -211.000
287.395;  -56.325; -197.000; -378.000
287.535;  -50.000; -370.000; -298.000
287.674;  -79.275; -509.000; -484.000
287.813;   60.175;  661.000;  533.000
287.952; -143.825;-1010.000; -871.000
288.091; -146.225;-1049.000; -915.000
288.231;    9.225;   13.000;   15.000
288.370; -173.525;-1217.000;-1200.000
288.509; -102.025; -728.000; -645.000
288.648;  -97.525; -770.000; -548.000
288.787;  -25.000; -243.000;  -87.000
288.926;  -69.525; -454.000; -475.000
289.065;  110.175;  859.000;  672.000
289.204;  -60.050; -377.000; -217.000
289.344;  -98.125; -791.000; -690.000
289.483;   23.375;  416.000;  304.000
289.622;  -36.075; -291.000; -149.000
289.761;   -8.625; -309.000; -166.000
289.900; -119.950; -785.000; -626.000
290.039;  -19.650;  -12.000;  -95.000
290.178;  -40.575; -274.000; -180.000
290.317;  -90.850; -618.000; -479.000
290.456;  -83.200; -463.000; -451.000
290.595; -133.375; -961.000; -833.000
290.734; -143.175; -904.000; -891.000
290.873;  -85.675; -456.000; -420.000
291.011; -127.550; -833.000; -843.000
291.150; -105.225; -770.000; -682.000
291.289;  -37.325; -343.000; -110.000
291.428; -100.775; -599.000; -480.000
291.567;  -53.125; -370.000; -442.000
291.706;  -22.525;  109.000;  154.000
291.845; -103.650; -597.000; -505.000
291.984; -178.075;-1234.000;-1061.000
292.122;   63.825;  602.000;  582.000
292.261;   48.925;  620.000;  463.000
292.400;    4.575; -144.000;  211.000
292.539; -128.525; -959.000; -813.000
292.678;  -49.650; -325.000; -300.000
292.816; -154.725;-1136.000; -965.000
292.955;  -91.750; -844.000; -684.000
293.094;  -32.450; -173.000; -337.000
293.233;  -48.725; -556.000; -400.000
293.371;  -48.375; -225.000;  -84.000
293.510; -107.225; -866.000; -780.000
293.649; -139.225; -959.000; -924.000
293.787;  -54.700;-1083.000;-1012.000
293.926;   -4.400; -113.000;  -32.000
294.065;  -42.250; -379.000; -290.000
294.203;   63.225;  298.000;  406.000
294.342;   26.125;   74.000;  156.000
294.481; 7014.950;51180.000; -836.000
294.619;  -39.075; -425.000; -582.000
294.758; -147.075;-1230.000;-1137.000
294.896;   75.650; -125.000;    5.000
295.035; -122.225;-1040.000;-1006.000
295.174; -129.825;-1082.000; -954.000
295.312;  -48.100; -323.000; -203.000
295.451;   -7.025; -307.000; -428.000
295.589;  -53.375; -389.000; -518.000
295.728;   27.100; -292.000; -165.000
295.866;    0.875;  -36.000;  -51.000
296.005;  -80.750; -584.000; -341.000
296.143;  -87.275; -558.000; -596.000
296.282; -103.925; -957.000; -881.000
296.420;  -96.400; -657.000; -557.000
296.559;  -92.800; -892.000; -633.000
296.697;   17.325; -847.000; -665.000
296.835;   58.200;-1141.000;-1002.000
296.974;   48.100;  -23.000;   39.000
297.112;   14.050; -443.000; -504.000
297.251;  -68.300; -815.000; -755.000
297.389;   92.300; -576.000; -438.000
297.527;   40.375; -145.000;  -83.000
297.666;  -53.275; -486.000; -438.000
297.804;  -57.075; -404.000; -264.000
297.942;   -4.625; -136.000; -161.000
298.081;  -16.825; -183.000;   63.000
298.219;   77.975;  -17.000;  -19.000
298.357;   50.175; -144.000;  -71.000
298.495;   34.275; -810.000; -812.000
298.634;   71.675;  245.000;  219.000
298.772;   48.125; -220.000; -338.000
298.910;  -40.425; -309.000; -182.000
299.048;  -22.200; -130.000; -153.000
299.187;  -44.050; -350.000; -250.000
299.325;   27.675;   52.000;  122.000
299.463;   47.425; -389.000; -299.000
299.601;  108.150; -327.000; -271.000
299.739;  -98.875; -908.000; -883.000
299.877;  -76.975; -791.000; -703.000
300.016;  -59.075;-1095.000; -935.000
300.154;  168.300;  -19.000; -161.000
300.292;   54.025; -428.000; -348.000
300.430;   27.275; -408.000; -291.000
300.568;  -97.300; -940.000; -874.000
300.706;  -61.250; -366.000; -469.000
300.844;  -58.650;-1108.000; -979.000
300.982;  114.875;  246.000;  282.000
301.120; -105.225; -965.000; -866.000
301.258;  -73.525; -812.000; -705.000
301.396;   29.775;  104.000;  -41.000
301.534;   83.525; -218.000; -293.000
301.672;  -17.025; -664.000; -521.000
301.810;   25.775; -613.000; -545.000
301.948;  120.925;   53.000;  149.000
302.086;  619.050; -250.000;  -32.000
302.224;  961.650; -610.000; -585.000
302.362;   41.075; -558.000; -622.000
302.500;  -26.650; -923.000; -893.000
302.638;  122.825;  128.000;  245.000
302.776;   -4.125; -352.000; -408.000
302.913;   36.525;  447.000;  236.000
303.051;  -12.100;  -86.000;  -23.000
303.189;   48.550;   90.000;  118.000
303.327;  -49.825; -341.000; -256.000
303.465;  -99.525; -832.000; -588.000
303.603; -103.175; -805.000; -604.000
303.740;   95.700;  417.000;  241.000
303.878;   26.150; -800.000; -759.000
304.016; -105.550; -915.000; -790.000
304.154; -122.650;-1123.000;-1152.000
304.291;  -38.900; -505.000; -554.000
304.429;   -7.225;  102.000;   74.000
304.567; -130.075; -908.000; -893.000
304.705;  -48.875; -408.000; -515.000
304.842;   94.725; -616.000; -540.000
304.980;   48.875;  215.000;   35.000
305.118;   30.700; -367.000; -365.000
305.255;  -79.050; -945.000; -927.000
305.393;   61.575;  178.000;  239.000
305.531; -107.775;-1173.000; -956.000
305.668;  -62.400; -663.000; -582.000
305.806;   97.675; -358.000; -439.000
305.943;  112.700; -629.000; -637.000
306.081;   52.700; -378.000; -267.000
306.219; -120.400; -863.000; -748.000
306.356;    7.625;  158.000;   27.000
306.494;  105.500;  981.000;  761.000
306.631;  -12.800;  -11.000;  -55.000
306.769;   -5.800; -613.000; -485.000
306.906;  -14.400; -284.000; -258.000
307.044;  -70.850; -473.000; -488.000
307.181;  -67.575; -410.000; -332.000
307.319;    8.275;  112.000;   87.000
307.456; -179.850;-1191.000;-1153.000
307.594; -105.050; -980.000; -727.000
307.731;  -25.400; -371.000; -164.000
307.868;    0.475;  -15.000;   20.000
308.006; -146.625; -961.000; -847.000
308.143;  -57.950; -618.000; -330.000
308.281;  122.400;  -37.000; -254.000
308.418;  -37.375; -748.000; -640.000
308.555;  -74.250; -400.000; -250.000
308.693;  -84.625; -577.000; -573.000
308.830; -115.575; -712.000; -657.000
308.967;  -15.800; -215.000;  -95.000
309.105;  -53.075; -507.000; -396.000
309.242;   18.550; -468.000; -367.000
309.379;  243.450; -577.000; -655.000
309.517;  -75.125; -936.000; -948.000
309.654; -103.425; -910.000; -734.000
309.791;  -78.200; -662.000; -580.000
309.928; -128.025; -977.000; -914.000
310.065;  183.325;  819.000;  697.000
310.203;   -4.600; -825.000; -850.000
310.340;   -7.000; -465.000; -321.000
310.477;  -78.175; -412.000; -516.000
310.614;  -76.850; -383.000; -473.000
310.751;  -76.750; -427.000; -518.000
310.889;  -33.750;    1.000;   11.000
311.026; -154.450;-1161.000; -939.000
311.163;  -54.475; -386.000; -380.000
311.300;  -73.000; -512.000; -479.000
311.437;  -89.025; -658.000; -619.000
311.574; -163.475;-1226.000; -985.000
311.711;  -61.950; -595.000; -433.000
311.848;  -42.325; -380.000; -388.000
311.985;   -1.425;  270.000;   93.000
312.122; -121.625; -932.000; -762.000
312.259; -135.100; -941.000; -994.000
312.396;  -86.325; -508.000; -551.000
312.533;  -95.675; -812.000; -790.000
312.670; -124.800;-1070.000; -898.000
312.807;  -40.425; -352.000; -367.000
312.944;  -75.125; -513.000; -611.000
313.081;  -48.125; -150.000; -415.000
313.218; -113.575;-1111.000; -867.000
313.355;   -7.200; -531.000; -449.000
313.492;   -0.375; -455.000; -292.000
313.629;  133.125;  815.000;  735.000
313.766; -164.925;-1176.000;-1008.000
313.902;  -17.450; -186.000;   21.000
314.039;  -67.625; -372.000; -289.000
314.176;   25.900;  286.000;  192.000
314.313;  -73.225; -569.000; -473.000
314.450;  -77.500; -788.000; -684.000
314.587;  -58.625; -468.000; -480.000
314.723;  -10.325;  -78.000;  130.000
314.860;   30.675;  318.000;  332.000
314.997;   24.825;  223.000;  142.000
315.134;  -44.550; -385.000; -368.000
315.270;  -40.250; -480.000; -496.000
315.407; -127.525;-1094.000; -967.000
315.544;  -53.475; -657.000; -538.000
315.681;  -77.525; -681.000; -565.000
315.817;   24.875; -133.000; -176.000
315.954;    9.475; -613.000; -392.000
316.091; -126.600;-1045.000;-1023.000
316.227;  -31.175;  -71.000; -179.000
316.364;    1.600;   23.000;    6.000
316.500;  -46.175; -113.000; -300.000
316.637;  -51.175; -181.000; -302.000
316.774;  -91.500; -625.000; -358.000
316.910;  -91.900; -598.000; -629.000
317.047;  -74.575; -487.000; -351.000
317.183;  -51.450; -435.000; -566.000
317.320;   -2.900; -367.000; -321.000
317.456;  -80.400; -733.000; -805.000
317.593;  -89.900; -598.000; -641.000
317.729;   -5.975;  168.000;  -67.000
317.866; -204.700;-1434.000;-1285.000
318.002; -100.325; -708.000; -948.000
318.139; -105.500; -883.000; -867.000
318.275; -122.450;-1003.000; -738.000
318.412;  -68.525; -517.000; -336.000
318.548;  -39.450; -751.000; -720.000
318.685;  -96.600; -985.000; -888.000
318.821; -101.425; -762.000; -735.000
318.957;  -26.625;   34.000;  -23.000
319.094;   37.450;  297.000;  154.000
319.230;  -61.425; -756.000; -742.000
319.367;  128.450; -471.000; -520.000
319.503;   55.750; -538.000; -436.000
319.639; -113.225; -877.000; -793.000
319.775;  -73.475; -750.000; -685.000
319.912;  -59.050; -424.000; -519.000
320.048;  -92.525;-1184.000;-1184.000
320.184;   79.925;   59.000;   70.000
320.321;  -67.325; -497.000; -467.000
320.457;   53.900;  475.000;  662.000
320.593;  -81.575; -375.000; -382.000
320.729; -112.100; -732.000; -734.000
320.866;  -74.375; -577.000; -635.000
321.002;  -76.200; -759.000; -809.000
321.138;  -10.500; -135.000; -211.000
321.274;   65.125; -148.000; -115.000
321.410;  -23.575; -585.000; -353.000
321.546;  -24.425;-1011.000; -911.000
321.683;   48.075;  400.000;  185.000
321.819;    4.375;  -48.000; -117.000
321.955; -114.850; -743.000; -722.000
322.091;  -48.025; -585.000; -540.000
322.227;  -24.075; -382.000; -202.000
322.363;  -23.150; -320.000; -215.000
322.499;  -45.475; -343.000; -331.000
322.635;  158.925;  636.000;  443.000
322.771;   13.350; -139.000;   12.000
322.907;   81.975;  129.000;  327.000
323.043;  -14.725; -115.000; -206.000
323.179;  -43.575; -394.000; -363.000
323.315;    5.350; -401.000; -371.000
323.451;   95.450; -328.000; -236.000
323.587;   58.975;  -60.000;  -77.000
323.723;   16.700; -682.000; -601.000
323.859;   -9.750; -258.000;  -76.000
323.995;  -37.950; -467.000; -409.000
324.131; -114.325; -967.000; -892.000
324.267;  -39.825; -254.000; -276.000
324.402; -136.250; -960.000; -983.000
324.538;  -12.600; -279.000; -104.000
324.674;   31.675;  164.000;   77.000
324.810;  126.175;  226.000;  308.000
324.946;   10.950; -810.000; -658.000
325.082;  -75.875; -568.000; -475.000
325.217;  -22.625;  -62.000;   16.000
325.353; -107.475; -764.000; -659.000
325.489;  -86.675; -540.000; -506.000
325.625;  -79.125; -579.000; -525.000
325.760;   63.725;  517.000;  376.000
325.896;  -42.475; -515.000; -702.000
326.032;  -66.725; -403.000; -352.000
326.168;  -68.700; -462.000; -369.000
326.303;  -56.550; -352.000; -461.000
326.439;  -41.500; -336.000; -276.000
326.575;    7.575; -190.000;  -29.000
326.710;  -18.525; -156.000;  -30.000
326.846;  -21.375;  146.000;  103.000
326.982; -102.150; -530.000; -548.000
327.117;  -63.900; -481.000; -442.000
327.253;  -94.150; -745.000; -742.000
327.388; -176.675;-1137.000;-1153.000
327.524;  -50.300; -811.000; -578.000
327.659;  -29.575;  -58.000;  -22.000
327.795;  -20.500;   69.000;   45.000
327.931; -100.725; -723.000; -499.000
328.066;  -31.475; -417.000; -276.000
328.202;   -6.525;   12.000; -129.000
328.337;  102.300;  957.000;  713.000
328.473;   36.175;  -12.000;  -74.000
328.608;  -23.375; -256.000; -267.000
328.743;  -83.325; -799.000; -664.000
328.879;   20.575;  214.000;  114.000
329.014;  -49.225; -102.000; -122.000
329.150;  -77.200; -358.000; -483.000
329.285;  -91.500; -465.000; -466.000
329.421;  -57.250; -548.000; -246.000
329.556;   -8.300;  -36.000;   85.000
329.691; -115.850; -633.000; -615.000
329.827;  -80.750; -626.000; -480.000
329.962;  -42.750;  131.000; -301.000
330.097;  -87.000; -673.000; -585.000
330.233;  -54.250; -410.000; -223.000
330.368; -130.050; -839.000; -628.000
330.503;  -23.275;    3.000;   98.000
330.638;   -4.650;  -93.000; -125.000
330.774;  -67.550; -609.000; -530.000
330.909;  -45.250; -434.000; -244.000
331.044;  -95.575; -714.000; -708.000
331.179; -183.500;-1217.000;-1109.000
331.315;   14.000;   77.000;   20.000
331.450;   14.025;  157.000;  285.000
331.585;  -86.975; -805.000; -706.000
331.720;  -93.500; -510.000; -460.000
331.855;   -5.175;  -35.000; -102.000
331.990;  235.525;   62.000;  138.000
332.126;  123.750; -110.000;   71.000
332.261;  -16.900; -379.000; -265.000
332.396;   -8.950; -135.000; -242.000
332.531; -101.825;-1074.000;-1031.000
332.666;   29.775; -519.000; -363.000
332.801; -100.575; -726.000; -807.000
332.936;  -30.225; -192.000; -122.000
333.071; -130.225; -870.000; -817.000
333.206;   12.075;  307.000;  379.000
333.341;   20.325;  344.000;  418.000
333.476;  -86.500; -627.000; -623.000
333.611;  -42.375; -251.000; -173.000
333.746;  -46.775; -381.000; -464.000
333.881; -115.400; -973.000; -935.000
334.016; -140.500; -936.000; -917.000
334.151; -113.975; -746.000; -702.000
334.286;   23.675;  152.000;  186.000
334.421;  -17.675; -125.000; -178.000
334.556;  -91.700; -611.000; -567.000
334.690;  -94.575; -631.000; -577.000
334.825;   48.475;  381.000;   83.000
334.960;  -55.975; -285.000; -413.000
335.095;   18.825;  135.000;  -91.000
335.230;  -97.700; -722.000; -738.000
335.365; -137.400;-1084.000; -990.000
335.499; -144.300;-1108.000;-1037.000
335.634;    8.250;    9.000;  534.000
335.769; -105.950; -755.000; -720.000
335.904;  -55.675; -603.000; -561.000
336.038;  -59.225; -735.000; -657.000
336.173; -120.075;-1206.000;-1194.000
336.308;   -2.625; -116.000; -189.000
336.443;   21.300; -544.000; -634.000
336.577;  -73.025; -936.000; -787.000
336.712;   52.825;   -4.000;  -12.000
336.847;  -36.425; -724.000; -607.000
336.981;   73.750; -272.000; -208.000
337.116;  288.875;  615.000;  501.000
337.250;  144.850; -434.000; -421.000
337.385;  240.050; -297.000; -208.000
337.520;   64.750; -632.000; -603.000
337.654;  -36.625; -215.000; -126.000
337.789; -134.475; -989.000; -933.000
337.923;  -43.450; -104.000; -205.000
338.058;  -95.525; -673.000; -738.000
338.192;  -40.600; -611.000; -488.000
338.327;   -3.200;  -18.000; -155.000
338.461;  -75.100; -299.000; -469.000
338.596; -104.075; -780.000; -638.000
338.730; -111.775; -767.000; -803.000
338.865;   82.050;  -46.000; -140.000
338.999;  -58.950; -846.000; -702.000
339.134;  -33.750; -634.000; -536.000
339.268;    7.725; -741.000; -603.000
339.403;  350.650; -740.000; -775.000
339.537;   94.025; -894.000; -820.000
339.671; -117.375; -829.000; -813.000
339.806;  -64.050; -556.000; -512.000
339.940;   10.750; -261.000; -235.000
340.074; -107.925; -685.000; -510.000
340.209;  -56.750; -351.000; -230.000
340.343;  -79.075; -517.000; -573.000
340.477;  148.700;  998.000; 1036.000
340.612;  -62.600;-1033.000; -900.000
340.746;  126.150; -199.000; -243.000
340.880;  -78.875; -924.000; -785.000
341.014;  -26.625;  -45.000; -154.000
341.149; -121.450; -756.000; -718.000
341.283; -108.675; -839.000; -754.000
341.417;  -88.000;-1124.000; -938.000
341.551;  147.100; -768.000; -708.000
341.685;  -41.350; -633.000; -611.000
341.820;  -51.675; -562.000; -493.000
341.954;  -56.600; -218.000; -349.000
342.088; -158.300;-1102.000;-1019.000
342.222;   45.550;  565.000;  618.000
342.356;  -68.125; -395.000; -335.000
342.490;  -83.650; -880.000; -841.000
342.624;  -52.525; -339.000; -242.000
342.758;   16.775; -364.000; -312.000
342.892;  -71.600; -710.000; -585.000
343.026;  -53.375;  -58.000; -116.000
343.160;  -60.025; -426.000; -376.000
343.294;  -76.500; -474.000; -337.000
343.428;  -18.650; -488.000; -448.000
343.562;  -10.025; -172.000;  -23.000
343.696;  -25.850; -385.000; -314.000
343.830;  -11.600; -362.000; -356.000
343.964;   -1.200; -231.000; -168.000
344.098;  956.675;  199.000;   70.000
344.232;  784.375; -266.000; -127.000
344.366;   88.250; -567.000; -453.000
344.500;   45.175; -665.000; -744.000
344.634;   30.850; -324.000; -164.000
344.768;  -12.650; -531.000; -341.000
344.902;   34.675;  278.000;  256.000
345.035;  -70.025; -556.000; -496.000
345.169; -140.750; -933.000; -656.000
345.303;  -68.450; -308.000; -482.000
345.437;  -85.825; -826.000; -717.000
345.571;  -82.450; -675.000; -594.000
345.704;  -63.475; -309.000; -532.000
345.838;  -26.125; -331.000; -284.000
345.972;  -29.775; -543.000; -495.000
346.106;  171.175; -179.000; -190.000
346.239;  410.375; -312.000; -243.000
346.373;   -4.400; -343.000; -302.000
346.507; -164.225; -950.000; -962.000
346.640;  137.425;  -30.000;   13.000
346.774;  -38.025; -650.000; -797.000
346.908;  -16.900; -138.000;  -11.000
347.041; -104.200; -646.000; -593.000
347.175;   -6.700;  259.000;   27.000
347.309;  -53.675; -698.000; -628.000
347.442; -109.325; -883.000; -732.000
347.576;  276.650;  670.000;  668.000
347.709;  178.475; -123.000;  -52.000
347.843;  -97.725; -933.000; -825.000
347.976;   25.400;  235.000;  294.000
348.110; -176.975;-1268.000;-1186.000
348.243; -113.500; -679.000; -772.000
348.377;    0.775;  -26.000;   60.000
348.510;   40.125;  403.000;  540.000
348.644;  -30.600;  -37.000; -159.000
348.777;   -8.575;  180.000;  191.000
348.911;  -55.350; -142.000; -112.000
349.044;  180.075;  471.000;  448.000
349.178;  157.575;-1069.000;-1006.000
349.311;  106.200;  141.000;  255.000
349.444;  -11.825; -927.000; -813.000
349.578;  -13.975; -347.000; -200.000
349.711; -106.000; -959.000; -862.000
349.845;   -6.100; -661.000; -591.000
349.978; -146.650;-1224.000;-1137.000
350.111;  -90.450; -546.000; -612.000
350.244;  -73.450; -596.000; -700.000
350.378;    9.250; -392.000; -393.000
350.511;  -80.775; -393.000; -426.000
350.644; -102.275; -808.000; -806.000
350.778;    2.925;  168.000;  104.000
350.911;    1.725;  134.000;  140.000
351.044;  -86.725; -685.000; -615.000
351.177;  -29.700; -321.000; -281.000
351.310;  -18.200;    3.000; -131.000
351.444;  -73.625; -888.000; -788.000
351.577;  118.125;  140.000;   90.000
351.710;   96.075;  593.000;  417.000
351.843;  -44.950; -165.000;  -77.000
351.976;  -12.550;  149.000;  -79.000
352.109;  -95.625; -621.000; -612.000
352.242;  -33.975; -464.000; -419.000
352.376;  -63.075; -580.000; -636.000
352.509;  181.375; -437.000; -356.000
352.642;   11.975; -654.000; -604.000
352.775;   65.550; -141.000;  -98.000
352.908; -117.600; -933.000; -904.000
353.041; -118.975; -814.000; -824.000
353.174;  -66.275; -551.000; -424.000
353.307;  -76.925; -753.000; -764.000
353.440;   69.650;  541.000;  453.000
353.573; -119.450; -957.000;-1008.000
353.706;  -53.600; -384.000; -558.000
353.839;  -10.625; -264.000; -220.000
353.971; -103.625; -657.000; -512.000
354.104;  -79.750; -896.000; -835.000
354.237;  -27.200; -627.000; -662.000
354.370;  -90.375; -846.000; -879.000
354.503; -191.300;-1231.000;-1308.000
354.636;  -47.550; -529.000; -348.000
354.769; -134.950; -937.000; -860.000
354.902;  -12.800; -230.000; -139.000
355.034;  -28.475; -164.000; -220.000
355.167;  -17.350; -262.000; -162.000
355.300;  -89.500;-1061.000; -880.000
355.433;  946.975;  -71.000;  -14.000
355.565; 1483.125; -402.000; -384.000
355.698;  377.850; -356.000; -296.000
355.831;   -9.150; -882.000; -801.000
355.964;   72.975; -285.000; -170.000
356.096;  -87.350; -856.000; -843.000
356.229;   -3.850; -523.000; -530.000
356.362;  314.500; -373.000; -266.000
356.494;  596.300; -229.000; -162.000
356.627;  470.650;  269.000;  377.000
356.760;  651.100;  120.000;   53.000
356.892;  943.400; -286.000; -601.000
357.025;  655.375;  403.000;  389.000
357.157;  603.400; -167.000; -179.000
357.290;  640.275; -856.000; -713.000
357.423;  193.975; -667.000; -556.000
357.555;  116.925; -217.000; -228.000
357.688;  129.700; -483.000; -364.000
357.820;  456.475; -870.000; -877.000
357.953; 3799.350; -563.000; -589.000
358.085;  791.925; -632.000; -612.000
358.218; 1165.675;-1131.000; -932.000
358.350;  208.125;  -58.000;  312.000
358.483; -127.950;-1300.000;-1187.000
358.615;  -22.175;-1182.000;-1078.000
358.747;  -61.900;-1187.000;-1058.000
358.880;   20.075; -810.000; -744.000
359.012;  -11.125; -376.000; -202.000
359.145;  -43.825; -480.000; -511.000
359.277;   67.850; -962.000; -913.000
359.409; 3097.175;  536.000;  231.000
359.542;  804.925; -738.000; -688.000
359.674;   63.625;   46.000;   13.000
359.806;  -62.525; -565.000; -438.000
359.939;  -59.650; -617.000; -516.000
360.071;   -1.425; -583.000; -579.000
360.203;  -34.600; -411.000; -364.000
360.335;   53.675;  164.000;  -16.000
360.468;  184.600; -249.000; -307.000
360.600; 2499.500; -547.000; -454.000
360.732; 2775.075; -546.000; -423.000
360.864;  373.650;-1216.000;-1044.000
360.996;  276.500; -516.000; -554.000
361.129;   40.975; -389.000; -598.000
361.261;   23.500;  110.000; -113.000
361.393;  -27.950; -252.000; -214.000
361.525;   30.325;   94.000;  244.000
361.657;  -42.850; -821.000; -703.000
361.789;   10.750; -139.000; -155.000
361.921;  237.125; -642.000; -593.000
362.053;  243.450;  524.000;  541.000
362.185;   36.500;  288.000;   72.000
362.318;  -82.525; -709.000; -705.000
362.450;  120.625;  294.000;  444.000
362.582;  120.000; -913.000; -870.000
362.714;  -38.025; -353.000; -332.000
362.846;  -85.450; -606.000; -490.000
362.978; -146.125; -941.000; -811.000
363.109;   53.150; -161.000; -260.000
363.241;  438.500; -739.000; -749.000
363.373;  392.700; -649.000; -564.000
363.505;  639.925; -186.000;  -91.000
363.637;  161.075; -787.000; -601.000
363.769; -126.825;-1067.000;-1080.000
363.901;  -73.025; -596.000; -654.000
364.033; -130.225;-1103.000;-1062.000
364.165;   -5.225; -283.000; -283.000
364.296;   56.425; -316.000; -177.000
364.428;   76.725;-1344.000;-1220.000
364.560;  -79.125; -679.000; -661.000
364.692;  -63.225; -738.000; -835.000
364.824;  267.075; -588.000; -456.000
364.955;  427.075; -402.000; -564.000
365.087;  909.725;-1097.000; -852.000
365.219;   24.675; -686.000; -816.000
365.351;  -61.750; -526.000; -572.000
365.482;   46.975;  300.000;  240.000
365.614;  -42.175; -402.000; -314.000
365.746; -106.650; -729.000; -752.000
365.877;  -91.450; -706.000; -672.000
366.009;  256.450;  -35.000;  -62.000
366.141;  -94.775;-1249.000;-1134.000
366.272; -116.900; -803.000; -719.000
366.404; -124.250;-1005.000; -874.000
366.535;  -16.900; -139.000;  -12.000
366.667; -116.800; -644.000; -649.000
366.799;   32.875;  353.000;  203.000
366.930; -119.725; -862.000; -996.000
367.062;  108.725; -639.000; -613.000
367.193;  142.575; -872.000; -842.000
367.325;  -58.275; -580.000; -684.000
367.456;   54.125; -246.000;   31.000
367.588;  145.525; -371.000; -318.000
367.719;   18.825;  -44.000;  -45.000
367.851;  -25.275; -222.000; -241.000
367.982;  -46.475; -875.000; -732.000
368.113;   97.125; -475.000; -358.000
368.245; -124.650; -960.000; -841.000
368.376;  -31.125; -254.000; -302.000
368.508;  -45.275; -188.000; -263.000
368.639; -145.775;-1166.000;-1034.000
368.770;  -22.750; -670.000; -589.000
368.902;  -66.250; -836.000; -926.000
369.033; -112.100; -906.000; -855.000
369.164;  -51.675; -720.000; -653.000
369.296; -113.925; -452.000; -601.000
369.427;   -0.150; -209.000; -144.000
369.558;  -59.525; -593.000; -377.000
369.689;  -82.700; -721.000; -569.000
369.821; -135.450; -951.000; -845.000
369.952;  -19.700;   42.000; -108.000
370.083;  -47.525; -229.000; -108.000
370.214;  -81.325; -735.000; -650.000
370.345;  -11.525;   65.000;   81.000
370.477;  -83.525; -810.000; -790.000
370.608;  237.025; -328.000; -264.000
370.739;  -58.475;-1233.000;-1292.000
370.870;  -32.775;-1102.000; -923.000
371.001;   76.425; -378.000; -467.000
371.132;  -80.250; -754.000; -735.000
371.263;  -32.225;  -42.000; -148.000
371.394; -133.975; -841.000; -748.000
371.525;   32.100;  345.000;  225.000
371.657;  -86.950; -808.000; -670.000
371.788;   91.100;  103.000;  199.000
371.919;  162.550; -384.000; -304.000
372.050; 3732.900;  -91.000; -156.000
372.181; 1103.400; -188.000; -294.000
372.311;  381.575;   42.000; -127.000
372.442;   17.025; -457.000; -451.000
372.573;  -31.700; -444.000; -340.000
372.704; -113.875;-1008.000; -980.000
372.835;   56.900; -228.000; -289.000
372.966;  -57.600; -646.000; -554.000
373.097;  -70.750; -575.000; -711.000
373.228;  -46.350; -717.000; -542.000
373.359;  142.325; -824.000; -536.000
373.490;  955.875; -881.000; -727.000
373.620; 1184.925;-1001.000; -803.000
373.751; 1828.625; -332.000; -396.000
373.882;  796.825; -663.000; -733.000
374.013;   69.500; -449.000; -262.000
374.143;  -46.975; -581.000; -659.000
374.274; -104.525; -987.000; -908.000
374.405;  190.125; -388.000; -276.000
374.536;  463.350; -526.000; -387.000
374.666; 1146.900; -759.000; -807.000
374.797;  225.525; -817.000; -868.000
374.928;  912.525; -710.000; -560.000
375.058;  902.175; -535.000; -500.000
375.189;   79.000;  -59.000;  -93.000
375.320; -102.850; -928.000;-1034.000
375.450;  -35.525; -625.000; -616.000
375.581;  -57.425; -526.000; -436.000
375.712;  -35.100; -574.000; -250.000
375.842;  310.525; -438.000; -415.000
375.973;  230.950; -554.000; -513.000
376.103;  -46.075; -665.000; -648.000
376.234;  -85.750; -531.000; -552.000
376.364;  -36.550; -944.000; -867.000
376.495;  319.800;  925.000;  529.000
376.625;  -17.625; -472.000; -485.000
376.756;   58.975; -709.000; -678.000
376.886;  -89.750;-1178.000;-1026.000
377.017;   42.775;-1048.000;-1061.000
377.147;  326.275; -786.000; -782.000
377.278;   53.050;  174.000;  228.000
377.408; -138.400; -801.000; -815.000
377.538; -115.200; -707.000; -693.000
377.669;  -89.775; -537.000; -613.000
377.799;  -86.400; -645.000; -635.000
377.929;  -56.800; -610.000; -428.000
378.060; -128.300; -781.000; -847.000
378.190;  -66.650; -726.000; -531.000
378.320;  -61.425; -401.000; -406.000
378.451;   -5.450; -131.000;  -22.000
378.581;  -12.475;  -67.000; -110.000
378.711;  163.525; 1035.000;  866.000
378.841;  -12.050; -533.000; -675.000
378.972;  -77.200; -871.000; -751.000
379.102;   -8.750; -652.000; -579.000
379.232;  -19.625; -126.000;  -73.000
379.362; -110.250;-1001.000; -885.000
379.492;   13.650; -373.000; -424.000
379.623;  102.300;    0.000;  111.000
379.753;  -87.725;-1107.000; -974.000
379.883;  211.525;   59.000;  156.000
380.013;   12.825;-1081.000;-1017.000
380.143; -110.125;-1097.000;-1056.000
380.273; -103.400; -985.000; -861.000
380.403;   -0.450; -344.000; -257.000
380.533;  -22.850; -651.000; -664.000
380.663;   73.425;  173.000;  128.000
380.793;  -88.275;-1027.000;-1074.000
380.923;  -21.200; -103.000;  -34.000
381.053; -101.125; -613.000; -623.000
381.183;  -36.600; -106.000; -248.000
381.313;   40.075; -656.000; -470.000
381.443;   40.400; -692.000; -473.000
381.573;  200.825; -402.000; -409.000
381.703;  280.475;-1249.000;-1095.000
381.833; -128.250;-1454.000;-1336.000
381.963;  117.900; -134.000;  -87.000
382.093; 1436.150; -925.000; -909.000
382.223;  447.775; -713.000; -602.000
382.353;  -21.525; -801.000; -608.000
382.482;  369.150;-1091.000; -964.000
382.612;  801.200; -872.000; -644.000
382.742;  438.650; -695.000; -622.000
382.872;  279.850; -565.000; -551.000
383.002;   68.025;  347.000; -132.000
383.131;  -26.600; -226.000; -160.000
383.261;  -59.550; -706.000; -768.000
383.391;  281.850; -552.000; -377.000
383.521; 3182.250;  451.000;  263.000
383.650;  740.900; -947.000; -904.000
383.780;  -27.175; -783.000; -656.000
383.910;  114.575;  880.000;  802.000
384.039;   18.700; -794.000; -656.000
384.169;  216.150;-1205.000;-1017.000
384.299;  -16.750; -650.000; -662.000
384.428;  -92.550; -764.000; -680.000
384.558;  -51.775; -308.000; -275.000
384.687;  -53.725; -414.000; -334.000
384.817;   19.050;   75.000;   -2.000
384.947;   21.400; -234.000; -141.000
385.076;  285.600;  982.000;  912.000
385.206;   95.600;  369.000;  480.000
385.335;  -27.275; -549.000; -417.000
385.465;  -78.550; -655.000; -663.000
385.594;  141.400;  -53.000;  -44.000
385.724;  431.075; -868.000; -838.000
385.853;  122.250; -296.000; -270.000
385.982; 1418.875; -743.000; -787.000
386.112; 2176.525;-1052.000; -871.000
386.241;  146.400; -307.000; -312.000
386.371;   16.925; -174.000;  -87.000
386.500;   -6.775; -825.000; -789.000
386.629;   25.800; -874.000; -817.000
386.759;   60.550;  -43.000;   68.000
386.888;  -19.775; -170.000; -250.000
387.017;  -77.800; -648.000; -620.000
387.147; -100.950; -771.000; -798.000
387.276;    0.425; -410.000; -397.000
387.405;   19.600; -398.000; -342.000
387.535;  -56.200; -452.000; -361.000
387.664;  -63.375; -692.000; -620.000
387.793;   51.150; -198.000; -113.000
387.922;  533.100;  255.000;  200.000
388.052;   23.875; -576.000; -423.000
388.181;    7.200; -342.000; -472.000
388.310;   -0.825; -889.000; -710.000
388.439;  -55.675; -749.000; -742.000
388.568;  183.525;  365.000;  244.000
388.697; 1065.175; -756.000; -653.000
388.826;  215.200; -768.000; -666.000
388.956;   53.825; -285.000; -307.000
389.085;  -26.525; -347.000; -287.000
389.214; -108.025; -842.000; -872.000
389.343;  -79.475; -645.000; -413.000
389.472;  406.675;  126.000;  149.000
389.601;  516.050;   91.000;    0.000
389.730;   14.875; -568.000; -687.000
389.859;   50.875;  226.000;   46.000
389.988;  181.275; -423.000; -408.000
390.117;  144.825; -168.000; -146.000
390.246;   -9.425; -331.000; -320.000
390.375;   80.475; -673.000; -626.000
390.504;  -60.625; -703.000; -621.000
390.633;  -90.925; -672.000; -726.000
390.761;  -67.575; -732.000; -645.000
390.890;   14.425;   -4.000; -130.000
391.019;  -39.075; -421.000; -441.000
391.148; -140.200; -826.000; -855.000
391.277;  -68.225; -576.000; -493.000
391.406;  -80.700; -821.000; -805.000
391.534;   29.825;  574.000; -301.000
391.663;  -69.700; -583.000; -645.000
391.792;  -91.175; -673.000; -701.000
391.921;  100.775;   -3.000;   15.000
392.050;  185.100; -287.000; -228.000
392.178;  -53.825;-1206.000;-1061.000
392.307;  136.675; -758.000; -712.000
392.436;   61.250; -427.000; -641.000
392.564;   25.475;  166.000;   -6.000
392.693;  -95.775; -860.000; -682.000
392.822;  196.800; -529.000; -534.000
392.950;   85.825; -880.000; -714.000
393.079;  336.425; -188.000; -328.000
393.208;   33.575; -488.000; -511.000
393.336;  -23.975; -170.000; -145.000
393.465;  -50.575; -317.000; -199.000
393.593;    3.975;   62.000;   79.000
393.722; -154.825;-1121.000; -916.000
393.850;  -39.175; -188.000;  -61.000
393.979; -151.850; -926.000; -805.000
394.107;  -69.075; -517.000; -537.000
394.236;  -32.500; -570.000; -507.000
394.364;  188.750;  383.000;  206.000
394.493;  285.200; -911.000; -767.000
394.621;  -33.600; -955.000; -916.000
394.750;  693.275; -873.000; -923.000
394.878; 2926.675; -247.000; -149.000
395.007; 3943.625; -721.000; -807.000
395.135;  263.975; -790.000; -721.000
395.263;  -87.225;-1038.000;-1040.000
395.392;  -12.475;  -25.000; -107.000
395.520; -136.675; -818.000; -679.000
395.648;  -97.425; -865.000; -915.000
395.777;  -19.125; -366.000; -405.000
395.905;  -57.325; -449.000; -564.000
396.033;    5.850;  217.000;  172.000
396.162;  473.625; -399.000; -453.000
396.290;  408.325;  -17.000;   -2.000
396.418;   88.075; -555.000; -514.000
396.546;  -74.525; -571.000; -466.000
396.674;  -99.825; -850.000; -878.000
396.803;    2.200;  -72.000;  -23.000
396.931;   88.875; -179.000; -199.000
397.059;   49.350;-1026.000; -989.000
397.187; -119.125;-1026.000; -975.000
397.315; -129.400; -884.000; -649.000
397.443; -102.925; -592.000; -443.000
397.572;  -94.800; -578.000; -424.000
397.700;  -20.000; -607.000; -614.000
397.828;   -9.200;  120.000;  -90.000
397.956;  -47.175; -508.000; -478.000
398.084;  -81.725; -767.000; -626.000
398.212;   26.475;  137.000;  124.000
398.340;   -0.625;  -56.000;  159.000
398.468;   23.125; -390.000; -169.000
398.596; -135.575; -993.000; -953.000
398.724; -114.325; -762.000; -767.000
398.852; -166.800;-1024.000; -976.000
398.980;  -47.875; -560.000; -560.000
399.108;  -56.925; -982.000; -735.000
399.236;   32.800;   13.000;    8.000
399.363;   12.425;  222.000;  196.000
399.491;  -71.175; -404.000; -398.000
399.619; -123.950; -829.000; -800.000
399.747;  -98.275; -859.000; -771.000
399.875;   80.000;  220.000;  234.000
400.003;  -46.300; -359.000; -284.000
400.130; -106.650; -421.000; -341.000
400.258;  -35.500;  -83.000;   38.000
400.386;  -66.900; -352.000; -168.000
400.514;  -56.475; -526.000; -587.000
400.641;  -91.000; -928.000; -802.000
400.769; -156.100; -979.000; -888.000
400.897; -118.300; -838.000; -793.000
401.025;  -17.450; -166.000; -152.000
401.152;  -10.725;  220.000;   38.000
401.280; -103.475; -430.000; -429.000
401.408; -119.725; -712.000; -576.000
401.535; -104.375; -735.000; -758.000
401.663; -191.800;-1134.000;-1054.000
401.790;  -86.375; -514.000; -525.000
401.918;   42.475;  436.000;  405.000
402.046;  -29.825;  134.000;  122.000
402.173;  -29.025;  -18.000;    7.000
402.301;  -76.175; -519.000; -397.000
402.428;   21.325;  528.000;  383.000
402.556; -140.075;-1188.000; -913.000
402.683;  -30.900;  -20.000;   -1.000
402.811;  -31.725;  -37.000; -206.000
402.938;   -3.150;   20.000;   27.000
403.066;  202.475; -574.000; -558.000
403.193;  340.275;  299.000;  239.000
403.321;  276.550; -396.000; -574.000
403.448;  325.575;   83.000;   27.000
403.575;  144.875;  -90.000;  -46.000
403.703;  -96.800; -732.000; -557.000
403.830;  -75.425; -531.000; -496.000
403.957; -150.450;-1117.000;-1023.000
404.085;    0.100;  -61.000; -172.000
404.212;  103.350;  -50.000;   63.000
404.339;  256.275; -566.000; -306.000
404.467; 5761.800; -612.000; -524.000
404.594; 3764.325; -287.000; -227.000
404.721;  865.675; -869.000; -764.000
404.848;   67.700; -113.000; -202.000
404.976; -105.775; -856.000; -783.000
405.103;  -15.225;  -14.000;  -82.000
405.230;    1.575;  190.000;  226.000
405.357;   17.875;  117.000;   44.000
405.484;  247.900;  -49.000;    5.000
405.612;   36.025; -548.000; -563.000
405.739;  -63.650; -488.000; -243.000
405.866;   78.650;  669.000;  385.000
405.993;  -39.375; -398.000; -102.000
406.120; -148.025; -801.000; -887.000
406.247;  -65.125; -323.000; -342.000
406.374;  434.375;  540.000;  629.000
406.501;   91.325; -632.000; -702.000
406.628;  -90.725; -621.000; -589.000
406.755; -103.600; -803.000; -620.000
406.882;  -41.275; -228.000; -277.000
407.009; -103.900; -719.000; -628.000
407.136;   39.500; -480.000; -401.000
407.263;  115.325; -939.000; -829.000
407.390;  -87.850; -692.000; -614.000
407.517; -183.175;-1139.000;-1187.000
407.644;  -56.275; -332.000; -256.000
407.771;  -67.625; -249.000; -287.000
407.898;   -0.825;  168.000;  328.000
408.025;  -76.450; -421.000; -313.000
408.151;  -20.375;   82.000;  153.000
408.278;  -75.950; -267.000; -216.000
408.405; -122.475; -931.000; -899.000
408.532;  -79.900; -549.000; -542.000
408.659; -116.725; -677.000; -648.000
408.785; -205.675;-1298.000;-1170.000
408.912;  -69.350; -412.000; -296.000
409.039; -114.500; -610.000; -686.000
409.166; -114.775; -591.000; -555.000
409.292; -122.325; -571.000; -534.000
409.419; -115.975; -665.000; -649.000
409.546;  -89.650; -431.000; -192.000
409.672; -116.625; -713.000; -545.000
409.799;  -39.850;  -36.000;   34.000
409.926;  -58.575; -180.000; -179.000
410.052; -178.875;-1127.000;-1091.000
410.179;  -60.875; -368.000; -392.000
410.305;  -86.350; -375.000; -493.000
410.432;  -66.425; -220.000; -333.000
410.558;  -93.250; -305.000; -380.000
410.685; -113.275; -688.000; -431.000
410.812; -112.450; -409.000; -588.000
410.938; -153.175; -964.000; -808.000
411.065; -111.850; -671.000; -645.000
411.191;  -28.500; -189.000; -174.000
411.317; -129.650; -823.000; -742.000
411.444;  -72.200; -317.000; -246.000
411.570;  -72.175; -339.000; -294.000
411.697; -129.425; -758.000; -752.000
411.823; -178.550; -989.000; -999.000
411.949;  -44.175;  -56.000;   17.000
412.076; -118.150; -539.000; -519.000
412.202; -120.850; -758.000; -757.000
412.329; -145.800; -798.000; -752.000
412.455; -115.875; -821.000; -657.000
412.581;  -35.650;  -15.000;  172.000
412.707;  -64.600; -540.000; -457.000
412.834;   13.625;  156.000;  219.000
412.960; -101.200; -785.000; -784.000
413.086; -120.750; -743.000; -701.000
413.212;  135.275;  604.000;  578.000
413.339;  -81.950; -685.000; -701.000
413.465;    5.000; -364.000; -310.000
413.591; -101.800; -757.000; -474.000
413.717;  -46.300; -358.000; -366.000
413.843; -146.000; -839.000; -861.000
413.969;  -57.875;  -47.000; -292.000
414.096; -113.350; -679.000; -679.000
414.222;  -13.325;  -33.000;   85.000
414.348;  -33.300; -652.000; -385.000
414.474;   63.350;   38.000;  -52.000
414.600;  -20.125; -126.000; -144.000
414.726;  -21.825;  -96.000;  -55.000
414.852;  -79.250; -365.000; -342.000
414.978;   39.575;  104.000;  -18.000
415.104;   44.500;   38.000;   80.000
415.230;   10.250; -329.000; -330.000
415.356;   36.725; -409.000; -514.000
415.482;  190.275;   13.000;  -35.000
415.608;  272.475; -247.000; -323.000
415.734;  961.225;   67.000;   38.000
415.860;20142.075; -875.000; -767.000
415.986;14262.975; -685.000; -607.000
416.111; 1196.425; -798.000; -652.000
416.237;  240.025; -424.000; -571.000
416.363; 1146.350; -765.000; -733.000
416.489; 4118.425; -324.000; -251.000
416.615;  438.225; -707.000; -742.000
416.741;  -46.250; -677.000; -784.000
416.866;  -87.675; -673.000; -736.000
416.992; -125.750; -801.000; -818.000
417.118;  -30.600;  -41.000;  -80.000
417.244;  -76.275; -798.000; -531.000
417.369;  -85.325; -801.000; -612.000
417.495;  -13.800; -325.000; -254.000
417.621;  -92.175;-1015.000; -803.000
417.746;   -2.375; -579.000; -572.000
417.872;   37.650; -254.000; -144.000
417.998;   36.475; -515.000; -530.000
418.123; 1042.825;-1073.000; -845.000
418.249; 5389.250; -512.000; -601.000
418.374;  713.750; -916.000; -824.000
418.500;  106.225; -383.000; -482.000
418.626;  100.825;   70.000;  -59.000
418.751;  118.275; -549.000; -448.000
418.877;  195.925; -637.000; -643.000
419.002; 1807.625; -688.000; -560.000
419.128;12476.750; -930.000; -721.000
419.253; 2979.125; -967.000; -837.000
419.379;  403.875; -391.000; -338.000
419.504;  377.025;  325.000;  415.000
419.629;  490.525; -393.000; -212.000
419.755; 3582.900; -317.000; -254.000
419.880;20937.575;  -98.000;   67.000
420.006;11394.375; -280.000; -221.000
420.131;29218.950; -662.000; -775.000
420.256; 4105.975; -315.000; -316.000
420.382;  535.925; -665.000; -687.000
420.507;   57.675; -649.000; -778.000
420.632;  146.375; -337.000; -339.000
420.758;  246.825; -251.000; -425.000
420.883;  -78.675; -876.000; -672.000
421.008; -101.775; -775.000; -619.000
421.133;  -91.400; -509.000; -467.000
421.259;  -46.475; -325.000; -259.000
421.384; -114.150; -834.000; -693.000
421.509;  -57.350;-1052.000; -862.000
421.634; 1177.525; -936.000; -820.000
421.759;  509.075; -359.000; -327.000
421.885;  -58.750; -717.000; -656.000
422.010;  -80.475; -673.000; -542.000
422.135; -168.875; -695.000; -727.000
422.260;   29.200;  340.000;  280.000
422.385;  -41.475;   12.000;  -98.000
422.510;   -4.450;  151.000;  -26.000
422.635;   19.325;  -87.000;  -43.000
422.760;   89.775; -766.000; -791.000
422.885;   53.575;  -57.000;  -80.000
423.010;  -33.925; -112.000; -169.000
423.135;  -91.775; -481.000; -561.000
423.260;  -33.750; -150.000; -245.000
423.385;   62.925;  476.000;  222.000
423.510;   34.125;   71.000;  -22.000
423.635;   79.175;  133.000;   45.000
423.760;   60.425;  383.000;  328.000
423.885;   35.450;  336.000;  391.000
424.010;    7.975;  -68.000;  -13.000
424.135;  -26.050;    5.000;  -33.000
424.259;  -96.625; -654.000; -457.000
424.384;  -55.375; -279.000; -272.000
424.509;  -25.700; -260.000; -186.000
424.634;  -96.775; -761.000; -623.000
424.759;  -20.625; -688.000; -544.000
424.883;   -9.925; -506.000; -527.000
425.008;  164.375; -502.000; -410.000
425.133; 1994.675; -679.000; -653.000
425.258;  914.250; -517.000; -381.000
425.382; 1050.600; -867.000; -774.000
425.507; 2691.725; -487.000; -543.000
425.632;  422.650; -802.000; -663.000
425.756;  428.525; -256.000; -146.000
425.881; 6582.325; -831.000; -857.000
426.006;17399.650; -604.000; -355.000
426.130; 2658.025; -696.000; -508.000
426.255;  337.775; -611.000; -491.000
426.379;  153.000; -189.000; -577.000
426.504;  384.725;  660.000;  544.000
426.629; 4046.850; -519.000; -466.000
426.753; 2719.825;   64.000;  -46.000
426.878;  309.250; -252.000; -288.000
427.002;  143.150; -651.000; -668.000
427.127; 1615.025;  -35.000; -158.000
427.251;11330.675;  372.000;  401.000
427.375; 3145.275; -191.000; -173.000
427.500; 2325.675; -616.000; -610.000
427.624;  767.700; -234.000; -400.000
427.749;   71.075; -216.000; -225.000
427.873;  -44.175; -499.000; -412.000
427.997;  -45.850; -222.000; -230.000
428.122;   72.850;  795.000;  703.000
428.246;   69.075;  433.000;  434.000
428.371; -131.975; -869.000; -773.000
428.495; -114.700; -624.000; -646.000
428.619;  -36.025; -186.000; -117.000
428.743;   13.375;   65.000;  132.000
428.868;   19.075; -732.000; -643.000
428.992; 1464.675; -219.000; -326.000
429.116;  566.225; -329.000; -357.000
429.240;  279.325;  419.000;  426.000
429.365;  -19.850; -454.000; -574.000
429.489;  -56.850; -638.000; -647.000
429.613;   20.250; -236.000; -177.000
429.737;   32.675; -563.000; -432.000
429.861;  273.825; -247.000; -133.000
429.985; 5593.700; -425.000; -305.000
430.109; 6040.000; -770.000; -908.000
430.234;  677.175;   76.000;  -50.000
430.358;   67.300; -250.000; -160.000
430.482;  -76.375; -672.000; -564.000
430.606;  -80.575; -655.000; -375.000
430.730;    5.775; -437.000; -388.000
430.854;  135.400; -909.000; -835.000
430.978;  -83.275; -795.000; -764.000
431.102; -108.900; -499.000; -422.000
431.226; -121.325; -874.000; -815.000
431.350;   15.925;  345.000;  422.000
431.474;  -84.975; -661.000; -373.000
431.597; -170.350;-1060.000; -848.000
431.721;  -80.075; -276.000; -267.000
431.845; -140.125; -704.000; -472.000
431.969;  -92.175; -304.000; -349.000
432.093;  -94.300; -395.000; -317.000
432.217;  -19.350;   32.000;   82.000
432.341;  -99.350; -523.000; -518.000
432.464;   -0.200;   96.000;   40.000
432.588;  185.850; -401.000; -329.000
432.712;   91.025;  -52.000;  -52.000
432.836;   23.950;  213.000;  263.000
432.959;  -20.125; -372.000; -311.000
433.083;   84.525;   11.000;    2.000
433.207;  367.400;  285.000;  930.000
433.330; 5104.175; -391.000; -200.000
433.454; 6143.500; -654.000; -638.000
433.578; 3557.150;  583.000;  278.000
433.701;  651.525; -623.000; -675.000
433.825;  143.500; -292.000; -299.000
433.949;  169.150;   28.000;  -72.000
434.072;   33.325; -410.000; -323.000
434.196;  -22.550; -309.000; -117.000
434.319; 3698.700;25482.000;25124.000
434.443;  742.925; -656.000; -603.000
434.566; 2656.425;  281.000;   62.000
434.690;  430.350; -637.000; -383.000
434.813;   53.350; -251.000; -173.000
434.937; -102.200; -569.000; -696.000
435.060;  -48.850; -423.000; -332.000
435.184;  303.275; -492.000; -217.000
435.307;  167.825;  159.000;  102.000
435.431;  -13.000;  -40.000;   24.000
435.554;  -88.725; -399.000; -240.000
435.677;  -89.600; -350.000; -258.000
435.801;  -27.425;  -25.000;   49.000
435.924;  -21.825;    1.000;  -67.000
436.048; -120.125;-1019.000; -732.000
436.171;  -78.000; -240.000;  -66.000
436.294;  -33.725; -248.000; -229.000
436.417;   67.275; -963.000; -849.000
436.541;  -97.625; -814.000; -840.000
436.664;  -57.075; -242.000; -316.000
436.787;  -23.475;   13.000;  113.000
436.910; -120.175; -792.000; -422.000
437.034;   -5.675;  142.000;  143.000
437.157;   53.925;  -11.000;    0.000
437.280;  -64.700; -392.000; -292.000
437.403;  -97.925; -982.000; -869.000
437.526;  627.450; -903.000; -865.000
437.649; 2309.000; -505.000; -332.000
437.772;  323.725; -692.000; -540.000
437.896;  108.100;  700.000;  544.000
438.019;  -88.550; -758.000; -503.000
438.142;  -97.275; -596.000; -506.000
438.265;  -16.325; -639.000; -670.000
438.388;  564.200; -520.000; -410.000
438.511;   86.950; -597.000; -394.000
438.634;  -50.725; -247.000; -125.000
438.757; -137.400; -693.000; -619.000
438.880;  -23.750;  -34.000;  -57.000
439.003;  -95.525; -417.000; -437.000
439.126;  -70.175; -287.000; -167.000
439.248;  -67.800;  -98.000; -139.000
439.371;  -62.375;    9.000;  -53.000
439.494;   29.475;  510.000;  439.000
439.617;  -59.625;   65.000;  -88.000
439.740; -183.525; -968.000; -816.000
439.863; -154.075; -755.000; -595.000
439.986; -131.250; -476.000; -431.000
440.108;  -47.375; -161.000; -112.000
440.231; -168.050; -950.000; -836.000
440.354;  -50.575;  -64.000; -150.000
440.477;   18.725; -566.000; -542.000
440.599;   -5.075; -200.000; -225.000
440.722; -124.375; -709.000; -586.000
440.845;   66.075;  751.000;  928.000
440.968; -115.150; -415.000; -311.000
441.090;  -74.925; -199.000;  -33.000
441.213; -171.200;-1021.000; -825.000
441.336;  -57.625; -159.000;   -5.000
441.458;  -95.875; -549.000; -396.000
441.581;  -88.775; -628.000; -629.000
441.703;  -74.525; -152.000;   13.000
441.826; -124.450; -557.000; -400.000
441.948;  -66.925;   56.000;   51.000
442.071;   20.025;  555.000;  424.000
442.193; -134.175; -531.000; -485.000
442.316;   18.800;  152.000;   97.000
442.438;   35.225; -233.000;  -10.000
442.561;   71.475;  272.000;  262.000
442.683;  550.700; -809.000; -522.000
442.806; 1197.275;   -8.000;   74.000
442.928;   16.250; -859.000; -604.000
443.051;  -73.200; -577.000; -373.000
443.173; -105.275; -341.000; -339.000
443.295;  -98.600; -263.000; -371.000
443.418;  -82.125; -321.000;  -29.000
443.540;   -6.775; -106.000;   -4.000
443.662; -127.600; -563.000; -465.000
443.785;  -30.875;  335.000;  199.000
443.907; -117.300; -362.000; -208.000
444.029; -126.900; -767.000; -494.000
444.152; -162.075; -644.000; -554.000
444.274;  -39.050;  -18.000;  -24.000
444.396; -133.225; -461.000; -221.000
444.518; -137.300; -691.000; -454.000
444.640; -107.925; -268.000; -111.000
444.763;  -22.925;  388.000;  249.000
444.885; -115.350; -432.000; -392.000
445.007;  -44.950;   35.000;   86.000
445.129; -134.375; -610.000; -515.000
445.251; -111.925; -372.000; -439.000
445.373; -137.125; -537.000; -386.000
445.495;    4.075;  242.000;  350.000
445.617;   55.600;  853.000;  753.000
445.739;  -73.675; -215.000;  -97.000
445.861;  -42.375; -245.000; -112.000
445.984;  -52.925; -267.000; -101.000
446.105;  205.250; -418.000; -251.000
446.227;  625.275; -176.000;  -19.000
446.349;   -4.475; -358.000; -249.000
446.471; -112.175; -615.000; -448.000
446.593;  -67.750; -316.000;   19.000
446.715;  -17.125;  -67.000;   41.000
446.837;   57.275;  697.000;  832.000
446.959; -110.625; -457.000; -478.000
447.081; -132.050; -628.000; -518.000
447.203;   42.550;  862.000;  834.000
447.325;  -88.550; -270.000;   42.000
447.446;  -18.875;  286.000;  530.000
447.568; -167.225; -921.000; -803.000
447.690;  -86.450; -236.000; -245.000
447.812; -156.475; -798.000; -519.000
447.933;  -46.150;  155.000;  127.000
448.055;  -77.350; -306.000; -261.000
448.177;  144.575;   31.000;   79.000
448.299;   92.550; -935.000; -727.000
448.420;   19.525;  -25.000;  159.000
448.542;  -58.575;   -3.000;   33.000
448.664;  -31.700;  109.000;  322.000
448.785;  -35.950;  265.000;   83.000
448.907;  -88.975; -614.000; -353.000
449.028;  -33.425; -771.000; -471.000
449.150;   50.350;  492.000;  589.000
449.272; -180.050;-1044.000; -913.000
449.393;   19.775;  612.000;  694.000
449.515; -149.175; -634.000; -581.000
449.636;  -69.500; -264.000; -155.000
449.758;   65.150;  763.000;  622.000
449.879; -108.850; -498.000; -396.000
450.001;  -86.050; -149.000;  -49.000
450.122;  -45.650;  -95.000;  162.000
450.244;  -31.800;   37.000;  364.000
450.365;  -94.375; -495.000; -301.000
450.486;  -33.675;   80.000;  268.000
450.608;   12.250;  393.000;  326.000
450.729;   69.125;  578.000;  645.000
450.850;   -6.275; -574.000; -466.000
450.972;  742.525; -552.000; -389.000
451.093; 4871.650;  190.000;  588.000
451.214; 2055.125; -516.000; -337.000
451.336;  377.875;  773.000;  579.000
451.457;   55.900;  264.000;  393.000
451.578;  -42.875; -118.000;  -74.000
451.699; -139.350; -546.000; -540.000
451.821;  -69.225; -284.000;  -50.000
451.942;  -10.500;  278.000;  285.000
452.063;   14.375;  228.000;  419.000
452.184;  533.400;  -54.000;  -49.000
452.305; 1080.225;  103.000;  170.000
452.427;  110.450; -549.000; -301.000
452.548;  -16.300;   23.000;   79.000
452.669;  -48.475; -257.000;  -89.000
452.790;  -57.925;    3.000;  -18.000
452.911;  -12.225;  195.000;  259.000
453.032;  -92.050; -289.000;  -60.000
453.153;  -44.100;  -29.000;   81.000
453.274;   49.725;  737.000;  868.000
453.395;  -52.025;  -51.000;  175.000
453.516;  127.075; 1317.000; 1388.000
453.637;  -73.550; -205.000; -150.000
453.758;  -67.250;   15.000;   69.000
453.879; -132.325; -462.000; -250.000
454.000;   81.275; 1086.000;  948.000
454.121; -132.125; -554.000; -326.000
454.242; -133.325; -599.000; -383.000
454.362;  -60.400;  -99.000;  114.000
454.483;  -46.400; -309.000; -229.000
454.604;   48.300;  512.000;  580.000
454.725; -136.850; -627.000; -555.000
454.846; -132.500; -474.000; -406.000
454.967;  -22.450;  230.000;  539.000
455.087;  -59.050;  179.000;  153.000
455.208;   29.425;  554.000;  856.000
455.329;  -70.025;  -22.000;   82.000
455.450;   45.050;  473.000;  633.000
455.570;  -78.350; -234.000; -211.000
455.691;  -39.300;  201.000;  407.000
455.812; -111.000; -270.000;  -92.000
455.932;  -61.775;  107.000;  -97.000
456.053;  -82.000;   36.000;   24.000
456.173; -119.000; -433.000; -355.000
456.294; -139.550; -476.000; -303.000
456.415;  -64.800;  -73.000;   70.000
456.535;  -35.925;  297.000;  273.000
456.656;  -53.000;  132.000;  240.000
456.776;  -73.350;    3.000;  298.000
456.897;   -9.825;  308.000;  513.000
457.017;  -86.500; -153.000;   -3.000
457.138; -118.100; -402.000; -249.000
457.258;  -47.050;  263.000;  224.000
457.379;  -24.275;  509.000;  521.000
457.499;  -30.525;  443.000;  432.000
457.620; -129.725; -407.000; -231.000
457.740; -109.275; -132.000;  -11.000
457.860;  -75.700;   87.000;   44.000
457.981;  -57.350;  132.000;  124.000
458.101;  -89.325;  -89.000;   40.000
458.221;  -25.500;  336.000;  402.000
458.342;  -62.200;   -4.000;  -37.000
458.462;   21.375;  617.000;  352.000
458.582;  -47.350; -302.000; -294.000
458.703;    2.975;  303.000;  154.000
458.823;  -39.925;   22.000;  163.000
458.943;   15.450;  341.000;  467.000
459.063;  -22.625; 1124.000;  192.000
459.183;  -22.100;  328.000;  313.000
459.304;    9.675;  315.000;  517.000
459.424;  -70.325; -246.000;  -89.000
459.544;  314.125;  388.000;  764.000
459.664;  819.175;  499.000;  506.000
459.784;  300.725; 1004.000; 1175.000
459.904;   50.650;  867.000;  744.000
460.024;   47.450;  867.000;  684.000
460.144;    7.350;  449.000;  554.000
460.264;  -16.200;  515.000;  327.000
460.385; -110.525; -145.000; -119.000
460.505;   22.650;  905.000;  858.000
460.625; -105.300;  -17.000;  -68.000
460.745;  -23.625;  396.000;  541.000
460.864;  -53.025;  153.000;  469.000
460.984;    1.075;  499.000;  573.000
461.104;  137.275; 1656.000; 1775.000
461.224;   21.225;  657.000;  650.000
461.344;  -40.800;  431.000;  360.000
461.464;  -42.675;  258.000;  513.000
461.584;  -33.625;  283.000;  466.000
461.704;  -63.025;   58.000;  108.000
461.824;  -66.900;  238.000;  259.000
461.943;  -53.500;  191.000;  130.000
462.063;  -75.725;    2.000;  324.000
462.183;   38.100;  639.000;  717.000
462.303;  101.225; 1678.000; 1230.000
462.422;   35.975;  781.000;  840.000
462.542;  -45.800;  271.000;  391.000
462.662;   42.950;  353.000;  380.000
462.782;  233.500;  833.000;  572.000
462.901;  473.325;  545.000;  717.000
463.021;  281.350; 1702.000; 1638.000
463.141;   -2.575;  337.000;  770.000
463.260;  -43.775;  614.000;  474.000
463.380;    4.475;  902.000;  884.000
463.499;  -51.550;  342.000;  332.000
463.619;  -39.950;  581.000;  559.000
463.738;  116.875; 1644.000;  903.000
463.858;    3.275;  657.000;  811.000
463.978;  -36.150;  542.000;  396.000
464.097;   37.375;  921.000; 1114.000
464.217;  112.975; 1196.000; 1143.000
464.336;  107.600; 1068.000; 1130.000
464.455;  -46.350;  328.000;  659.000
464.575;   25.400;  597.000;  602.000
464.694;  184.075; 1204.000; 1179.000
464.814;  121.775; 1190.000; 1138.000
464.933;   63.400; 1095.000; 1027.000
465.052;   91.675; 1412.000; 1054.000
465.172;   82.825;  922.000;  799.000
465.291;  137.350; 1376.000; 1320.000
465.410;    7.900;  462.000;  735.000
465.530;   86.750; 1355.000; 1310.000
465.649;   46.625; 1209.000; 1273.000
465.768;  128.700; 1673.000; 1508.000
465.888;   33.675;  941.000; 1174.000
466.007;   82.050; 1335.000; 1440.000
466.126;  -16.650;  721.000;  641.000
466.245;   50.850; 1176.000; 1187.000
466.364;   16.225;  950.000; 1060.000
466.484;   45.050; 1024.000; 1213.000
466.603;   30.675; 1101.000; 1222.000
466.722;  119.975; 1490.000; 1769.000
466.841;   55.475; 1151.000; 1401.000
466.960;   28.975; 1069.000;  972.000
467.079;  142.100; 1971.000; 1786.000
467.198;   39.250; 1238.000; 1181.000
467.317;   84.550; 1768.000; 1162.000
467.436;   64.250; 1709.000; 1261.000
467.555;  114.725; 1796.000; 1746.000
467.674;   51.575; 1227.000; 1329.000
467.793;   48.125; 1376.000; 1374.000
467.912;   71.375; 1658.000; 1539.000
468.031;  120.150; 2038.000; 1930.000
468.150;  140.050; 1842.000; 1837.000
468.269;  203.150; 2313.000; 2090.000
468.388;  167.675; 2168.000; 2339.000
468.507;  247.100; 2884.000; 2903.000
468.626;  225.000; 2555.000; 2541.000
468.744;  118.325; 2018.000; 2174.000
468.863;  201.200; 2312.000; 2523.000
468.982;   79.200; 1503.000; 1555.000
469.101;  224.025; 2788.000; 2692.000
469.220;  147.650; 2333.000; 2176.000
469.338;  259.675; 2935.000; 3051.000
469.457;  189.750; 2719.000; 2545.000
469.576;  331.675; 3953.000; 3784.000
469.695;  232.200; 2877.000; 3066.000
469.813;  420.800; 4148.000; 4192.000
469.932;  410.400; 4255.000; 4485.000
470.051;  426.075; 4075.000; 4161.000
470.169;  844.650; 4470.000; 4338.000
470.288; 1485.400; 4700.000; 4809.000
470.406;  858.350; 5059.000; 5194.000
470.525;  621.025; 6101.000; 5787.000
470.644;  654.900; 6847.000; 6794.000
470.762;  823.150; 8397.000; 7873.000
470.881;  915.000; 8651.000; 8464.000
470.999; 1047.900; 9685.000; 9151.000
471.118; 1117.325;11174.000;10711.000

