
Integration time [ms]: 100.000
Averaging Nr. [scans]: 40
Smoothing Nr. [pixels]: 0
Data measured with spectrometer [name]: 2101012U2
Wave   ;Sample   ;Dark     ;Reference
[nm]   ;[counts] ;[counts] ;[counts] 

197.733;   62.200;  516.000;  404.000
197.879;  -68.600; -610.000; -634.000
198.025;  -41.750; -475.000; -420.000
198.171;  -79.575; -602.000; -612.000
198.317;  -25.600; -401.000; -316.000
198.463;  -49.925; -655.000; -404.000
198.609;   31.000;  181.000; -137.000
198.755;  -81.125; -644.000; -410.000
198.901;  -57.675; -505.000; -424.000
199.047;  -65.775; -615.000; -488.000
199.193;  -30.500; -230.000; -468.000
199.339;  -35.650; -222.000; -369.000
199.485;   39.775;  330.000;  271.000
199.631;   16.375;  227.000;  310.000
199.777;  -53.675; -466.000; -398.000
199.923;  -53.450; -610.000; -424.000
200.069;   -1.475; -141.000;  -58.000
200.215;   60.975;  128.000;  453.000
200.361;   48.000;  243.000;  477.000
200.507;  -59.050; -600.000; -373.000
200.653;  -27.725; -371.000; -194.000
200.798;  -38.475; -215.000; -125.000
200.944;   -8.475; -146.000;  -41.000
201.090;   41.300;   61.000;  222.000
201.236;   11.700; -116.000; -158.000
201.382;  122.275;  874.000;  903.000
201.528;   14.000;  -58.000;  -48.000
201.674;  -46.375; -386.000; -293.000
201.819;  -72.225; -540.000; -439.000
201.965;  -87.425; -699.000; -447.000
202.111;  -24.100; -273.000; -226.000
202.257;  -27.275; -250.000; -238.000
202.402;   14.425;   13.000;  -36.000
202.548;  -31.875; -169.000; -116.000
202.694;   84.400;  410.000; -183.000
202.840;  -74.925; -603.000; -531.000
202.985;  -65.525; -681.000; -639.000
203.131; -104.125; -832.000; -666.000
203.277;  -17.600; -199.000; -262.000
203.423;  -38.650; -434.000; -520.000
203.568;  -30.750; -462.000; -237.000
203.714;  -52.725; -535.000; -542.000
203.860;  -71.950; -682.000; -641.000
204.005;   10.525;  112.000;  167.000
204.151;   87.775;  561.000;  556.000
204.296;  -37.475; -354.000; -221.000
204.442;  -58.025; -600.000; -547.000
204.588;  -76.450; -592.000; -579.000
204.733;   17.300;  178.000;  168.000
204.879; -126.875;-1018.000; -822.000
205.025;    7.100;  -99.000;  126.000
205.170;    6.275;  -17.000;   94.000
205.316;   80.575;  438.000;  661.000
205.461;  -86.800; -698.000; -554.000
205.607;   91.750;  609.000;  665.000
205.752;  -77.875; -626.000; -551.000
205.898;  -45.825; -501.000; -391.000
206.043;  -59.700; -578.000; -506.000
206.189;  -44.800; -243.000; -285.000
206.334;   73.125;  554.000;  606.000
206.480;   70.025;  409.000;  239.000
206.625;  -79.175; -529.000; -552.000
206.771;  -37.825; -451.000; -373.000
206.916;  -47.225; -210.000; -537.000
207.062;  -75.450; -545.000; -591.000
207.207;  -58.375; -546.000; -443.000
207.353;   48.900;  185.000;  460.000
207.498;   15.575;  196.000;   85.000
207.643;  -46.000; -501.000; -370.000
207.789; -120.875;-1069.000; -910.000
207.934;  -88.775; -665.000; -713.000
208.080;  -26.650; -154.000;   66.000
208.225;   -6.550;  -22.000;  -57.000
208.370;  -78.925; -727.000; -619.000
208.516;  -75.850; -741.000; -487.000
208.661;   -7.150; -127.000;  -69.000
208.806;  -25.425; -165.000; -171.000
208.952; -116.750;-1044.000; -731.000
209.097;   65.875;  378.000;  349.000
209.242;  -54.150; -307.000; -382.000
209.387;   65.325;  392.000;  350.000
209.533;  -39.700; -321.000; -350.000
209.678;   76.975;  472.000;  543.000
209.823;  -50.175; -408.000; -310.000
209.969;  -89.550; -860.000; -757.000
210.114;  -97.250; -907.000; -719.000
210.259; -107.275; -939.000; -889.000
210.404;  -26.700; -171.000;  103.000
210.549;   -3.125;  108.000;    3.000
210.695;  -25.225;   -3.000;  -95.000
210.840;   49.675;   94.000;   67.000
210.985;  -66.525; -484.000; -303.000
211.130;   64.400;  268.000;  406.000
211.275;   10.300;  207.000;  199.000
211.420;  -58.725; -300.000; -289.000
211.566;  -64.600; -536.000; -489.000
211.711;   29.250;  218.000;  157.000
211.856;  -77.750; -545.000; -519.000
212.001;    9.050;  151.000;   44.000
212.146;   24.800;  153.000;   49.000
212.291;  -10.825; -210.000; -186.000
212.436;  -14.625; -280.000;   -6.000
212.581;  -76.475; -685.000; -653.000
212.726;  -61.225; -487.000; -538.000
212.871;  -45.725; -552.000; -217.000
213.016; -144.050;-1172.000;-1029.000
213.161;   61.450;  406.000;  291.000
213.306;  -73.775; -435.000; -577.000
213.451;  -86.150; -778.000; -689.000
213.596;  -57.700; -455.000; -347.000
213.741;  -47.825; -448.000; -538.000
213.886;  -78.900; -498.000; -517.000
214.031;  -17.325; -294.000; -124.000
214.176;  -48.100; -408.000; -341.000
214.321;  -12.975; -296.000; -157.000
214.466;  -20.875; -163.000;  -43.000
214.611;   -0.600;  -61.000;  -10.000
214.756; -122.150; -948.000; -858.000
214.901;  -27.850; -388.000; -226.000
215.046; -115.125; -797.000; -825.000
215.191;   21.250;  128.000;   35.000
215.336;   -8.150; -157.000;  -19.000
215.480;  -60.525; -684.000; -505.000
215.625;    0.175; -175.000;  -19.000
215.770;  -71.425; -757.000; -662.000
215.915;    7.350;   -5.000;  -97.000
216.060;   -5.250; -113.000;  -21.000
216.205; -109.925; -731.000; -779.000
216.349;  -72.775; -470.000; -533.000
216.494; -133.450; -939.000; -867.000
216.639; -112.500; -823.000; -888.000
216.784;  -85.400; -577.000; -525.000
216.929;   50.900;  392.000;  281.000
217.073;  -15.350; -244.000;  -31.000
217.218;   22.025;   78.000;  -47.000
217.363;  -88.025; -656.000; -618.000
217.507;  -76.525; -623.000; -588.000
217.652; -101.900; -845.000; -874.000
217.797;  -72.750; -708.000; -659.000
217.942;  -99.375; -856.000; -720.000
218.086;   74.425;  608.000;  539.000
218.231;  -10.925; -174.000;  -26.000
218.376;  -15.950; -337.000; -229.000
218.520;    9.600;  -41.000;   96.000
218.665;  -50.150; -338.000; -204.000
218.810;  -51.725; -275.000; -233.000
218.954;   12.125;  201.000;   35.000
219.099; -101.025; -713.000; -963.000
219.243;  -56.425; -589.000; -554.000
219.388;  -17.650; -264.000; -136.000
219.532;   -4.475; -116.000; -116.000
219.677;  -70.450; -564.000; -521.000
219.822;   11.925;   33.000;   89.000
219.966;    5.225;   17.000;  -99.000
220.111;  -38.400; -328.000;  -40.000
220.255; -102.550; -797.000; -750.000
220.400;  -11.625; -180.000; -146.000
220.544;  -82.175; -516.000; -450.000
220.689;  -48.025; -422.000; -451.000
220.833;  -25.175; -123.000;  -58.000
220.978;  -41.325; -393.000; -563.000
221.122;   27.150;  319.000;  307.000
221.267; -114.675; -906.000; -837.000
221.411;  -64.825; -478.000; -394.000
221.555;   -0.525; -104.000;  -23.000
221.700;  -47.725; -329.000; -222.000
221.844;   31.475;  255.000;  272.000
221.989;  -46.525; -328.000; -311.000
222.133;  -14.575; -289.000; -307.000
222.277;   -5.925;    5.000;   78.000
222.422;   29.200;  227.000;  113.000
222.566;  -35.525; -381.000; -214.000
222.711;  -49.850; -414.000; -479.000
222.855;  -83.725; -643.000; -586.000
222.999;  -76.525; -642.000; -717.000
223.144;  -22.150; -195.000; -194.000
223.288;   49.050;  423.000;  251.000
223.432;   36.975;  184.000;  230.000
223.576;   21.200;  152.000;  -21.000
223.721;   28.425;  364.000;  273.000
223.865;  -46.775; -472.000; -475.000
224.009;  234.250; 1673.000; 1631.000
224.153;  -78.000; -660.000; -671.000
224.298;  -56.875; -531.000; -489.000
224.442;  -16.550;  -74.000;  -33.000
224.586;  -15.350; -169.000; -106.000
224.730; -105.275; -858.000; -670.000
224.875;  -96.250; -739.000; -688.000
225.019;   23.550;  102.000;  188.000
225.163;   36.050;  208.000;  341.000
225.307;   17.450;   97.000;  -91.000
225.451;   45.900;  360.000;  481.000
225.595;   30.625;  264.000;  176.000
225.739;  -17.550; -170.000;  -94.000
225.884;    2.625;   86.000;    5.000
226.028;  -97.775; -760.000; -626.000
226.172;  -35.150; -260.000; -273.000
226.316; -119.200; -941.000; -902.000
226.460;  -63.625; -645.000; -493.000
226.604;  -52.800; -406.000; -400.000
226.748;  -99.450; -836.000; -733.000
226.892;  -33.825; -227.000; -181.000
227.036;  -47.200; -537.000; -447.000
227.180;  -36.300; -551.000; -375.000
227.324;  -54.825; -561.000; -580.000
227.468; -116.150; -819.000; -717.000
227.612;   20.850;  242.000;  -28.000
227.756;  -86.000; -845.000; -698.000
227.900;   40.700;  342.000;  441.000
228.044;  -61.600; -509.000; -290.000
228.188;   54.750;  448.000;  568.000
228.332;  -83.625; -546.000; -472.000
228.476;  -27.650; -223.000; -149.000
228.620;  -35.950; -210.000; -150.000
228.764;   69.075;  431.000;  349.000
228.908;  -23.950; -155.000;   30.000
229.052;  -45.525; -615.000; -528.000
229.195;  -20.950; -172.000;   13.000
229.339;  -30.050; -235.000; -305.000
229.483;  -24.775;    5.000; -162.000
229.627;  -14.550; -156.000;  139.000
229.771;  -55.950; -218.000; -294.000
229.915;    8.950;  230.000;   79.000
230.059;  -89.550; -648.000; -663.000
230.202;  -26.050; -370.000; -317.000
230.346;  -29.250; -107.000;  107.000
230.490;  -69.600; -489.000; -521.000
230.634; -103.000; -736.000; -553.000
230.777;   86.600;  478.000;  509.000
230.921;  -54.075; -450.000; -359.000
231.065;  -37.350; -246.000; -286.000
231.209;   21.050;  261.000;  265.000
231.352;   12.550;   54.000;   40.000
231.496;   27.075;  568.000;  188.000
231.640;  -71.500; -693.000; -621.000
231.783;   66.650;  546.000;  525.000
231.927;  -37.300; -294.000; -365.000
232.071; -139.250; -962.000; -736.000
232.214;  -99.825; -980.000; -764.000
232.358;  -78.975; -683.000; -599.000
232.502;    8.450;  -19.000;    7.000
232.645; -137.050;-1090.000; -927.000
232.789;  -25.850; -257.000; -218.000
232.933;  -41.400; -407.000; -224.000
233.076; -111.925;-1038.000; -897.000
233.220;  -96.550; -752.000; -777.000
233.363;  -75.500; -669.000; -477.000
233.507;   50.600;  371.000;  129.000
233.650; -100.100; -764.000; -834.000
233.794;   29.700;  438.000;  461.000
233.938;  -56.150; -530.000; -362.000
234.081;  -20.475;  -93.000;   31.000
234.225;  -44.500; -631.000; -539.000
234.368; -101.600; -773.000; -723.000
234.512;  -32.675; -385.000; -299.000
234.655;  -89.475; -582.000; -555.000
234.798;  -65.800; -493.000; -466.000
234.942; -129.450; -884.000;-1002.000
235.085;  -63.275; -651.000; -443.000
235.229;  -68.200; -405.000; -410.000
235.372;  -45.775; -247.000; -191.000
235.516;  -53.575; -397.000; -321.000
235.659;   23.750;   92.000;  121.000
235.802;  -17.275;  -38.000;  -22.000
235.946;   31.625;  335.000;  215.000
236.089;   32.450;  126.000;  250.000
236.233;   45.075;  275.000;  298.000
236.376;  -47.450; -235.000; -378.000
236.519;  -36.350; -297.000; -319.000
236.663;  -21.275; -215.000; -117.000
236.806; -126.900;-1029.000; -999.000
236.949;   48.150;  543.000;  431.000
237.092;   65.100;  412.000;  391.000
237.236;  -89.075; -589.000; -502.000
237.379;   62.400;  352.000;  428.000
237.522; -114.100; -879.000; -768.000
237.666;  -15.850; -271.000;   18.000
237.809; -138.025; -851.000; -823.000
237.952;   41.350;  469.000;  271.000
238.095;  -63.175; -447.000; -442.000
238.238;   88.150;  688.000;  700.000
238.382;   -0.900;  166.000;  103.000
238.525;  -63.575; -598.000; -511.000
238.668; -137.650;-1060.000; -985.000
238.811;  -70.800; -638.000; -643.000
238.954;  -53.800; -483.000; -334.000
239.097;  100.950;  617.000;  664.000
239.241;   27.700;  394.000;  326.000
239.384;  -27.400; -254.000; -214.000
239.527;  -59.675; -424.000; -224.000
239.670; -142.400; -994.000;-1091.000
239.813;  -99.850; -696.000; -658.000
239.956;   76.050;  579.000;  473.000
240.099;  -97.100; -778.000; -725.000
240.242;   51.075;  428.000;  432.000
240.385;   38.825;  466.000;  450.000
240.528;  -67.650; -706.000; -473.000
240.671;   19.100;  189.000;  134.000
240.814;  -45.425; -441.000; -158.000
240.957;  -90.425; -767.000; -578.000
241.100;  -85.050; -779.000; -755.000
241.243; -139.825;-1234.000; -893.000
241.386;  -67.975; -508.000; -379.000
241.529;  -98.750; -735.000; -547.000
241.672;  -61.850; -566.000; -495.000
241.815; -119.500; -832.000; -808.000
241.958;  -22.500; -125.000; -182.000
242.101;  -75.675; -545.000; -390.000
242.244;  -29.150; -270.000; -325.000
242.387;  -35.500; -304.000; -246.000
242.530;   49.050;  470.000;  134.000
242.673;  -48.675; -381.000; -309.000
242.815; -111.800; -925.000; -899.000
242.958;  -63.050; -482.000; -381.000
243.101;   17.175;  132.000;  187.000
243.244;  -83.100; -564.000; -521.000
243.387;  -30.325; -313.000; -316.000
243.530;  -95.375; -657.000; -674.000
243.672;   15.150;   43.000;  -92.000
243.815;  -53.375; -355.000; -283.000
243.958;  -10.550;   98.000;  -26.000
244.101;    8.075;   59.000;  -16.000
244.243;  -18.400;  -47.000;  101.000
244.386; -114.200; -761.000; -630.000
244.529;  -36.250; -132.000; -139.000
244.672; -150.400;-1154.000; -951.000
244.814;  -90.975; -621.000; -794.000
244.957;  -69.725; -380.000; -304.000
245.100;  -71.800; -489.000; -489.000
245.242;  -63.525; -387.000; -374.000
245.385;    4.300;  -59.000;  -39.000
245.528; -119.300; -871.000; -705.000
245.670;   85.375;  612.000;  634.000
245.813;  -90.325; -599.000; -547.000
245.956;  -38.000; -324.000; -275.000
246.098;  -72.650; -508.000; -650.000
246.241;    5.700;  194.000;   48.000
246.383;    0.100; -119.000;  -73.000
246.526;  -72.325; -454.000; -525.000
246.669; -118.050; -889.000; -780.000
246.811;   21.000;  172.000;   -1.000
246.954;  -64.550; -512.000; -426.000
247.096;  -20.125;  -84.000;   -6.000
247.239;  -56.725; -482.000; -445.000
247.381;  -69.925; -647.000; -488.000
247.524;   87.950;  645.000;  679.000
247.666;   -8.875;   58.000;   11.000
247.809; -111.600; -887.000; -691.000
247.951;   -9.075;  -75.000;  138.000
248.094;   28.575;  432.000;  308.000
248.236; -148.900;-1262.000;-1238.000
248.378;   13.800; -356.000;  -81.000
248.521;  -20.725; -334.000; -337.000
248.663;  -35.500; -236.000; -267.000
248.806;  -30.500; -300.000; -266.000
248.948;  -82.325; -886.000; -763.000
249.090;  -41.250; -428.000; -398.000
249.233;  -60.225; -344.000; -381.000
249.375;  -57.125; -474.000; -451.000
249.518;  -25.500;  -83.000; -133.000
249.660;   -4.875; -103.000;    3.000
249.802; -158.850;-1303.000;-1189.000
249.945;  -67.700; -612.000; -540.000
250.087; -106.375; -834.000; -768.000
250.229;  -32.725; -362.000; -480.000
250.371;  -79.425; -494.000; -439.000
250.514;  -47.575; -310.000; -244.000
250.656;  -10.975;   69.000;  102.000
250.798; -112.500; -849.000; -800.000
250.940;  -55.125; -322.000; -322.000
251.083;  -21.225; -335.000; -111.000
251.225;   66.950;  338.000;  310.000
251.367;  -30.800; -274.000; -373.000
251.509;  -34.925; -265.000; -210.000
251.651;  -83.200; -731.000; -671.000
251.794;   47.900;  538.000;  632.000
251.936;  -99.750; -821.000; -747.000
252.078;  -85.700; -540.000; -461.000
252.220;  -74.100; -645.000; -477.000
252.362;   83.625;  344.000;  462.000
252.504;  -66.600; -677.000; -584.000
252.646; -113.200; -875.000; -722.000
252.788;  -11.600;   14.000; -128.000
252.931;  -42.775; -257.000; -253.000
253.073;  -41.350; -376.000; -317.000
253.215;   -9.300;  141.000;  122.000
253.357;   -9.525;   82.000; -153.000
253.499;  -44.375; -374.000; -234.000
253.641;  -89.050; -749.000; -594.000
253.783;  -99.800; -609.000; -527.000
253.925;  -89.525; -586.000; -591.000
254.067;  -97.350; -744.000; -667.000
254.209;  -24.550; -391.000; -259.000
254.351; -126.900; -865.000; -883.000
254.493;  -56.525; -441.000; -417.000
254.635; -127.650; -936.000; -818.000
254.777;  -98.650; -752.000; -687.000
254.918;  -64.200; -512.000; -430.000
255.060;  -61.075; -551.000; -395.000
255.202;  -46.350; -473.000; -261.000
255.344;  -75.350; -658.000; -455.000
255.486;  -71.875; -471.000; -406.000
255.628; -102.150; -780.000; -781.000
255.770;  -83.950; -676.000; -536.000
255.912;  -65.325; -559.000; -468.000
256.053;  -91.375; -730.000; -508.000
256.195;  147.700; 1008.000;  903.000
256.337;  -99.400; -861.000; -595.000
256.479;   70.650;  532.000;  416.000
256.621;  -34.025; -394.000; -212.000
256.762;  -88.050; -789.000; -742.000
256.904;   47.375;  485.000;  487.000
257.046;  -31.700; -381.000; -271.000
257.188;  -45.150; -351.000; -264.000
257.329;  -63.400; -525.000; -464.000
257.471; -115.725; -939.000; -807.000
257.613;  -56.775; -584.000; -498.000
257.755; -145.450;-1073.000; -982.000
257.896;   34.300;  286.000;  392.000
258.038;  -58.275; -403.000; -352.000
258.180;  -41.975; -354.000; -279.000
258.321;  -71.150; -581.000; -457.000
258.463;    2.000;  -71.000;  133.000
258.605;  -98.600; -562.000; -570.000
258.746;  -99.950; -886.000; -772.000
258.888; -147.350;-1026.000;-1020.000
259.029;   17.800;  121.000;   -8.000
259.171;  -88.125; -614.000; -550.000
259.313;    2.300;  -49.000;  -47.000
259.454;  -74.175; -536.000; -414.000
259.596;  -54.725; -483.000; -390.000
259.737;  -74.075; -590.000; -474.000
259.879;   33.700;  217.000;  311.000
260.020;   90.925;  901.000;  636.000
260.162;  -26.775; -146.000; -253.000
260.303; -104.900; -768.000; -687.000
260.445;  -82.475; -609.000; -613.000
260.586;   25.325;  392.000;  157.000
260.728;  -51.175; -360.000; -248.000
260.869; -119.400; -350.000; -343.000
261.011;   66.925;  706.000;  537.000
261.152;  -58.400; -479.000; -319.000
261.293;  -73.225; -576.000; -595.000
261.435;  -32.050; -219.000; -184.000
261.576;  -37.875; -455.000; -325.000
261.718;   53.175;  420.000;  470.000
261.859; -115.000; -940.000; -949.000
262.000; -117.200; -951.000;-1016.000
262.142;  -21.600;  -52.000;  -60.000
262.283; -107.275; -808.000; -691.000
262.424;  -82.550; -666.000; -625.000
262.566; -146.675;-1161.000; -983.000
262.707; -116.450; -840.000; -830.000
262.848; -108.625; -769.000; -726.000
262.990;  -45.975; -362.000; -345.000
263.131;   76.850;  650.000;  681.000
263.272;   -7.000;  -61.000;  -41.000
263.413;  -84.750; -589.000; -561.000
263.555;  -70.750; -669.000; -143.000
263.696;  -85.750; -550.000; -641.000
263.837;  -54.525; -449.000; -551.000
263.978;   -1.375;   -5.000;  -77.000
264.119;  -39.700; -283.000; -264.000
264.261; -116.425; -847.000; -630.000
264.402;   -2.425;   33.000;   40.000
264.543;  -68.725; -509.000; -524.000
264.684;   -1.725;   61.000;  -50.000
264.825;  -70.250; -816.000; -538.000
264.966;  -10.800;  -84.000;  -67.000
265.107; -100.575; -646.000; -670.000
265.248;  -97.675; -825.000; -812.000
265.390;  -12.925;  152.000;   -9.000
265.531;  -13.100; -238.000; -107.000
265.672;  -79.925; -557.000; -630.000
265.813;   64.575;  563.000;  439.000
265.954; -146.075; -959.000; -940.000
266.095;  -32.000; -372.000; -322.000
266.236;  -89.200; -686.000; -548.000
266.377;  -47.075; -243.000; -297.000
266.518;  -66.425; -619.000; -547.000
266.659;   21.350;  170.000;  268.000
266.800;    6.350;   83.000;   85.000
266.941;  -72.425; -487.000; -478.000
267.082;   17.725;  354.000;   99.000
267.223;  -46.250; -344.000; -273.000
267.364; -119.300; -892.000; -686.000
267.504;  -15.450;    3.000;  135.000
267.645;    9.225;  160.000;   67.000
267.786;  -32.250; -147.000;  -86.000
267.927;  -73.975; -473.000; -379.000
268.068;   -8.225; -186.000;  -61.000
268.209;  -44.050; -175.000; -413.000
268.350;  -63.875; -388.000; -532.000
268.490;  -87.825; -648.000; -521.000
268.631;   38.025;  127.000;  225.000
268.772; -114.450; -874.000; -647.000
268.913;  -48.400; -328.000; -476.000
269.054;  -16.825; -117.000;   12.000
269.194;  -58.975; -418.000; -402.000
269.335; -146.375;-1137.000;-1074.000
269.476;  -14.550;   33.000;  -35.000
269.617;  -52.725; -347.000; -392.000
269.757;  -82.900; -713.000; -646.000
269.898;  -95.475; -856.000; -613.000
270.039;  -53.050; -415.000; -405.000
270.180; -137.675; -952.000; -816.000
270.320;  -17.650; -190.000; -250.000
270.461;  -37.775; -277.000; -249.000
270.602;   -7.325; -186.000; -156.000
270.742; -125.375; -868.000; -943.000
270.883;  -61.500; -442.000; -390.000
271.023;  -46.125; -358.000; -357.000
271.164;  -63.850; -607.000; -528.000
271.305;  -89.250; -666.000; -654.000
271.445;  -99.350; -722.000; -683.000
271.586;  -63.350; -462.000; -283.000
271.726;  -46.975; -397.000; -322.000
271.867;  -58.325; -594.000; -534.000
272.008;  177.225; -473.000; -285.000
272.148;  129.550;  462.000;  468.000
272.289;    6.325; -113.000; -181.000
272.429;    6.125;   19.000;  185.000
272.570;  -90.675; -633.000; -737.000
272.710;  -97.300; -825.000; -775.000
272.851;  -20.975;  113.000; -130.000
272.991; -155.775;-1173.000;-1077.000
273.131;  -55.975; -419.000; -459.000
273.272; -102.675; -683.000; -723.000
273.412;   10.275; -143.000;  -31.000
273.553;  -68.425; -488.000; -507.000
273.693;  136.500;  913.000;  858.000
273.834;  -95.375; -894.000; -692.000
273.974;  -62.175; -664.000; -615.000
274.114;  -90.300; -772.000; -560.000
274.255;   79.325;  414.000;  373.000
274.395;    3.650; -180.000; -125.000
274.535;   45.825;  199.000;  350.000
274.676;   23.850;  225.000;   94.000
274.816;   18.375;  110.000;   34.000
274.956;  -71.075; -624.000; -690.000
275.097;  -61.025;-1014.000; -922.000
275.237; -110.975; -913.000; -803.000
275.377;  -93.650; -778.000; -689.000
275.517; -139.750; -878.000; -937.000
275.658;  -55.075; -590.000; -555.000
275.798;  -67.025; -606.000; -413.000
275.938;   28.650;  215.000;  323.000
276.078;  -97.950; -626.000; -395.000
276.218;   -0.675;   99.000;  104.000
276.359; -121.650;-1026.000;-1024.000
276.499;  -59.300; -605.000; -446.000
276.639;  -37.900; -305.000; -151.000
276.779;  -56.975; -475.000; -357.000
276.919;  -89.250; -783.000; -624.000
277.059;  -23.850; -261.000; -212.000
277.199;  -45.700; -357.000; -259.000
277.340;   41.750;  287.000;  175.000
277.480; -106.475; -840.000; -693.000
277.620;   24.075;  192.000;   16.000
277.760; -183.825;-1533.000;-1294.000
277.900;   10.975;  113.000;   33.000
278.040;    2.250;  137.000;  159.000
278.180;   53.775;  270.000;  170.000
278.320;    5.500;   21.000;   56.000
278.460;  -77.375; -443.000; -469.000
278.600;  -92.125; -708.000; -598.000
278.740;   35.800;  448.000;  224.000
278.880;  -56.175; -768.000; -791.000
279.020;  -10.750; -194.000; -144.000
279.160;  -92.975; -672.000; -595.000
279.300; -107.850; -926.000; -873.000
279.440;  -90.750; -709.000; -622.000
279.579;  -24.400;-1014.000; -929.000
279.719;  -41.475; -410.000; -394.000
279.859;   61.325;   -4.000;   41.000
279.999;   35.600; -208.000;  101.000
280.139;  -17.750; -435.000; -387.000
280.279;  -84.225; -708.000; -745.000
280.419;  -10.100; -229.000; -147.000
280.559;  -42.075; -259.000; -180.000
280.698; -100.175; -790.000; -639.000
280.838;  -95.725; -778.000; -800.000
280.978;  -91.650; -846.000; -790.000
281.118; -117.175; -811.000; -704.000
281.257;    0.800;   24.000;    6.000
281.397; -127.325;-1094.000; -960.000
281.537;  -97.975; -599.000; -712.000
281.677;  -23.500; -150.000; -101.000
281.816;  -89.000; -700.000; -630.000
281.956;  -38.550; -193.000; -257.000
282.096;  -63.525; -539.000; -396.000
282.235; -108.425; -672.000; -638.000
282.375;  -22.675; -243.000;  -98.000
282.515;  -92.400; -715.000; -707.000
282.654;   33.225;   29.000;  106.000
282.794;   32.125;  388.000;  244.000
282.934;  -65.125; -530.000; -491.000
283.073; -126.350;-1030.000; -857.000
283.213;  -68.375; -460.000; -467.000
283.353;  -40.500; -408.000; -349.000
283.492;  -35.700; -264.000; -296.000
283.632;  -48.775; -254.000; -168.000
283.771; -103.150; -859.000; -730.000
283.911;  -60.825; -369.000; -260.000
284.050; -104.975; -794.000; -748.000
284.190; -160.500;-1229.000;-1096.000
284.329; -119.225;-1055.000; -964.000
284.469;  -61.675; -516.000; -591.000
284.608;  -53.200; -559.000; -598.000
284.748;  -72.150; -614.000; -570.000
284.887;   11.725;  -87.000;  -20.000
285.027; -122.525; -844.000; -892.000
285.166;  -31.625; -192.000; -249.000
285.306;   11.375; -116.000;  -33.000
285.445;  -34.325; -229.000; -343.000
285.584;  -88.325; -630.000; -494.000
285.724;  -44.500; -282.000; -322.000
285.863; -110.850; -857.000; -507.000
286.002;  -44.725; -366.000; -276.000
286.142; -100.975; -715.000; -622.000
286.281;  -77.550; -525.000; -493.000
286.420;  -79.975; -554.000; -417.000
286.560;   88.400;  653.000;  623.000
286.699; -143.150; -958.000; -912.000
286.838;  -81.750; -590.000; -591.000
286.978;  -90.175; -533.000; -537.000
287.117; -147.500;-1085.000; -950.000
287.256;  -31.150; -228.000; -211.000
287.395;  -43.550; -197.000; -378.000
287.535;  -51.650; -370.000; -298.000
287.674;  -72.350; -509.000; -484.000
287.813;   53.025;  661.000;  533.000
287.952; -117.150;-1010.000; -871.000
288.091; -139.775;-1049.000; -915.000
288.231;   17.925;   13.000;   15.000
288.370; -174.750;-1217.000;-1200.000
288.509;  -91.200; -728.000; -645.000
288.648;  -86.250; -770.000; -548.000
288.787;  -43.425; -243.000;  -87.000
288.926;  -63.825; -454.000; -475.000
289.065;  111.450;  859.000;  672.000
289.204;  -53.725; -377.000; -217.000
289.344;  -95.050; -791.000; -690.000
289.483;   26.600;  416.000;  304.000
289.622;  -39.775; -291.000; -149.000
289.761;  -15.400; -309.000; -166.000
289.900; -111.625; -785.000; -626.000
290.039;  -27.275;  -12.000;  -95.000
290.178;  -32.500; -274.000; -180.000
290.317;  -79.500; -618.000; -479.000
290.456;  -67.775; -463.000; -451.000
290.595; -137.600; -961.000; -833.000
290.734; -133.500; -904.000; -891.000
290.873;  -62.575; -456.000; -420.000
291.011; -111.200; -833.000; -843.000
291.150; -102.825; -770.000; -682.000
291.289;  -31.500; -343.000; -110.000
291.428;  -94.900; -599.000; -480.000
291.567;  -52.475; -370.000; -442.000
291.706;   -6.625;  109.000;  154.000
291.845;  -95.425; -597.000; -505.000
291.984; -163.525;-1234.000;-1061.000
292.122;   68.900;  602.000;  582.000
292.261;   40.300;  620.000;  463.000
292.400;   12.975; -144.000;  211.000
292.539; -119.900; -959.000; -813.000
292.678;  -44.050; -325.000; -300.000
292.816; -142.400;-1136.000; -965.000
292.955;  -76.025; -844.000; -684.000
293.094;  -19.150; -173.000; -337.000
293.233;  -53.750; -556.000; -400.000
293.371;  -43.825; -225.000;  -84.000
293.510; -107.000; -866.000; -780.000
293.649; -130.700; -959.000; -924.000
293.787;  -77.500;-1083.000;-1012.000
293.926;   -6.250; -113.000;  -32.000
294.065;  -50.850; -379.000; -290.000
294.203;   30.025;  298.000;  406.000
294.342;   14.975;   74.000;  156.000
294.481; 5689.600;51180.000; -836.000
294.619;  -32.500; -425.000; -582.000
294.758; -145.175;-1230.000;-1137.000
294.896;   53.625; -125.000;    5.000
295.035; -124.700;-1040.000;-1006.000
295.174; -125.425;-1082.000; -954.000
295.312;  -40.075; -323.000; -203.000
295.451;  -25.650; -307.000; -428.000
295.589;  -66.650; -389.000; -518.000
295.728;   16.400; -292.000; -165.000
295.866;   -6.325;  -36.000;  -51.000
296.005;  -64.475; -584.000; -341.000
296.143;  -69.950; -558.000; -596.000
296.282; -104.650; -957.000; -881.000
296.420;  -85.850; -657.000; -557.000
296.559;  -94.250; -892.000; -633.000
296.697;    3.850; -847.000; -665.000
296.835;   21.575;-1141.000;-1002.000
296.974;   36.900;  -23.000;   39.000
297.112;    2.500; -443.000; -504.000
297.251;  -76.725; -815.000; -755.000
297.389;   66.075; -576.000; -438.000
297.527;   25.550; -145.000;  -83.000
297.666;  -48.825; -486.000; -438.000
297.804;  -66.600; -404.000; -264.000
297.942;   -4.625; -136.000; -161.000
298.081;   -7.500; -183.000;   63.000
298.219;   63.600;  -17.000;  -19.000
298.357;   50.600; -144.000;  -71.000
298.495;   10.750; -810.000; -812.000
298.634;   70.975;  245.000;  219.000
298.772;   41.925; -220.000; -338.000
298.910;  -47.875; -309.000; -182.000
299.048;  -16.225; -130.000; -153.000
299.187;  -36.300; -350.000; -250.000
299.325;    9.925;   52.000;  122.000
299.463;   34.775; -389.000; -299.000
299.601;   78.750; -327.000; -271.000
299.739; -114.900; -908.000; -883.000
299.877;  -71.375; -791.000; -703.000
300.016;  -44.300;-1095.000; -935.000
300.154;  132.750;  -19.000; -161.000
300.292;   29.150; -428.000; -348.000
300.430;   18.375; -408.000; -291.000
300.568; -101.200; -940.000; -874.000
300.706;  -49.000; -366.000; -469.000
300.844;  -71.975;-1108.000; -979.000
300.982;  105.825;  246.000;  282.000
301.120; -104.825; -965.000; -866.000
301.258;  -67.750; -812.000; -705.000
301.396;   27.775;  104.000;  -41.000
301.534;   66.150; -218.000; -293.000
301.672;  -26.025; -664.000; -521.000
301.810;    9.375; -613.000; -545.000
301.948;   84.925;   53.000;  149.000
302.086;  585.550; -250.000;  -32.000
302.224;  809.975; -610.000; -585.000
302.362;    9.800; -558.000; -622.000
302.500;  -38.200; -923.000; -893.000
302.638;   82.750;  128.000;  245.000
302.776;   -0.975; -352.000; -408.000
302.913;   32.800;  447.000;  236.000
303.051;  -11.550;  -86.000;  -23.000
303.189;   48.600;   90.000;  118.000
303.327;  -40.325; -341.000; -256.000
303.465;  -73.875; -832.000; -588.000
303.603;  -94.300; -805.000; -604.000
303.740;  103.200;  417.000;  241.000
303.878;    9.650; -800.000; -759.000
304.016;  -96.175; -915.000; -790.000
304.154; -134.325;-1123.000;-1152.000
304.291;  -32.575; -505.000; -554.000
304.429;   -6.600;  102.000;   74.000
304.567; -127.575; -908.000; -893.000
304.705;  -66.725; -408.000; -515.000
304.842;   90.500; -616.000; -540.000
304.980;   42.825;  215.000;   35.000
305.118;   32.375; -367.000; -365.000
305.255;  -82.200; -945.000; -927.000
305.393;   51.175;  178.000;  239.000
305.531;  -91.700;-1173.000; -956.000
305.668;  -78.275; -663.000; -582.000
305.806;   87.875; -358.000; -439.000
305.943;   86.750; -629.000; -637.000
306.081;   46.700; -378.000; -267.000
306.219;  -93.375; -863.000; -748.000
306.356;    3.775;  158.000;   27.000
306.494;  106.825;  981.000;  761.000
306.631;   -2.050;  -11.000;  -55.000
306.769;    5.275; -613.000; -485.000
306.906;  -32.075; -284.000; -258.000
307.044;  -60.575; -473.000; -488.000
307.181;  -62.175; -410.000; -332.000
307.319;   11.225;  112.000;   87.000
307.456; -169.225;-1191.000;-1153.000
307.594; -107.300; -980.000; -727.000
307.731;  -11.250; -371.000; -164.000
307.868;   -2.550;  -15.000;   20.000
308.006; -140.550; -961.000; -847.000
308.143;  -60.450; -618.000; -330.000
308.281;  143.050;  -37.000; -254.000
308.418;  -24.100; -748.000; -640.000
308.555;  -75.425; -400.000; -250.000
308.693;  -76.725; -577.000; -573.000
308.830; -102.050; -712.000; -657.000
308.967;  -11.100; -215.000;  -95.000
309.105;  -60.825; -507.000; -396.000
309.242;   44.200; -468.000; -367.000
309.379;  292.875; -577.000; -655.000
309.517;  -82.375; -936.000; -948.000
309.654; -112.325; -910.000; -734.000
309.791;  -70.800; -662.000; -580.000
309.928; -114.200; -977.000; -914.000
310.065;  169.325;  819.000;  697.000
310.203;  -13.750; -825.000; -850.000
310.340;  -26.250; -465.000; -321.000
310.477;  -77.900; -412.000; -516.000
310.614;  -64.625; -383.000; -473.000
310.751;  -82.925; -427.000; -518.000
310.889;  -23.675;    1.000;   11.000
311.026; -155.350;-1161.000; -939.000
311.163;  -60.050; -386.000; -380.000
311.300;  -70.100; -512.000; -479.000
311.437;  -83.750; -658.000; -619.000
311.574; -154.725;-1226.000; -985.000
311.711;  -56.875; -595.000; -433.000
311.848;  -43.550; -380.000; -388.000
311.985;   13.225;  270.000;   93.000
312.122; -118.600; -932.000; -762.000
312.259; -121.800; -941.000; -994.000
312.396;  -85.825; -508.000; -551.000
312.533;  -89.700; -812.000; -790.000
312.670; -134.675;-1070.000; -898.000
312.807;  -30.175; -352.000; -367.000
312.944;  -76.625; -513.000; -611.000
313.081;  -38.000; -150.000; -415.000
313.218; -106.700;-1111.000; -867.000
313.355;   17.950; -531.000; -449.000
313.492;  -12.325; -455.000; -292.000
313.629;  119.775;  815.000;  735.000
313.766; -165.275;-1176.000;-1008.000
313.902;   -7.975; -186.000;   21.000
314.039;  -70.225; -372.000; -289.000
314.176;   22.325;  286.000;  192.000
314.313;  -80.975; -569.000; -473.000
314.450;  -81.450; -788.000; -684.000
314.587;  -52.125; -468.000; -480.000
314.723;    5.625;  -78.000;  130.000
314.860;   33.550;  318.000;  332.000
314.997;   24.850;  223.000;  142.000
315.134;  -43.625; -385.000; -368.000
315.270;  -35.500; -480.000; -496.000
315.407; -118.950;-1094.000; -967.000
315.544;  -36.900; -657.000; -538.000
315.681;  -58.375; -681.000; -565.000
315.817;   30.750; -133.000; -176.000
315.954;   22.275; -613.000; -392.000
316.091; -128.725;-1045.000;-1023.000
316.227;  -28.475;  -71.000; -179.000
316.364;    6.425;   23.000;    6.000
316.500;  -36.675; -113.000; -300.000
316.637;  -38.525; -181.000; -302.000
316.774;  -79.525; -625.000; -358.000
316.910;  -93.050; -598.000; -629.000
317.047;  -70.800; -487.000; -351.000
317.183;  -52.200; -435.000; -566.000
317.320;   -5.450; -367.000; -321.000
317.456;  -69.975; -733.000; -805.000
317.593; -103.950; -598.000; -641.000
317.729;    5.950;  168.000;  -67.000
317.866; -186.650;-1434.000;-1285.000
318.002;  -93.725; -708.000; -948.000
318.139;  -96.300; -883.000; -867.000
318.275; -100.150;-1003.000; -738.000
318.412;  -70.150; -517.000; -336.000
318.548;  -27.975; -751.000; -720.000
318.685; -100.175; -985.000; -888.000
318.821;  -98.000; -762.000; -735.000
318.957;  -19.525;   34.000;  -23.000
319.094;   36.700;  297.000;  154.000
319.230;  -63.075; -756.000; -742.000
319.367;   95.150; -471.000; -520.000
319.503;   46.150; -538.000; -436.000
319.639; -103.900; -877.000; -793.000
319.775;  -64.700; -750.000; -685.000
319.912;  -53.525; -424.000; -519.000
320.048;  -92.475;-1184.000;-1184.000
320.184;   85.075;   59.000;   70.000
320.321;  -66.200; -497.000; -467.000
320.457;   67.575;  475.000;  662.000
320.593;  -65.900; -375.000; -382.000
320.729;  -91.050; -732.000; -734.000
320.866;  -71.375; -577.000; -635.000
321.002;  -73.975; -759.000; -809.000
321.138;  -17.450; -135.000; -211.000
321.274;   81.550; -148.000; -115.000
321.410;  -15.475; -585.000; -353.000
321.546;  -51.525;-1011.000; -911.000
321.683;   41.575;  400.000;  185.000
321.819;   -7.300;  -48.000; -117.000
321.955; -126.250; -743.000; -722.000
322.091;  -47.475; -585.000; -540.000
322.227;  -17.175; -382.000; -202.000
322.363;  -23.675; -320.000; -215.000
322.499;  -50.050; -343.000; -331.000
322.635;  169.075;  636.000;  443.000
322.771;   21.250; -139.000;   12.000
322.907;   80.825;  129.000;  327.000
323.043;  -20.425; -115.000; -206.000
323.179;  -24.175; -394.000; -363.000
323.315;    8.225; -401.000; -371.000
323.451;   68.300; -328.000; -236.000
323.587;   66.325;  -60.000;  -77.000
323.723;    8.050; -682.000; -601.000
323.859;  -16.700; -258.000;  -76.000
323.995;  -44.175; -467.000; -409.000
324.131; -128.850; -967.000; -892.000
324.267;  -34.725; -254.000; -276.000
324.402; -121.950; -960.000; -983.000
324.538;   -8.275; -279.000; -104.000
324.674;   17.575;  164.000;   77.000
324.810;  102.675;  226.000;  308.000
324.946;  -11.875; -810.000; -658.000
325.082;  -65.700; -568.000; -475.000
325.217;  -11.075;  -62.000;   16.000
325.353;  -99.875; -764.000; -659.000
325.489;  -96.375; -540.000; -506.000
325.625;  -64.850; -579.000; -525.000
325.760;   48.675;  517.000;  376.000
325.896;  -26.925; -515.000; -702.000
326.032;  -53.950; -403.000; -352.000
326.168;  -62.975; -462.000; -369.000
326.303;  -68.600; -352.000; -461.000
326.439;  -18.625; -336.000; -276.000
326.575;   -4.150; -190.000;  -29.000
326.710;  -11.075; -156.000;  -30.000
326.846;  -13.650;  146.000;  103.000
326.982;  -95.100; -530.000; -548.000
327.117;  -74.950; -481.000; -442.000
327.253;  -77.025; -745.000; -742.000
327.388; -137.775;-1137.000;-1153.000
327.524;  -53.975; -811.000; -578.000
327.659;  -19.250;  -58.000;  -22.000
327.795;  -14.525;   69.000;   45.000
327.931;  -77.400; -723.000; -499.000
328.066;  -17.775; -417.000; -276.000
328.202;   -6.900;   12.000; -129.000
328.337;  106.150;  957.000;  713.000
328.473;   23.325;  -12.000;  -74.000
328.608;  -21.575; -256.000; -267.000
328.743;  -89.850; -799.000; -664.000
328.879;   15.950;  214.000;  114.000
329.014;  -33.550; -102.000; -122.000
329.150;  -82.700; -358.000; -483.000
329.285;  -79.275; -465.000; -466.000
329.421;  -40.075; -548.000; -246.000
329.556;  -33.425;  -36.000;   85.000
329.691; -106.875; -633.000; -615.000
329.827;  -89.575; -626.000; -480.000
329.962;  -25.350;  131.000; -301.000
330.097;  -91.025; -673.000; -585.000
330.233;  -47.375; -410.000; -223.000
330.368; -130.775; -839.000; -628.000
330.503;  -14.275;    3.000;   98.000
330.638;    7.375;  -93.000; -125.000
330.774;  -56.250; -609.000; -530.000
330.909;  -35.925; -434.000; -244.000
331.044;  -97.525; -714.000; -708.000
331.179; -184.125;-1217.000;-1109.000
331.315;   -2.500;   77.000;   20.000
331.450;    6.150;  157.000;  285.000
331.585;  -97.475; -805.000; -706.000
331.720;  -76.900; -510.000; -460.000
331.855;  -15.325;  -35.000; -102.000
331.990;  271.675;   62.000;  138.000
332.126;  137.600; -110.000;   71.000
332.261;  -18.675; -379.000; -265.000
332.396;    2.925; -135.000; -242.000
332.531;  -97.875;-1074.000;-1031.000
332.666;   34.100; -519.000; -363.000
332.801; -105.100; -726.000; -807.000
332.936;  -17.825; -192.000; -122.000
333.071; -149.050; -870.000; -817.000
333.206;   14.800;  307.000;  379.000
333.341;   11.275;  344.000;  418.000
333.476;  -93.600; -627.000; -623.000
333.611;  -41.000; -251.000; -173.000
333.746;  -36.025; -381.000; -464.000
333.881; -121.600; -973.000; -935.000
334.016; -131.450; -936.000; -917.000
334.151; -112.675; -746.000; -702.000
334.286;    9.425;  152.000;  186.000
334.421;  -21.875; -125.000; -178.000
334.556;  -76.950; -611.000; -567.000
334.690;  -91.050; -631.000; -577.000
334.825;   50.825;  381.000;   83.000
334.960;  -66.350; -285.000; -413.000
335.095;   -4.250;  135.000;  -91.000
335.230;  -96.450; -722.000; -738.000
335.365; -138.550;-1084.000; -990.000
335.499; -140.475;-1108.000;-1037.000
335.634;   16.175;    9.000;  534.000
335.769; -117.025; -755.000; -720.000
335.904;  -69.300; -603.000; -561.000
336.038;  -73.400; -735.000; -657.000
336.173; -114.950;-1206.000;-1194.000
336.308;    0.700; -116.000; -189.000
336.443;    4.900; -544.000; -634.000
336.577;  -74.750; -936.000; -787.000
336.712;   53.900;   -4.000;  -12.000
336.847;  -42.650; -724.000; -607.000
336.981;   58.250; -272.000; -208.000
337.116;  250.450;  615.000;  501.000
337.250;  118.525; -434.000; -421.000
337.385;  277.725; -297.000; -208.000
337.520;  120.375; -632.000; -603.000
337.654;  -40.675; -215.000; -126.000
337.789; -127.700; -989.000; -933.000
337.923;  -21.800; -104.000; -205.000
338.058;  -87.050; -673.000; -738.000
338.192;  -38.825; -611.000; -488.000
338.327;  -18.000;  -18.000; -155.000
338.461;  -73.025; -299.000; -469.000
338.596;  -81.675; -780.000; -638.000
338.730; -104.075; -767.000; -803.000
338.865;  114.775;  -46.000; -140.000
338.999;  -43.825; -846.000; -702.000
339.134;  -27.875; -634.000; -536.000
339.268;   10.950; -741.000; -603.000
339.403;  399.450; -740.000; -775.000
339.537;  136.150; -894.000; -820.000
339.671; -109.900; -829.000; -813.000
339.806;  -57.800; -556.000; -512.000
339.940;   15.400; -261.000; -235.000
340.074;  -90.000; -685.000; -510.000
340.209;  -47.875; -351.000; -230.000
340.343; -102.375; -517.000; -573.000
340.477;  139.075;  998.000; 1036.000
340.612;  -44.200;-1033.000; -900.000
340.746;  160.125; -199.000; -243.000
340.880;  -74.875; -924.000; -785.000
341.014;  -10.225;  -45.000; -154.000
341.149; -111.875; -756.000; -718.000
341.283; -101.450; -839.000; -754.000
341.417; -101.075;-1124.000; -938.000
341.551;  110.850; -768.000; -708.000
341.685;  -47.675; -633.000; -611.000
341.820;  -46.450; -562.000; -493.000
341.954;  -58.600; -218.000; -349.000
342.088; -153.300;-1102.000;-1019.000
342.222;   59.975;  565.000;  618.000
342.356;  -65.575; -395.000; -335.000
342.490;  -96.075; -880.000; -841.000
342.624;  -54.200; -339.000; -242.000
342.758;  -18.500; -364.000; -312.000
342.892;  -69.600; -710.000; -585.000
343.026;  -28.850;  -58.000; -116.000
343.160;  -51.975; -426.000; -376.000
343.294; -100.825; -474.000; -337.000
343.428;  -27.825; -488.000; -448.000
343.562;  -21.475; -172.000;  -23.000
343.696;  -28.600; -385.000; -314.000
343.830;  -30.450; -362.000; -356.000
343.964;    7.625; -231.000; -168.000
344.098;  779.100;  199.000;   70.000
344.232;  658.275; -266.000; -127.000
344.366;   75.850; -567.000; -453.000
344.500;   36.475; -665.000; -744.000
344.634;   18.775; -324.000; -164.000
344.768;  -15.575; -531.000; -341.000
344.902;   10.600;  278.000;  256.000
345.035;  -78.475; -556.000; -496.000
345.169; -136.225; -933.000; -656.000
345.303;  -36.325; -308.000; -482.000
345.437;  -82.725; -826.000; -717.000
345.571;  -70.775; -675.000; -594.000
345.704;  -62.525; -309.000; -532.000
345.838;  -26.875; -331.000; -284.000
345.972;  -50.200; -543.000; -495.000
346.106;  176.425; -179.000; -190.000
346.239;  428.375; -312.000; -243.000
346.373;    7.075; -343.000; -302.000
346.507; -133.250; -950.000; -962.000
346.640;  126.175;  -30.000;   13.000
346.774;  -50.925; -650.000; -797.000
346.908;  -19.500; -138.000;  -11.000
347.041; -104.150; -646.000; -593.000
347.175;   -2.275;  259.000;   27.000
347.309;  -81.225; -698.000; -628.000
347.442;  -94.025; -883.000; -732.000
347.576;  233.350;  670.000;  668.000
347.709;  163.275; -123.000;  -52.000
347.843;  -96.975; -933.000; -825.000
347.976;   33.100;  235.000;  294.000
348.110; -188.100;-1268.000;-1186.000
348.243; -105.725; -679.000; -772.000
348.377;   10.050;  -26.000;   60.000
348.510;   36.100;  403.000;  540.000
348.644;  -47.850;  -37.000; -159.000
348.777;    0.400;  180.000;  191.000
348.911;  -45.775; -142.000; -112.000
349.044;  144.150;  471.000;  448.000
349.178;  133.100;-1069.000;-1006.000
349.311;  113.025;  141.000;  255.000
349.444;    9.925; -927.000; -813.000
349.578;  -22.550; -347.000; -200.000
349.711; -111.950; -959.000; -862.000
349.845;  -16.950; -661.000; -591.000
349.978; -148.825;-1224.000;-1137.000
350.111;  -81.500; -546.000; -612.000
350.244;  -90.325; -596.000; -700.000
350.378;    0.225; -392.000; -393.000
350.511;  -78.775; -393.000; -426.000
350.644;  -88.350; -808.000; -806.000
350.778;    2.050;  168.000;  104.000
350.911;    9.400;  134.000;  140.000
351.044; -103.275; -685.000; -615.000
351.177;  -33.500; -321.000; -281.000
351.310;  -19.600;    3.000; -131.000
351.444;  -75.600; -888.000; -788.000
351.577;  100.975;  140.000;   90.000
351.710;   89.600;  593.000;  417.000
351.843;  -45.525; -165.000;  -77.000
351.976;   -6.350;  149.000;  -79.000
352.109;  -87.350; -621.000; -612.000
352.242;  -26.700; -464.000; -419.000
352.376;  -69.175; -580.000; -636.000
352.509;  140.200; -437.000; -356.000
352.642;  -12.675; -654.000; -604.000
352.775;   45.275; -141.000;  -98.000
352.908; -127.725; -933.000; -904.000
353.041;  -96.800; -814.000; -824.000
353.174;  -64.975; -551.000; -424.000
353.307;  -90.650; -753.000; -764.000
353.440;   66.825;  541.000;  453.000
353.573; -114.225; -957.000;-1008.000
353.706;  -69.925; -384.000; -558.000
353.839;  -23.475; -264.000; -220.000
353.971; -101.175; -657.000; -512.000
354.104;  -80.500; -896.000; -835.000
354.237;  -40.600; -627.000; -662.000
354.370;  -95.325; -846.000; -879.000
354.503; -178.975;-1231.000;-1308.000
354.636;  -52.100; -529.000; -348.000
354.769; -130.575; -937.000; -860.000
354.902;  -13.825; -230.000; -139.000
355.034;  -35.400; -164.000; -220.000
355.167;  -20.925; -262.000; -162.000
355.300;  -91.175;-1061.000; -880.000
355.433; 1018.200;  -71.000;  -14.000
355.565; 1602.075; -402.000; -384.000
355.698;  408.300; -356.000; -296.000
355.831;   -6.225; -882.000; -801.000
355.964;   61.975; -285.000; -170.000
356.096;  -99.800; -856.000; -843.000
356.229;  -17.575; -523.000; -530.000
356.362;  328.725; -373.000; -266.000
356.494;  636.200; -229.000; -162.000
356.627;  428.625;  269.000;  377.000
356.760;  691.150;  120.000;   53.000
356.892; 1023.600; -286.000; -601.000
357.025;  584.875;  403.000;  389.000
357.157;  523.375; -167.000; -179.000
357.290;  734.250; -856.000; -713.000
357.423;  207.675; -667.000; -556.000
357.555;  118.600; -217.000; -228.000
357.688;  116.650; -483.000; -364.000
357.820;  412.500; -870.000; -877.000
357.953; 3381.300; -563.000; -589.000
358.085;  737.400; -632.000; -612.000
358.218;  921.050;-1131.000; -932.000
358.350;  166.850;  -58.000;  312.000
358.483; -130.700;-1300.000;-1187.000
358.615;  -40.225;-1182.000;-1078.000
358.747;  -73.725;-1187.000;-1058.000
358.880;    6.650; -810.000; -744.000
359.012;  -17.500; -376.000; -202.000
359.145;  -42.800; -480.000; -511.000
359.277;   46.650; -962.000; -913.000
359.409; 2751.700;  536.000;  231.000
359.542;  730.300; -738.000; -688.000
359.674;   84.675;   46.000;   13.000
359.806;  -65.000; -565.000; -438.000
359.939;  -45.750; -617.000; -516.000
360.071;   -6.325; -583.000; -579.000
360.203;  -22.000; -411.000; -364.000
360.335;   41.200;  164.000;  -16.000
360.468;  171.325; -249.000; -307.000
360.600; 2290.200; -547.000; -454.000
360.732; 3051.325; -546.000; -423.000
360.864;  435.800;-1216.000;-1044.000
360.996;  228.100; -516.000; -554.000
361.129;   30.250; -389.000; -598.000
361.261;   16.750;  110.000; -113.000
361.393;  -39.650; -252.000; -214.000
361.525;   22.425;   94.000;  244.000
361.657;  -39.075; -821.000; -703.000
361.789;   -5.250; -139.000; -155.000
361.921;  166.325; -642.000; -593.000
362.053;  228.725;  524.000;  541.000
362.185;   41.150;  288.000;   72.000
362.318;  -73.100; -709.000; -705.000
362.450;   97.750;  294.000;  444.000
362.582;   57.875; -913.000; -870.000
362.714;  -46.150; -353.000; -332.000
362.846;  -73.000; -606.000; -490.000
362.978; -149.900; -941.000; -811.000
363.109;   21.250; -161.000; -260.000
363.241;  371.600; -739.000; -749.000
363.373;  456.500; -649.000; -564.000
363.505;  725.650; -186.000;  -91.000
363.637;  155.375; -787.000; -601.000
363.769; -128.275;-1067.000;-1080.000
363.901;  -69.100; -596.000; -654.000
364.033; -114.925;-1103.000;-1062.000
364.165;   -7.150; -283.000; -283.000
364.296;   86.500; -316.000; -177.000
364.428;   93.825;-1344.000;-1220.000
364.560;  -67.125; -679.000; -661.000
364.692;  -63.150; -738.000; -835.000
364.824;  196.850; -588.000; -456.000
364.955;  443.850; -402.000; -564.000
365.087; 1046.900;-1097.000; -852.000
365.219;   48.975; -686.000; -816.000
365.351;  -71.575; -526.000; -572.000
365.482;   40.075;  300.000;  240.000
365.614;  -47.300; -402.000; -314.000
365.746;  -92.550; -729.000; -752.000
365.877;  -94.925; -706.000; -672.000
366.009;  271.400;  -35.000;  -62.000
366.141;  -70.250;-1249.000;-1134.000
366.272; -109.450; -803.000; -719.000
366.404; -127.450;-1005.000; -874.000
366.535;   -8.325; -139.000;  -12.000
366.667; -106.425; -644.000; -649.000
366.799;   43.150;  353.000;  203.000
366.930; -113.150; -862.000; -996.000
367.062;  126.125; -639.000; -613.000
367.193;  177.950; -872.000; -842.000
367.325;  -67.150; -580.000; -684.000
367.456;   30.075; -246.000;   31.000
367.588;  181.400; -371.000; -318.000
367.719;   17.475;  -44.000;  -45.000
367.851;  -15.725; -222.000; -241.000
367.982;  -64.650; -875.000; -732.000
368.113;   76.475; -475.000; -358.000
368.245; -128.725; -960.000; -841.000
368.376;  -27.825; -254.000; -302.000
368.508;  -43.025; -188.000; -263.000
368.639; -145.875;-1166.000;-1034.000
368.770;  -25.700; -670.000; -589.000
368.902;  -60.250; -836.000; -926.000
369.033; -111.250; -906.000; -855.000
369.164;  -48.575; -720.000; -653.000
369.296;  -98.400; -452.000; -601.000
369.427;   -9.825; -209.000; -144.000
369.558;  -55.875; -593.000; -377.000
369.689;  -81.050; -721.000; -569.000
369.821; -129.675; -951.000; -845.000
369.952;  -14.350;   42.000; -108.000
370.083;  -59.700; -229.000; -108.000
370.214;  -83.350; -735.000; -650.000
370.345;    0.600;   65.000;   81.000
370.477;  -91.450; -810.000; -790.000
370.608;  183.025; -328.000; -264.000
370.739;  -63.650;-1233.000;-1292.000
370.870;  -65.400;-1102.000; -923.000
371.001;   67.000; -378.000; -467.000
371.132;  -85.900; -754.000; -735.000
371.263;  -23.375;  -42.000; -148.000
371.394; -128.900; -841.000; -748.000
371.525;   21.100;  345.000;  225.000
371.657;  -93.725; -808.000; -670.000
371.788;   68.925;  103.000;  199.000
371.919;  135.975; -384.000; -304.000
372.050; 3202.275;  -91.000; -156.000
372.181;  972.500; -188.000; -294.000
372.311;  308.825;   42.000; -127.000
372.442;   20.950; -457.000; -451.000
372.573;  -33.100; -444.000; -340.000
372.704; -123.300;-1008.000; -980.000
372.835;   53.975; -228.000; -289.000
372.966;  -66.450; -646.000; -554.000
373.097;  -79.575; -575.000; -711.000
373.228;  -58.250; -717.000; -542.000
373.359;  105.200; -824.000; -536.000
373.490;  766.875; -881.000; -727.000
373.620; 1011.850;-1001.000; -803.000
373.751; 1526.300; -332.000; -396.000
373.882;  711.125; -663.000; -733.000
374.013;   43.600; -449.000; -262.000
374.143;  -49.925; -581.000; -659.000
374.274; -117.100; -987.000; -908.000
374.405;  150.000; -388.000; -276.000
374.536;  354.200; -526.000; -387.000
374.666;  930.225; -759.000; -807.000
374.797;  166.725; -817.000; -868.000
374.928;  711.750; -710.000; -560.000
375.058;  762.375; -535.000; -500.000
375.189;   45.100;  -59.000;  -93.000
375.320; -106.775; -928.000;-1034.000
375.450;  -50.300; -625.000; -616.000
375.581;  -62.975; -526.000; -436.000
375.712;  -52.375; -574.000; -250.000
375.842;  226.200; -438.000; -415.000
375.973;  192.825; -554.000; -513.000
376.103;  -54.475; -665.000; -648.000
376.234;  -80.750; -531.000; -552.000
376.364;  -62.750; -944.000; -867.000
376.495;  292.950;  925.000;  529.000
376.625;  -30.600; -472.000; -485.000
376.756;   33.200; -709.000; -678.000
376.886;  -92.400;-1178.000;-1026.000
377.017;   58.425;-1048.000;-1061.000
377.147;  392.275; -786.000; -782.000
377.278;   72.000;  174.000;  228.000
377.408; -119.875; -801.000; -815.000
377.538;  -95.775; -707.000; -693.000
377.669;  -76.125; -537.000; -613.000
377.799;  -92.600; -645.000; -635.000
377.929;  -74.850; -610.000; -428.000
378.060; -135.225; -781.000; -847.000
378.190;  -65.675; -726.000; -531.000
378.320;  -48.275; -401.000; -406.000
378.451;  -24.875; -131.000;  -22.000
378.581;  -20.600;  -67.000; -110.000
378.711;  139.100; 1035.000;  866.000
378.841;  -32.300; -533.000; -675.000
378.972;  -88.650; -871.000; -751.000
379.102;  -12.250; -652.000; -579.000
379.232;  -32.325; -126.000;  -73.000
379.362; -110.175;-1001.000; -885.000
379.492;   -6.800; -373.000; -424.000
379.623;   70.150;    0.000;  111.000
379.753; -116.100;-1107.000; -974.000
379.883;  166.825;   59.000;  156.000
380.013;  -10.675;-1081.000;-1017.000
380.143; -113.400;-1097.000;-1056.000
380.273;  -98.950; -985.000; -861.000
380.403;  -11.350; -344.000; -257.000
380.533;  -47.325; -651.000; -664.000
380.663;   44.975;  173.000;  128.000
380.793; -108.275;-1027.000;-1074.000
380.923;  -25.950; -103.000;  -34.000
381.053; -104.775; -613.000; -623.000
381.183;  -43.725; -106.000; -248.000
381.313;   -0.150; -656.000; -470.000
381.443;   10.025; -692.000; -473.000
381.573;  145.975; -402.000; -409.000
381.703;  196.325;-1249.000;-1095.000
381.833; -144.200;-1454.000;-1336.000
381.963;   90.650; -134.000;  -87.000
382.093; 1243.625; -925.000; -909.000
382.223;  390.925; -713.000; -602.000
382.353;  -25.900; -801.000; -608.000
382.482;  298.025;-1091.000; -964.000
382.612;  673.175; -872.000; -644.000
382.742;  378.775; -695.000; -622.000
382.872;  201.725; -565.000; -551.000
383.002;   57.250;  347.000; -132.000
383.131;  -23.375; -226.000; -160.000
383.261;  -40.975; -706.000; -768.000
383.391;  271.475; -552.000; -377.000
383.521; 3461.625;  451.000;  263.000
383.650;  905.475; -947.000; -904.000
383.780;   -4.875; -783.000; -656.000
383.910;   85.900;  880.000;  802.000
384.039;   -5.050; -794.000; -656.000
384.169;  149.300;-1205.000;-1017.000
384.299;  -34.450; -650.000; -662.000
384.428;  -92.600; -764.000; -680.000
384.558;  -54.225; -308.000; -275.000
384.687;  -54.475; -414.000; -334.000
384.817;   -0.225;   75.000;   -2.000
384.947;    1.950; -234.000; -141.000
385.076;  261.025;  982.000;  912.000
385.206;   83.400;  369.000;  480.000
385.335;  -46.950; -549.000; -417.000
385.465; -101.150; -655.000; -663.000
385.594;  113.275;  -53.000;  -44.000
385.724;  341.500; -868.000; -838.000
385.853;   85.925; -296.000; -270.000
385.982; 1151.450; -743.000; -787.000
386.112; 1883.900;-1052.000; -871.000
386.241;  126.125; -307.000; -312.000
386.371;   19.200; -174.000;  -87.000
386.500;   -6.550; -825.000; -789.000
386.629;   12.600; -874.000; -817.000
386.759;   57.225;  -43.000;   68.000
386.888;  -12.875; -170.000; -250.000
387.017;  -91.175; -648.000; -620.000
387.147;  -86.100; -771.000; -798.000
387.276;  -18.100; -410.000; -397.000
387.405;   -5.725; -398.000; -342.000
387.535;  -59.275; -452.000; -361.000
387.664;  -61.925; -692.000; -620.000
387.793;   37.875; -198.000; -113.000
387.922;  430.300;  255.000;  200.000
388.052;   -4.125; -576.000; -423.000
388.181;  -19.050; -342.000; -472.000
388.310;  -48.225; -889.000; -710.000
388.439;  -52.675; -749.000; -742.000
388.568;  163.250;  365.000;  244.000
388.697;  875.625; -756.000; -653.000
388.826;  160.675; -768.000; -666.000
388.956;   38.900; -285.000; -307.000
389.085;  -39.850; -347.000; -287.000
389.214; -110.250; -842.000; -872.000
389.343;  -73.050; -645.000; -413.000
389.472;  425.475;  126.000;  149.000
389.601;  514.175;   91.000;    0.000
389.730;   -4.475; -568.000; -687.000
389.859;   54.375;  226.000;   46.000
389.988;  154.275; -423.000; -408.000
390.117;  111.025; -168.000; -146.000
390.246;   -7.750; -331.000; -320.000
390.375;   70.675; -673.000; -626.000
390.504;  -67.575; -703.000; -621.000
390.633; -109.450; -672.000; -726.000
390.761;  -67.725; -732.000; -645.000
390.890;    7.000;   -4.000; -130.000
391.019;  -46.025; -421.000; -441.000
391.148; -131.225; -826.000; -855.000
391.277;  -70.950; -576.000; -493.000
391.406;  -90.950; -821.000; -805.000
391.534;   11.250;  574.000; -301.000
391.663;  -77.500; -583.000; -645.000
391.792;  -89.700; -673.000; -701.000
391.921;   69.425;   -3.000;   15.000
392.050;  148.725; -287.000; -228.000
392.178;  -70.900;-1206.000;-1061.000
392.307;  108.925; -758.000; -712.000
392.436;   47.675; -427.000; -641.000
392.564;   16.575;  166.000;   -6.000
392.693;  -97.000; -860.000; -682.000
392.822;  155.450; -529.000; -534.000
392.950;   51.800; -880.000; -714.000
393.079;  257.475; -188.000; -328.000
393.208;    6.300; -488.000; -511.000
393.336;  -19.600; -170.000; -145.000
393.465;  -53.950; -317.000; -199.000
393.593;    0.950;   62.000;   79.000
393.722; -150.475;-1121.000; -916.000
393.850;  -34.425; -188.000;  -61.000
393.979; -149.450; -926.000; -805.000
394.107;  -50.650; -517.000; -537.000
394.236;  -31.975; -570.000; -507.000
394.364;  197.525;  383.000;  206.000
394.493;  318.450; -911.000; -767.000
394.621;  -16.150; -955.000; -916.000
394.750;  743.925; -873.000; -923.000
394.878; 3063.575; -247.000; -149.000
395.007; 4325.050; -721.000; -807.000
395.135;  349.900; -790.000; -721.000
395.263;  -88.550;-1038.000;-1040.000
395.392;   -4.225;  -25.000; -107.000
395.520; -149.025; -818.000; -679.000
395.648;  -90.725; -865.000; -915.000
395.777;  -29.875; -366.000; -405.000
395.905;  -49.525; -449.000; -564.000
396.033;    3.800;  217.000;  172.000
396.162;  502.300; -399.000; -453.000
396.290;  458.275;  -17.000;   -2.000
396.418;   82.600; -555.000; -514.000
396.546; -102.525; -571.000; -466.000
396.674; -102.975; -850.000; -878.000
396.803;   -4.100;  -72.000;  -23.000
396.931;   68.925; -179.000; -199.000
397.059;   11.100;-1026.000; -989.000
397.187; -123.525;-1026.000; -975.000
397.315; -130.700; -884.000; -649.000
397.443; -105.625; -592.000; -443.000
397.572;  -83.500; -578.000; -424.000
397.700;  -37.025; -607.000; -614.000
397.828;    5.300;  120.000;  -90.000
397.956;  -46.125; -508.000; -478.000
398.084;  -58.625; -767.000; -626.000
398.212;   26.475;  137.000;  124.000
398.340;   13.375;  -56.000;  159.000
398.468;   13.775; -390.000; -169.000
398.596; -152.900; -993.000; -953.000
398.724; -124.850; -762.000; -767.000
398.852; -154.875;-1024.000; -976.000
398.980;  -79.325; -560.000; -560.000
399.108;  -72.950; -982.000; -735.000
399.236;   26.200;   13.000;    8.000
399.363;    1.425;  222.000;  196.000
399.491;  -74.950; -404.000; -398.000
399.619; -118.200; -829.000; -800.000
399.747; -106.100; -859.000; -771.000
399.875;   47.825;  220.000;  234.000
400.003;  -52.775; -359.000; -284.000
400.130;  -93.975; -421.000; -341.000
400.258;  -49.375;  -83.000;   38.000
400.386;  -76.375; -352.000; -168.000
400.514;  -47.025; -526.000; -587.000
400.641; -109.375; -928.000; -802.000
400.769; -155.375; -979.000; -888.000
400.897; -121.150; -838.000; -793.000
401.025;  -22.475; -166.000; -152.000
401.152;   -4.400;  220.000;   38.000
401.280;  -88.550; -430.000; -429.000
401.408; -103.675; -712.000; -576.000
401.535; -100.725; -735.000; -758.000
401.663; -191.950;-1134.000;-1054.000
401.790;  -93.225; -514.000; -525.000
401.918;   42.650;  436.000;  405.000
402.046;  -19.525;  134.000;  122.000
402.173;  -44.550;  -18.000;    7.000
402.301;  -80.550; -519.000; -397.000
402.428;   38.350;  528.000;  383.000
402.556; -152.875;-1188.000; -913.000
402.683;  -46.975;  -20.000;   -1.000
402.811;  -31.475;  -37.000; -206.000
402.938;  -25.725;   20.000;   27.000
403.066;  156.100; -574.000; -558.000
403.193;  295.650;  299.000;  239.000
403.321;  209.050; -396.000; -574.000
403.448;  286.350;   83.000;   27.000
403.575;  111.700;  -90.000;  -46.000
403.703;  -92.625; -732.000; -557.000
403.830;  -64.450; -531.000; -496.000
403.957; -142.775;-1117.000;-1023.000
404.085;   14.300;  -61.000; -172.000
404.212;   90.750;  -50.000;   63.000
404.339;  272.475; -566.000; -306.000
404.467; 6088.350; -612.000; -524.000
404.594; 4003.100; -287.000; -227.000
404.721;  891.625; -869.000; -764.000
404.848;   80.575; -113.000; -202.000
404.976; -107.575; -856.000; -783.000
405.103;  -18.900;  -14.000;  -82.000
405.230;   -7.575;  190.000;  226.000
405.357;   23.525;  117.000;   44.000
405.484;  279.975;  -49.000;    5.000
405.612;   57.825; -548.000; -563.000
405.739;  -69.700; -488.000; -243.000
405.866;   74.075;  669.000;  385.000
405.993;  -59.625; -398.000; -102.000
406.120; -140.125; -801.000; -887.000
406.247;  -63.400; -323.000; -342.000
406.374;  358.950;  540.000;  629.000
406.501;   59.425; -632.000; -702.000
406.628;  -83.900; -621.000; -589.000
406.755; -106.825; -803.000; -620.000
406.882;  -40.675; -228.000; -277.000
407.009; -108.650; -719.000; -628.000
407.136;   18.000; -480.000; -401.000
407.263;   84.100; -939.000; -829.000
407.390;  -68.700; -692.000; -614.000
407.517; -180.000;-1139.000;-1187.000
407.644;  -67.875; -332.000; -256.000
407.771; -126.375; -249.000; -287.000
407.898;   -0.775;  168.000;  328.000
408.025;  -79.900; -421.000; -313.000
408.151;  -16.700;   82.000;  153.000
408.278;  -79.825; -267.000; -216.000
408.405; -117.550; -931.000; -899.000
408.532;  -77.375; -549.000; -542.000
408.659; -117.700; -677.000; -648.000
408.785; -201.700;-1298.000;-1170.000
408.912;  -47.875; -412.000; -296.000
409.039; -127.775; -610.000; -686.000
409.166; -104.075; -591.000; -555.000
409.292; -117.150; -571.000; -534.000
409.419; -123.500; -665.000; -649.000
409.546;  -88.975; -431.000; -192.000
409.672; -111.500; -713.000; -545.000
409.799;  -35.400;  -36.000;   34.000
409.926;  -40.625; -180.000; -179.000
410.052; -171.075;-1127.000;-1091.000
410.179;  -41.850; -368.000; -392.000
410.305;  -84.750; -375.000; -493.000
410.432;  -55.825; -220.000; -333.000
410.558;  -86.825; -305.000; -380.000
410.685; -107.625; -688.000; -431.000
410.812;  -91.825; -409.000; -588.000
410.938; -127.625; -964.000; -808.000
411.065; -116.400; -671.000; -645.000
411.191;  -34.000; -189.000; -174.000
411.317; -117.075; -823.000; -742.000
411.444;  -72.925; -317.000; -246.000
411.570;  -77.850; -339.000; -294.000
411.697; -131.650; -758.000; -752.000
411.823; -179.275; -989.000; -999.000
411.949;  -41.275;  -56.000;   17.000
412.076; -104.775; -539.000; -519.000
412.202; -112.125; -758.000; -757.000
412.329; -126.600; -798.000; -752.000
412.455; -117.200; -821.000; -657.000
412.581;  -18.000;  -15.000;  172.000
412.707;  -74.500; -540.000; -457.000
412.834;   -1.625;  156.000;  219.000
412.960;  -92.950; -785.000; -784.000
413.086; -110.325; -743.000; -701.000
413.212;  126.150;  604.000;  578.000
413.339;  -84.225; -685.000; -701.000
413.465;  -17.475; -364.000; -310.000
413.591;  -91.850; -757.000; -474.000
413.717;  -63.650; -358.000; -366.000
413.843; -134.725; -839.000; -861.000
413.969;  -54.125;  -47.000; -292.000
414.096; -111.300; -679.000; -679.000
414.222;   -2.225;  -33.000;   85.000
414.348;  -45.350; -652.000; -385.000
414.474;   75.125;   38.000;  -52.000
414.600;  -24.250; -126.000; -144.000
414.726;  -17.875;  -96.000;  -55.000
414.852;  -43.275; -365.000; -342.000
414.978;   27.200;  104.000;  -18.000
415.104;   49.325;   38.000;   80.000
415.230;   24.925; -329.000; -330.000
415.356;   33.725; -409.000; -514.000
415.482;  186.950;   13.000;  -35.000
415.608;  284.275; -247.000; -323.000
415.734; 1002.650;   67.000;   38.000
415.860;20505.925; -875.000; -767.000
415.986;15895.175; -685.000; -607.000
416.111; 1386.475; -798.000; -652.000
416.237;  288.900; -424.000; -571.000
416.363; 1143.950; -765.000; -733.000
416.489; 4591.875; -324.000; -251.000
416.615;  533.050; -707.000; -742.000
416.741;  -12.325; -677.000; -784.000
416.866;  -78.750; -673.000; -736.000
416.992; -116.650; -801.000; -818.000
417.118;  -32.475;  -41.000;  -80.000
417.244;  -67.825; -798.000; -531.000
417.369;  -87.825; -801.000; -612.000
417.495;  -15.075; -325.000; -254.000
417.621;  -83.500;-1015.000; -803.000
417.746;  -17.850; -579.000; -572.000
417.872;   41.150; -254.000; -144.000
417.998;   44.950; -515.000; -530.000
418.123; 1049.675;-1073.000; -845.000
418.249; 5804.525; -512.000; -601.000
418.374;  882.350; -916.000; -824.000
418.500;  139.575; -383.000; -482.000
418.626;  106.325;   70.000;  -59.000
418.751;  129.750; -549.000; -448.000
418.877;  211.325; -637.000; -643.000
419.002; 1789.425; -688.000; -560.000
419.128;13428.925; -930.000; -721.000
419.253; 3533.750; -967.000; -837.000
419.379;  470.600; -391.000; -338.000
419.504;  421.975;  325.000;  415.000
419.629;  560.725; -393.000; -212.000
419.755; 3688.500; -317.000; -254.000
419.880;23055.750;  -98.000;   67.000
420.006;12202.325; -280.000; -221.000
420.131;31731.825; -662.000; -775.000
420.256; 4821.100; -315.000; -316.000
420.382;  632.025; -665.000; -687.000
420.507;   80.825; -649.000; -778.000
420.632;  100.425; -337.000; -339.000
420.758;  190.200; -251.000; -425.000
420.883;  -79.525; -876.000; -672.000
421.008;  -94.925; -775.000; -619.000
421.133;  -81.250; -509.000; -467.000
421.259;  -41.450; -325.000; -259.000
421.384; -115.900; -834.000; -693.000
421.509;  -61.350;-1052.000; -862.000
421.634;  858.100; -936.000; -820.000
421.759;  427.750; -359.000; -327.000
421.885;  -56.175; -717.000; -656.000
422.010;  -80.075; -673.000; -542.000
422.135; -137.175; -695.000; -727.000
422.260;   19.650;  340.000;  280.000
422.385;  -57.925;   12.000;  -98.000
422.510;   -1.050;  151.000;  -26.000
422.635;   17.225;  -87.000;  -43.000
422.760;  102.750; -766.000; -791.000
422.885;   52.475;  -57.000;  -80.000
423.010;  -37.200; -112.000; -169.000
423.135; -102.300; -481.000; -561.000
423.260;  -26.850; -150.000; -245.000
423.385;   60.975;  476.000;  222.000
423.510;   20.075;   71.000;  -22.000
423.635;   73.050;  133.000;   45.000
423.760;   61.000;  383.000;  328.000
423.885;   38.850;  336.000;  391.000
424.010;   19.075;  -68.000;  -13.000
424.135;  -29.525;    5.000;  -33.000
424.259;  -76.650; -654.000; -457.000
424.384;  -68.250; -279.000; -272.000
424.509;  -21.250; -260.000; -186.000
424.634; -103.875; -761.000; -623.000
424.759;  -28.825; -688.000; -544.000
424.883;  -16.025; -506.000; -527.000
425.008;  145.625; -502.000; -410.000
425.133; 2087.550; -679.000; -653.000
425.258; 1060.525; -517.000; -381.000
425.382;  892.775; -867.000; -774.000
425.507; 2340.025; -487.000; -543.000
425.632;  429.925; -802.000; -663.000
425.756;  503.825; -256.000; -146.000
425.881; 6821.400; -831.000; -857.000
426.006;19858.325; -604.000; -355.000
426.130; 3211.925; -696.000; -508.000
426.255;  420.225; -611.000; -491.000
426.379;  189.450; -189.000; -577.000
426.504;  374.325;  660.000;  544.000
426.629; 4125.125; -519.000; -466.000
426.753; 3069.375;   64.000;  -46.000
426.878;  367.125; -252.000; -288.000
427.002;  199.450; -651.000; -668.000
427.127; 1606.075;  -35.000; -158.000
427.251;12111.675;  372.000;  401.000
427.375; 3712.675; -191.000; -173.000
427.500; 2070.975; -616.000; -610.000
427.624;  732.375; -234.000; -400.000
427.749;   83.150; -216.000; -225.000
427.873;  -48.075; -499.000; -412.000
427.997;  -44.300; -222.000; -230.000
428.122;   59.800;  795.000;  703.000
428.246;   60.025;  433.000;  434.000
428.371; -127.050; -869.000; -773.000
428.495;  -93.800; -624.000; -646.000
428.619;  -25.025; -186.000; -117.000
428.743;   20.000;   65.000;  132.000
428.868;   -5.050; -732.000; -643.000
428.992; 1215.475; -219.000; -326.000
429.116;  507.725; -329.000; -357.000
429.240;  230.650;  419.000;  426.000
429.365;  -35.100; -454.000; -574.000
429.489;  -39.325; -638.000; -647.000
429.613;   12.700; -236.000; -177.000
429.737;   50.275; -563.000; -432.000
429.861;  272.950; -247.000; -133.000
429.985; 5726.000; -425.000; -305.000
430.109; 6730.325; -770.000; -908.000
430.234;  792.100;   76.000;  -50.000
430.358;   79.650; -250.000; -160.000
430.482;  -73.575; -672.000; -564.000
430.606;  -69.800; -655.000; -375.000
430.730;   -5.925; -437.000; -388.000
430.854;   72.900; -909.000; -835.000
430.978;  -75.150; -795.000; -764.000
431.102;  -78.700; -499.000; -422.000
431.226; -109.550; -874.000; -815.000
431.350;   18.600;  345.000;  422.000
431.474;  -93.750; -661.000; -373.000
431.597; -158.200;-1060.000; -848.000
431.721;  -78.400; -276.000; -267.000
431.845; -126.875; -704.000; -472.000
431.969;  -77.250; -304.000; -349.000
432.093;  -85.125; -395.000; -317.000
432.217;  -20.150;   32.000;   82.000
432.341;  -94.650; -523.000; -518.000
432.464;  -11.275;   96.000;   40.000
432.588;  133.975; -401.000; -329.000
432.712;   93.750;  -52.000;  -52.000
432.836;   40.600;  213.000;  263.000
432.959;  -11.300; -372.000; -311.000
433.083;   81.150;   11.000;    2.000
433.207;  397.600;  285.000;  930.000
433.330; 5285.750; -391.000; -200.000
433.454; 6904.775; -654.000; -638.000
433.578; 3905.675;  583.000;  278.000
433.701;  784.850; -623.000; -675.000
433.825;  120.275; -292.000; -299.000
433.949;  117.850;   28.000;  -72.000
434.072;   22.100; -410.000; -323.000
434.196;  -18.850; -309.000; -117.000
434.319; 3644.550;25482.000;25124.000
434.443;  698.300; -656.000; -603.000
434.566; 2832.725;  281.000;   62.000
434.690;  527.350; -637.000; -383.000
434.813;   66.975; -251.000; -173.000
434.937;  -81.775; -569.000; -696.000
435.060;  -48.700; -423.000; -332.000
435.184;  207.950; -492.000; -217.000
435.307;  110.825;  159.000;  102.000
435.431;  -21.000;  -40.000;   24.000
435.554;  -90.225; -399.000; -240.000
435.677;  -89.675; -350.000; -258.000
435.801;  -49.400;  -25.000;   49.000
435.924;  -29.500;    1.000;  -67.000
436.048; -138.900;-1019.000; -732.000
436.171;  -70.875; -240.000;  -66.000
436.294;  -35.575; -248.000; -229.000
436.417;  111.150; -963.000; -849.000
436.541;  -62.550; -814.000; -840.000
436.664;  -57.075; -242.000; -316.000
436.787;  -31.600;   13.000;  113.000
436.910; -113.775; -792.000; -422.000
437.034;   -4.600;  142.000;  143.000
437.157;   23.850;  -11.000;    0.000
437.280;  -70.175; -392.000; -292.000
437.403;  -96.800; -982.000; -869.000
437.526;  415.025; -903.000; -865.000
437.649; 1739.050; -505.000; -332.000
437.772;  254.150; -692.000; -540.000
437.896;   95.325;  700.000;  544.000
438.019; -117.250; -758.000; -503.000
438.142;  -98.650; -596.000; -506.000
438.265;  -55.625; -639.000; -670.000
438.388;  443.300; -520.000; -410.000
438.511;   44.600; -597.000; -394.000
438.634;  -51.175; -247.000; -125.000
438.757; -143.225; -693.000; -619.000
438.880;  -46.275;  -34.000;  -57.000
439.003;  -90.475; -417.000; -437.000
439.126;  -72.050; -287.000; -167.000
439.248;  -68.275;  -98.000; -139.000
439.371;  -54.450;    9.000;  -53.000
439.494;   16.950;  510.000;  439.000
439.617;  -50.525;   65.000;  -88.000
439.740; -171.775; -968.000; -816.000
439.863; -141.150; -755.000; -595.000
439.986; -122.000; -476.000; -431.000
440.108;  -46.100; -161.000; -112.000
440.231; -154.375; -950.000; -836.000
440.354;  -46.625;  -64.000; -150.000
440.477;   -3.950; -566.000; -542.000
440.599;  -19.300; -200.000; -225.000
440.722; -117.050; -709.000; -586.000
440.845;   66.150;  751.000;  928.000
440.968; -111.600; -415.000; -311.000
441.090;  -74.800; -199.000;  -33.000
441.213; -171.550;-1021.000; -825.000
441.336;  -56.050; -159.000;   -5.000
441.458;  -96.975; -549.000; -396.000
441.581;  -92.275; -628.000; -629.000
441.703;  -66.550; -152.000;   13.000
441.826; -108.225; -557.000; -400.000
441.948;  -43.350;   56.000;   51.000
442.071;   11.925;  555.000;  424.000
442.193; -140.650; -531.000; -485.000
442.316;    3.500;  152.000;   97.000
442.438;   43.975; -233.000;  -10.000
442.561;   73.600;  272.000;  262.000
442.683;  363.025; -809.000; -522.000
442.806;  921.575;   -8.000;   74.000
442.928;   -4.875; -859.000; -604.000
443.051;  -87.075; -577.000; -373.000
443.173;  -97.200; -341.000; -339.000
443.295;  -95.825; -263.000; -371.000
443.418;  -75.875; -321.000;  -29.000
443.540;  -21.450; -106.000;   -4.000
443.662; -119.750; -563.000; -465.000
443.785;  -28.700;  335.000;  199.000
443.907; -105.300; -362.000; -208.000
444.029; -132.700; -767.000; -494.000
444.152; -162.325; -644.000; -554.000
444.274;  -28.125;  -18.000;  -24.000
444.396; -105.450; -461.000; -221.000
444.518; -123.200; -691.000; -454.000
444.640; -115.225; -268.000; -111.000
444.763;  -23.725;  388.000;  249.000
444.885; -119.175; -432.000; -392.000
445.007;  -51.150;   35.000;   86.000
445.129; -125.850; -610.000; -515.000
445.251; -104.600; -372.000; -439.000
445.373; -135.025; -537.000; -386.000
445.495;    9.450;  242.000;  350.000
445.617;   36.825;  853.000;  753.000
445.739;  -74.350; -215.000;  -97.000
445.861;  -41.425; -245.000; -112.000
445.984;  -38.350; -267.000; -101.000
446.105;  121.400; -418.000; -251.000
446.227;  472.950; -176.000;  -19.000
446.349;  -15.475; -358.000; -249.000
446.471; -100.025; -615.000; -448.000
446.593;  -80.350; -316.000;   19.000
446.715;  -19.450;  -67.000;   41.000
446.837;   61.825;  697.000;  832.000
446.959; -109.275; -457.000; -478.000
447.081; -135.050; -628.000; -518.000
447.203;   48.775;  862.000;  834.000
447.325;  -88.600; -270.000;   42.000
447.446;   -9.575;  286.000;  530.000
447.568; -149.625; -921.000; -803.000
447.690;  -90.975; -236.000; -245.000
447.812; -150.775; -798.000; -519.000
447.933;  -34.075;  155.000;  127.000
448.055;  -61.225; -306.000; -261.000
448.177;  112.050;   31.000;   79.000
448.299;   45.975; -935.000; -727.000
448.420;   25.025;  -25.000;  159.000
448.542;  -48.075;   -3.000;   33.000
448.664;  -22.375;  109.000;  322.000
448.785;  -36.700;  265.000;   83.000
448.907;  -83.225; -614.000; -353.000
449.028;  -59.075; -771.000; -471.000
449.150;   44.075;  492.000;  589.000
449.272; -176.800;-1044.000; -913.000
449.393;   16.425;  612.000;  694.000
449.515; -153.050; -634.000; -581.000
449.636;  -77.475; -264.000; -155.000
449.758;   47.600;  763.000;  622.000
449.879;  -91.650; -498.000; -396.000
450.001;  -89.875; -149.000;  -49.000
450.122;  -23.175;  -95.000;  162.000
450.244;  -32.800;   37.000;  364.000
450.365;  -94.725; -495.000; -301.000
450.486;  -30.100;   80.000;  268.000
450.608;   15.150;  393.000;  326.000
450.729;   71.400;  578.000;  645.000
450.850;   22.375; -574.000; -466.000
450.972;  782.050; -552.000; -389.000
451.093; 5308.350;  190.000;  588.000
451.214; 2462.275; -516.000; -337.000
451.336;  416.950;  773.000;  579.000
451.457;   59.725;  264.000;  393.000
451.578;  -26.400; -118.000;  -74.000
451.699; -117.200; -546.000; -540.000
451.821;  -73.325; -284.000;  -50.000
451.942;   -2.725;  278.000;  285.000
452.063;   38.400;  228.000;  419.000
452.184;  588.175;  -54.000;  -49.000
452.305; 1184.475;  103.000;  170.000
452.427;  167.275; -549.000; -301.000
452.548;  -30.350;   23.000;   79.000
452.669;  -59.700; -257.000;  -89.000
452.790;  -36.425;    3.000;  -18.000
452.911;   -9.150;  195.000;  259.000
453.032;  -74.850; -289.000;  -60.000
453.153;  -54.625;  -29.000;   81.000
453.274;   61.700;  737.000;  868.000
453.395;  -52.375;  -51.000;  175.000
453.516;  117.875; 1317.000; 1388.000
453.637;  -73.650; -205.000; -150.000
453.758;  -65.250;   15.000;   69.000
453.879; -127.500; -462.000; -250.000
454.000;   71.900; 1086.000;  948.000
454.121; -130.325; -554.000; -326.000
454.242; -122.425; -599.000; -383.000
454.362;  -59.000;  -99.000;  114.000
454.483;  -42.100; -309.000; -229.000
454.604;   37.175;  512.000;  580.000
454.725; -119.800; -627.000; -555.000
454.846; -119.900; -474.000; -406.000
454.967;  -28.550;  230.000;  539.000
455.087;  -40.625;  179.000;  153.000
455.208;   25.975;  554.000;  856.000
455.329;  -62.025;  -22.000;   82.000
455.450;   37.200;  473.000;  633.000
455.570;  -79.850; -234.000; -211.000
455.691;  -36.400;  201.000;  407.000
455.812;  -93.900; -270.000;  -92.000
455.932;  -51.600;  107.000;  -97.000
456.053;  -76.725;   36.000;   24.000
456.173; -106.250; -433.000; -355.000
456.294; -125.700; -476.000; -303.000
456.415;  -73.325;  -73.000;   70.000
456.535;  -37.425;  297.000;  273.000
456.656;  -39.900;  132.000;  240.000
456.776;  -69.625;    3.000;  298.000
456.897;   -9.675;  308.000;  513.000
457.017;  -71.150; -153.000;   -3.000
457.138; -109.725; -402.000; -249.000
457.258;  -25.300;  263.000;  224.000
457.379;   -7.400;  509.000;  521.000
457.499;  -19.050;  443.000;  432.000
457.620; -122.875; -407.000; -231.000
457.740;  -91.525; -132.000;  -11.000
457.860;  -52.625;   87.000;   44.000
457.981;  -55.875;  132.000;  124.000
458.101;  -75.925;  -89.000;   40.000
458.221;  -29.925;  336.000;  402.000
458.342;  -66.625;   -4.000;  -37.000
458.462;   17.400;  617.000;  352.000
458.582;  -23.200; -302.000; -294.000
458.703;    9.725;  303.000;  154.000
458.823;  -16.450;   22.000;  163.000
458.943;   15.250;  341.000;  467.000
459.063;  -22.550; 1124.000;  192.000
459.183;  -20.075;  328.000;  313.000
459.304;    3.150;  315.000;  517.000
459.424;  -55.900; -246.000;  -89.000
459.544;  330.700;  388.000;  764.000
459.664;  897.800;  499.000;  506.000
459.784;  358.450; 1004.000; 1175.000
459.904;   55.475;  867.000;  744.000
460.024;   60.600;  867.000;  684.000
460.144;   -8.425;  449.000;  554.000
460.264;  -13.625;  515.000;  327.000
460.385; -100.725; -145.000; -119.000
460.505;   41.825;  905.000;  858.000
460.625;  -97.200;  -17.000;  -68.000
460.745;  -19.050;  396.000;  541.000
460.864;  -49.350;  153.000;  469.000
460.984;   11.150;  499.000;  573.000
461.104;  126.925; 1656.000; 1775.000
461.224;   12.575;  657.000;  650.000
461.344;  -32.300;  431.000;  360.000
461.464;  -23.950;  258.000;  513.000
461.584;  -32.950;  283.000;  466.000
461.704;  -53.425;   58.000;  108.000
461.824;  -55.575;  238.000;  259.000
461.943;  -49.800;  191.000;  130.000
462.063;  -78.200;    2.000;  324.000
462.183;   23.425;  639.000;  717.000
462.303;   95.850; 1678.000; 1230.000
462.422;   26.350;  781.000;  840.000
462.542;  -41.325;  271.000;  391.000
462.662;   33.750;  353.000;  380.000
462.782;  252.525;  833.000;  572.000
462.901;  503.500;  545.000;  717.000
463.021;  302.325; 1702.000; 1638.000
463.141;  -20.450;  337.000;  770.000
463.260;  -19.425;  614.000;  474.000
463.380;    6.425;  902.000;  884.000
463.499;  -45.725;  342.000;  332.000
463.619;  -23.450;  581.000;  559.000
463.738;  102.275; 1644.000;  903.000
463.858;   17.025;  657.000;  811.000
463.978;  -25.450;  542.000;  396.000
464.097;   39.475;  921.000; 1114.000
464.217;  116.675; 1196.000; 1143.000
464.336;  103.825; 1068.000; 1130.000
464.455;  -44.225;  328.000;  659.000
464.575;   28.350;  597.000;  602.000
464.694;  168.375; 1204.000; 1179.000
464.814;  131.300; 1190.000; 1138.000
464.933;   59.600; 1095.000; 1027.000
465.052;   96.550; 1412.000; 1054.000
465.172;   81.700;  922.000;  799.000
465.291;  140.600; 1376.000; 1320.000
465.410;    4.625;  462.000;  735.000
465.530;   87.975; 1355.000; 1310.000
465.649;   69.075; 1209.000; 1273.000
465.768;  130.225; 1673.000; 1508.000
465.888;   33.775;  941.000; 1174.000
466.007;   97.850; 1335.000; 1440.000
466.126;  -13.925;  721.000;  641.000
466.245;   45.525; 1176.000; 1187.000
466.364;   30.300;  950.000; 1060.000
466.484;   64.150; 1024.000; 1213.000
466.603;   25.100; 1101.000; 1222.000
466.722;  126.800; 1490.000; 1769.000
466.841;   79.150; 1151.000; 1401.000
466.960;   42.425; 1069.000;  972.000
467.079;  119.500; 1971.000; 1786.000
467.198;   70.075; 1238.000; 1181.000
467.317;   76.600; 1768.000; 1162.000
467.436;   69.775; 1709.000; 1261.000
467.555;  134.600; 1796.000; 1746.000
467.674;   73.175; 1227.000; 1329.000
467.793;   41.200; 1376.000; 1374.000
467.912;   79.200; 1658.000; 1539.000
468.031;  146.175; 2038.000; 1930.000
468.150;  128.725; 1842.000; 1837.000
468.269;  191.175; 2313.000; 2090.000
468.388;  193.200; 2168.000; 2339.000
468.507;  247.400; 2884.000; 2903.000
468.626;  264.875; 2555.000; 2541.000
468.744;  130.700; 2018.000; 2174.000
468.863;  201.250; 2312.000; 2523.000
468.982;   79.000; 1503.000; 1555.000
469.101;  225.025; 2788.000; 2692.000
469.220;  151.025; 2333.000; 2176.000
469.338;  243.500; 2935.000; 3051.000
469.457;  201.150; 2719.000; 2545.000
469.576;  347.675; 3953.000; 3784.000
469.695;  222.150; 2877.000; 3066.000
469.813;  419.225; 4148.000; 4192.000
469.932;  395.825; 4255.000; 4485.000
470.051;  420.725; 4075.000; 4161.000
470.169;  863.125; 4470.000; 4338.000
470.288; 1552.175; 4700.000; 4809.000
470.406;  931.675; 5059.000; 5194.000
470.525;  624.950; 6101.000; 5787.000
470.644;  650.400; 6847.000; 6794.000
470.762;  803.675; 8397.000; 7873.000
470.881;  913.525; 8651.000; 8464.000
470.999; 1037.925; 9685.000; 9151.000
471.118; 1118.825;11174.000;10711.000

