
Integration time [ms]: 100.000
Averaging Nr. [scans]: 40
Smoothing Nr. [pixels]: 0
Data measured with spectrometer [name]: 2101012U2
Wave   ;Sample   ;Dark     ;Reference
[nm]   ;[counts] ;[counts] ;[counts] 

197.733;   69.450;  516.000;  404.000
197.879;  -90.275; -610.000; -634.000
198.025;  -51.900; -475.000; -420.000
198.171;  -75.250; -602.000; -612.000
198.317;  -37.250; -401.000; -316.000
198.463;  -72.825; -655.000; -404.000
198.609;   23.850;  181.000; -137.000
198.755;  -85.650; -644.000; -410.000
198.901;  -74.425; -505.000; -424.000
199.047;  -66.425; -615.000; -488.000
199.193;  -34.500; -230.000; -468.000
199.339;  -56.375; -222.000; -369.000
199.485;   38.950;  330.000;  271.000
199.631;   23.225;  227.000;  310.000
199.777;  -57.550; -466.000; -398.000
199.923;  -59.375; -610.000; -424.000
200.069;   -5.000; -141.000;  -58.000
200.215;   66.025;  128.000;  453.000
200.361;   33.150;  243.000;  477.000
200.507;  -73.075; -600.000; -373.000
200.653;  -45.425; -371.000; -194.000
200.798;  -31.425; -215.000; -125.000
200.944;   -7.575; -146.000;  -41.000
201.090;   32.575;   61.000;  222.000
201.236;   -5.825; -116.000; -158.000
201.382;  124.475;  874.000;  903.000
201.528;    2.450;  -58.000;  -48.000
201.674;  -43.650; -386.000; -293.000
201.819;  -72.175; -540.000; -439.000
201.965;  -79.775; -699.000; -447.000
202.111;  -29.125; -273.000; -226.000
202.257;  -38.900; -250.000; -238.000
202.402;    5.475;   13.000;  -36.000
202.548;  -33.575; -169.000; -116.000
202.694;   66.150;  410.000; -183.000
202.840;  -73.850; -603.000; -531.000
202.985;  -81.050; -681.000; -639.000
203.131; -101.850; -832.000; -666.000
203.277;  -20.100; -199.000; -262.000
203.423;  -55.150; -434.000; -520.000
203.568;  -44.400; -462.000; -237.000
203.714;  -66.300; -535.000; -542.000
203.860;  -78.625; -682.000; -641.000
204.005;   14.500;  112.000;  167.000
204.151;   84.225;  561.000;  556.000
204.296;  -48.175; -354.000; -221.000
204.442;  -78.825; -600.000; -547.000
204.588;  -64.225; -592.000; -579.000
204.733;   22.200;  178.000;  168.000
204.879; -130.650;-1018.000; -822.000
205.025;    6.725;  -99.000;  126.000
205.170;   -7.000;  -17.000;   94.000
205.316;   83.750;  438.000;  661.000
205.461;  -83.750; -698.000; -554.000
205.607;   92.075;  609.000;  665.000
205.752;  -90.075; -626.000; -551.000
205.898;  -56.575; -501.000; -391.000
206.043;  -58.650; -578.000; -506.000
206.189;  -51.350; -243.000; -285.000
206.334;   80.275;  554.000;  606.000
206.480;   82.475;  409.000;  239.000
206.625;  -83.825; -529.000; -552.000
206.771;  -54.625; -451.000; -373.000
206.916;  -28.975; -210.000; -537.000
207.062;  -71.100; -545.000; -591.000
207.207;  -63.025; -546.000; -443.000
207.353;   44.350;  185.000;  460.000
207.498;   10.725;  196.000;   85.000
207.643;  -39.850; -501.000; -370.000
207.789; -133.125;-1069.000; -910.000
207.934;  -94.000; -665.000; -713.000
208.080;  -23.650; -154.000;   66.000
208.225;   -5.725;  -22.000;  -57.000
208.370;  -83.375; -727.000; -619.000
208.516;  -72.525; -741.000; -487.000
208.661;  -31.150; -127.000;  -69.000
208.806;  -25.650; -165.000; -171.000
208.952; -123.550;-1044.000; -731.000
209.097;   79.200;  378.000;  349.000
209.242;  -40.550; -307.000; -382.000
209.387;   56.400;  392.000;  350.000
209.533;  -47.125; -321.000; -350.000
209.678;   67.500;  472.000;  543.000
209.823;  -79.250; -408.000; -310.000
209.969; -115.175; -860.000; -757.000
210.114; -105.425; -907.000; -719.000
210.259; -120.950; -939.000; -889.000
210.404;  -10.375; -171.000;  103.000
210.549;    2.350;  108.000;    3.000
210.695;  -18.950;   -3.000;  -95.000
210.840;   32.250;   94.000;   67.000
210.985;  -54.250; -484.000; -303.000
211.130;   72.000;  268.000;  406.000
211.275;   27.675;  207.000;  199.000
211.420;  -57.425; -300.000; -289.000
211.566;  -70.150; -536.000; -489.000
211.711;   21.750;  218.000;  157.000
211.856;  -57.450; -545.000; -519.000
212.001;   -5.500;  151.000;   44.000
212.146;   25.700;  153.000;   49.000
212.291;  -18.875; -210.000; -186.000
212.436;  -22.725; -280.000;   -6.000
212.581;  -84.325; -685.000; -653.000
212.726;  -71.300; -487.000; -538.000
212.871;  -56.825; -552.000; -217.000
213.016; -157.075;-1172.000;-1029.000
213.161;   60.975;  406.000;  291.000
213.306;  -71.150; -435.000; -577.000
213.451; -104.075; -778.000; -689.000
213.596;  -58.625; -455.000; -347.000
213.741;  -53.850; -448.000; -538.000
213.886;  -88.825; -498.000; -517.000
214.031;  -23.850; -294.000; -124.000
214.176;  -48.475; -408.000; -341.000
214.321;  -25.275; -296.000; -157.000
214.466;  -35.500; -163.000;  -43.000
214.611;   13.200;  -61.000;  -10.000
214.756; -112.375; -948.000; -858.000
214.901;  -29.350; -388.000; -226.000
215.046; -128.000; -797.000; -825.000
215.191;   14.975;  128.000;   35.000
215.336;   -4.275; -157.000;  -19.000
215.480;  -56.850; -684.000; -505.000
215.625;   -0.800; -175.000;  -19.000
215.770;  -89.200; -757.000; -662.000
215.915;   -8.250;   -5.000;  -97.000
216.060;   -4.825; -113.000;  -21.000
216.205; -116.375; -731.000; -779.000
216.349;  -72.450; -470.000; -533.000
216.494; -143.650; -939.000; -867.000
216.639; -119.275; -823.000; -888.000
216.784;  -94.475; -577.000; -525.000
216.929;   55.375;  392.000;  281.000
217.073;  -10.875; -244.000;  -31.000
217.218;   -0.200;   78.000;  -47.000
217.363;  -74.250; -656.000; -618.000
217.507;  -76.175; -623.000; -588.000
217.652; -117.925; -845.000; -874.000
217.797;  -89.750; -708.000; -659.000
217.942; -109.275; -856.000; -720.000
218.086;   63.675;  608.000;  539.000
218.231;  -18.275; -174.000;  -26.000
218.376;  -43.825; -337.000; -229.000
218.520;    1.950;  -41.000;   96.000
218.665;  -35.425; -338.000; -204.000
218.810;  -46.850; -275.000; -233.000
218.954;   12.600;  201.000;   35.000
219.099; -122.225; -713.000; -963.000
219.243;  -70.900; -589.000; -554.000
219.388;  -27.600; -264.000; -136.000
219.532;   -4.575; -116.000; -116.000
219.677;  -65.200; -564.000; -521.000
219.822;    1.875;   33.000;   89.000
219.966;   17.550;   17.000;  -99.000
220.111;  -20.600; -328.000;  -40.000
220.255;  -99.425; -797.000; -750.000
220.400;  -20.800; -180.000; -146.000
220.544;  -64.600; -516.000; -450.000
220.689;  -56.675; -422.000; -451.000
220.833;  -25.300; -123.000;  -58.000
220.978;  -43.025; -393.000; -563.000
221.122;   18.725;  319.000;  307.000
221.267; -113.025; -906.000; -837.000
221.411;  -68.300; -478.000; -394.000
221.555;   -2.075; -104.000;  -23.000
221.700;  -48.750; -329.000; -222.000
221.844;   38.425;  255.000;  272.000
221.989;  -46.000; -328.000; -311.000
222.133;  -51.125; -289.000; -307.000
222.277;   -8.525;    5.000;   78.000
222.422;   18.525;  227.000;  113.000
222.566;  -49.225; -381.000; -214.000
222.711;  -60.425; -414.000; -479.000
222.855;  -78.125; -643.000; -586.000
222.999;  -77.050; -642.000; -717.000
223.144;  -13.950; -195.000; -194.000
223.288;   33.125;  423.000;  251.000
223.432;   37.625;  184.000;  230.000
223.576;   21.925;  152.000;  -21.000
223.721;   45.925;  364.000;  273.000
223.865;  -61.775; -472.000; -475.000
224.009;  212.475; 1673.000; 1631.000
224.153;  -81.800; -660.000; -671.000
224.298;  -59.275; -531.000; -489.000
224.442;  -22.300;  -74.000;  -33.000
224.586;    1.200; -169.000; -106.000
224.730; -106.675; -858.000; -670.000
224.875; -102.950; -739.000; -688.000
225.019;    7.800;  102.000;  188.000
225.163;   66.950;  208.000;  341.000
225.307;    0.100;   97.000;  -91.000
225.451;   45.925;  360.000;  481.000
225.595;   19.900;  264.000;  176.000
225.739;  -10.825; -170.000;  -94.000
225.884;   -9.475;   86.000;    5.000
226.028;  -98.025; -760.000; -626.000
226.172;  -31.950; -260.000; -273.000
226.316; -121.400; -941.000; -902.000
226.460;  -71.525; -645.000; -493.000
226.604;  -59.150; -406.000; -400.000
226.748; -101.500; -836.000; -733.000
226.892;  -25.025; -227.000; -181.000
227.036;  -46.125; -537.000; -447.000
227.180;  -65.675; -551.000; -375.000
227.324;  -58.150; -561.000; -580.000
227.468; -119.225; -819.000; -717.000
227.612;    1.650;  242.000;  -28.000
227.756; -101.275; -845.000; -698.000
227.900;   62.075;  342.000;  441.000
228.044;  -44.525; -509.000; -290.000
228.188;   59.375;  448.000;  568.000
228.332;  -83.500; -546.000; -472.000
228.476;  -22.525; -223.000; -149.000
228.620;  -33.150; -210.000; -150.000
228.764;   69.575;  431.000;  349.000
228.908;  -11.550; -155.000;   30.000
229.052;  -55.625; -615.000; -528.000
229.195;  -18.800; -172.000;   13.000
229.339;  -31.450; -235.000; -305.000
229.483;  -39.650;    5.000; -162.000
229.627;   -6.275; -156.000;  139.000
229.771;  -49.675; -218.000; -294.000
229.915;   -6.225;  230.000;   79.000
230.059;  -90.275; -648.000; -663.000
230.202;  -49.750; -370.000; -317.000
230.346;  -16.450; -107.000;  107.000
230.490;  -72.000; -489.000; -521.000
230.634; -110.475; -736.000; -553.000
230.777;   75.350;  478.000;  509.000
230.921;  -66.950; -450.000; -359.000
231.065;  -48.325; -246.000; -286.000
231.209;   28.900;  261.000;  265.000
231.352;   31.175;   54.000;   40.000
231.496;   15.700;  568.000;  188.000
231.640;  -84.325; -693.000; -621.000
231.783;   65.300;  546.000;  525.000
231.927;  -52.500; -294.000; -365.000
232.071; -123.400; -962.000; -736.000
232.214; -122.800; -980.000; -764.000
232.358;  -96.900; -683.000; -599.000
232.502;   -6.325;  -19.000;    7.000
232.645; -146.150;-1090.000; -927.000
232.789;  -25.250; -257.000; -218.000
232.933;  -48.350; -407.000; -224.000
233.076; -129.500;-1038.000; -897.000
233.220;  -92.975; -752.000; -777.000
233.363;  -68.150; -669.000; -477.000
233.507;   49.050;  371.000;  129.000
233.650;  -89.650; -764.000; -834.000
233.794;   53.450;  438.000;  461.000
233.938;  -72.475; -530.000; -362.000
234.081;   -2.425;  -93.000;   31.000
234.225;  -75.925; -631.000; -539.000
234.368; -109.675; -773.000; -723.000
234.512;  -39.650; -385.000; -299.000
234.655;  -84.500; -582.000; -555.000
234.798;  -59.650; -493.000; -466.000
234.942; -146.450; -884.000;-1002.000
235.085;  -87.725; -651.000; -443.000
235.229;  -76.350; -405.000; -410.000
235.372;  -49.825; -247.000; -191.000
235.516;  -52.425; -397.000; -321.000
235.659;   15.750;   92.000;  121.000
235.802;  -16.575;  -38.000;  -22.000
235.946;   41.625;  335.000;  215.000
236.089;   22.550;  126.000;  250.000
236.233;   52.625;  275.000;  298.000
236.376;  -41.300; -235.000; -378.000
236.519;  -51.725; -297.000; -319.000
236.663;  -20.325; -215.000; -117.000
236.806; -143.750;-1029.000; -999.000
236.949;   41.475;  543.000;  431.000
237.092;   60.950;  412.000;  391.000
237.236;  -86.050; -589.000; -502.000
237.379;   66.000;  352.000;  428.000
237.522; -122.825; -879.000; -768.000
237.666;  -23.500; -271.000;   18.000
237.809; -117.250; -851.000; -823.000
237.952;   27.450;  469.000;  271.000
238.095;  -62.725; -447.000; -442.000
238.238;   86.650;  688.000;  700.000
238.382;    9.675;  166.000;  103.000
238.525;  -70.400; -598.000; -511.000
238.668; -161.375;-1060.000; -985.000
238.811;  -83.075; -638.000; -643.000
238.954;  -44.925; -483.000; -334.000
239.097;   99.875;  617.000;  664.000
239.241;   22.825;  394.000;  326.000
239.384;  -33.025; -254.000; -214.000
239.527;  -57.250; -424.000; -224.000
239.670; -154.800; -994.000;-1091.000
239.813; -110.225; -696.000; -658.000
239.956;   66.825;  579.000;  473.000
240.099; -115.675; -778.000; -725.000
240.242;   62.100;  428.000;  432.000
240.385;   49.975;  466.000;  450.000
240.528;  -76.100; -706.000; -473.000
240.671;   22.300;  189.000;  134.000
240.814;  -44.575; -441.000; -158.000
240.957; -113.875; -767.000; -578.000
241.100;  -98.000; -779.000; -755.000
241.243; -143.500;-1234.000; -893.000
241.386;  -90.125; -508.000; -379.000
241.529;  -93.950; -735.000; -547.000
241.672;  -57.000; -566.000; -495.000
241.815; -128.050; -832.000; -808.000
241.958;  -36.325; -125.000; -182.000
242.101;  -72.600; -545.000; -390.000
242.244;  -31.875; -270.000; -325.000
242.387;  -45.125; -304.000; -246.000
242.530;   52.175;  470.000;  134.000
242.673;  -48.200; -381.000; -309.000
242.815; -123.800; -925.000; -899.000
242.958;  -64.575; -482.000; -381.000
243.101;   15.150;  132.000;  187.000
243.244;  -81.850; -564.000; -521.000
243.387;  -57.650; -313.000; -316.000
243.530; -104.275; -657.000; -674.000
243.672;   -8.050;   43.000;  -92.000
243.815;  -59.475; -355.000; -283.000
243.958;  -12.675;   98.000;  -26.000
244.101;  -14.400;   59.000;  -16.000
244.243;  -17.375;  -47.000;  101.000
244.386; -112.450; -761.000; -630.000
244.529;  -23.625; -132.000; -139.000
244.672; -155.075;-1154.000; -951.000
244.814;  -98.725; -621.000; -794.000
244.957;  -49.100; -380.000; -304.000
245.100;  -72.850; -489.000; -489.000
245.242;  -52.875; -387.000; -374.000
245.385;  -14.800;  -59.000;  -39.000
245.528; -118.425; -871.000; -705.000
245.670;   85.800;  612.000;  634.000
245.813;  -83.700; -599.000; -547.000
245.956;  -36.350; -324.000; -275.000
246.098;  -70.325; -508.000; -650.000
246.241;   -3.675;  194.000;   48.000
246.383;   -2.525; -119.000;  -73.000
246.526;  -94.550; -454.000; -525.000
246.669; -115.900; -889.000; -780.000
246.811;   15.525;  172.000;   -1.000
246.954;  -60.450; -512.000; -426.000
247.096;  -23.075;  -84.000;   -6.000
247.239;  -65.625; -482.000; -445.000
247.381;  -71.975; -647.000; -488.000
247.524;  101.050;  645.000;  679.000
247.666;  -18.900;   58.000;   11.000
247.809; -125.375; -887.000; -691.000
247.951;  -11.450;  -75.000;  138.000
248.094;   41.350;  432.000;  308.000
248.236; -172.450;-1262.000;-1238.000
248.378;    3.825; -356.000;  -81.000
248.521;  -33.125; -334.000; -337.000
248.663;  -36.000; -236.000; -267.000
248.806;  -40.350; -300.000; -266.000
248.948;  -90.175; -886.000; -763.000
249.090;  -58.500; -428.000; -398.000
249.233;  -53.500; -344.000; -381.000
249.375;  -65.750; -474.000; -451.000
249.518;  -29.200;  -83.000; -133.000
249.660;  -11.250; -103.000;    3.000
249.802; -168.800;-1303.000;-1189.000
249.945;  -90.875; -612.000; -540.000
250.087; -133.575; -834.000; -768.000
250.229;  -54.450; -362.000; -480.000
250.371;  -72.625; -494.000; -439.000
250.514;  -47.300; -310.000; -244.000
250.656;  -14.100;   69.000;  102.000
250.798; -129.750; -849.000; -800.000
250.940;  -69.925; -322.000; -322.000
251.083;  -42.425; -335.000; -111.000
251.225;   61.625;  338.000;  310.000
251.367;  -32.600; -274.000; -373.000
251.509;  -35.150; -265.000; -210.000
251.651; -111.000; -731.000; -671.000
251.794;   60.075;  538.000;  632.000
251.936; -117.550; -821.000; -747.000
252.078;  -73.325; -540.000; -461.000
252.220;  -69.125; -645.000; -477.000
252.362;   86.075;  344.000;  462.000
252.504;  -78.100; -677.000; -584.000
252.646; -111.025; -875.000; -722.000
252.788;    9.675;   14.000; -128.000
252.931;  -35.525; -257.000; -253.000
253.073;  -42.250; -376.000; -317.000
253.215;  -11.600;  141.000;  122.000
253.357;   -8.375;   82.000; -153.000
253.499;  -53.325; -374.000; -234.000
253.641;  -87.950; -749.000; -594.000
253.783; -102.325; -609.000; -527.000
253.925;  -89.250; -586.000; -591.000
254.067; -118.500; -744.000; -667.000
254.209;  -25.100; -391.000; -259.000
254.351; -145.800; -865.000; -883.000
254.493;  -63.400; -441.000; -417.000
254.635; -127.050; -936.000; -818.000
254.777; -104.850; -752.000; -687.000
254.918;  -77.250; -512.000; -430.000
255.060;  -68.075; -551.000; -395.000
255.202;  -53.600; -473.000; -261.000
255.344;  -89.325; -658.000; -455.000
255.486;  -80.850; -471.000; -406.000
255.628; -124.000; -780.000; -781.000
255.770; -100.075; -676.000; -536.000
255.912;  -72.325; -559.000; -468.000
256.053;  -85.200; -730.000; -508.000
256.195;  148.450; 1008.000;  903.000
256.337; -104.500; -861.000; -595.000
256.479;   68.575;  532.000;  416.000
256.621;  -56.600; -394.000; -212.000
256.762; -104.175; -789.000; -742.000
256.904;   52.525;  485.000;  487.000
257.046;  -55.800; -381.000; -271.000
257.188;  -44.425; -351.000; -264.000
257.329;  -76.650; -525.000; -464.000
257.471; -122.275; -939.000; -807.000
257.613;  -76.525; -584.000; -498.000
257.755; -154.275;-1073.000; -982.000
257.896;   28.225;  286.000;  392.000
258.038;  -74.775; -403.000; -352.000
258.180;  -45.750; -354.000; -279.000
258.321;  -81.625; -581.000; -457.000
258.463;  -14.950;  -71.000;  133.000
258.605;  -89.100; -562.000; -570.000
258.746; -107.975; -886.000; -772.000
258.888; -161.075;-1026.000;-1020.000
259.029;   12.300;  121.000;   -8.000
259.171; -100.325; -614.000; -550.000
259.313;    1.350;  -49.000;  -47.000
259.454;  -82.700; -536.000; -414.000
259.596;  -64.650; -483.000; -390.000
259.737;  -74.825; -590.000; -474.000
259.879;   38.000;  217.000;  311.000
260.020;  103.875;  901.000;  636.000
260.162;  -34.075; -146.000; -253.000
260.303; -122.675; -768.000; -687.000
260.445;  -89.850; -609.000; -613.000
260.586;   26.950;  392.000;  157.000
260.728;  -39.425; -360.000; -248.000
260.869; -128.900; -350.000; -343.000
261.011;   79.375;  706.000;  537.000
261.152;  -66.375; -479.000; -319.000
261.293;  -67.550; -576.000; -595.000
261.435;  -28.725; -219.000; -184.000
261.576;  -50.350; -455.000; -325.000
261.718;   50.875;  420.000;  470.000
261.859; -131.425; -940.000; -949.000
262.000; -135.550; -951.000;-1016.000
262.142;  -34.725;  -52.000;  -60.000
262.283; -126.825; -808.000; -691.000
262.424;  -78.050; -666.000; -625.000
262.566; -170.775;-1161.000; -983.000
262.707; -111.550; -840.000; -830.000
262.848; -119.650; -769.000; -726.000
262.990;  -47.975; -362.000; -345.000
263.131;   77.300;  650.000;  681.000
263.272;  -15.025;  -61.000;  -41.000
263.413; -104.650; -589.000; -561.000
263.555;  -73.650; -669.000; -143.000
263.696;  -91.750; -550.000; -641.000
263.837;  -63.975; -449.000; -551.000
263.978;  -15.525;   -5.000;  -77.000
264.119;  -49.350; -283.000; -264.000
264.261; -126.175; -847.000; -630.000
264.402;    1.775;   33.000;   40.000
264.543;  -92.475; -509.000; -524.000
264.684;  -18.350;   61.000;  -50.000
264.825;  -77.950; -816.000; -538.000
264.966;    0.525;  -84.000;  -67.000
265.107; -117.425; -646.000; -670.000
265.248; -126.225; -825.000; -812.000
265.390;  -13.775;  152.000;   -9.000
265.531;  -25.675; -238.000; -107.000
265.672;  -89.275; -557.000; -630.000
265.813;   57.950;  563.000;  439.000
265.954; -144.425; -959.000; -940.000
266.095;  -18.975; -372.000; -322.000
266.236; -106.025; -686.000; -548.000
266.377;  -57.400; -243.000; -297.000
266.518;  -78.150; -619.000; -547.000
266.659;   30.325;  170.000;  268.000
266.800;   -1.450;   83.000;   85.000
266.941;  -76.950; -487.000; -478.000
267.082;   23.050;  354.000;   99.000
267.223;  -48.475; -344.000; -273.000
267.364; -126.175; -892.000; -686.000
267.504;  -27.325;    3.000;  135.000
267.645;   -7.000;  160.000;   67.000
267.786;  -44.950; -147.000;  -86.000
267.927;  -84.600; -473.000; -379.000
268.068;  -30.875; -186.000;  -61.000
268.209;  -54.100; -175.000; -413.000
268.350;  -74.900; -388.000; -532.000
268.490;  -86.825; -648.000; -521.000
268.631;   23.825;  127.000;  225.000
268.772; -112.025; -874.000; -647.000
268.913;  -64.800; -328.000; -476.000
269.054;  -20.175; -117.000;   12.000
269.194;  -44.425; -418.000; -402.000
269.335; -149.800;-1137.000;-1074.000
269.476;  -33.400;   33.000;  -35.000
269.617;  -51.350; -347.000; -392.000
269.757;  -88.175; -713.000; -646.000
269.898; -114.875; -856.000; -613.000
270.039;  -56.125; -415.000; -405.000
270.180; -129.850; -952.000; -816.000
270.320;  -43.400; -190.000; -250.000
270.461;  -34.200; -277.000; -249.000
270.602;  -20.150; -186.000; -156.000
270.742; -128.250; -868.000; -943.000
270.883;  -67.400; -442.000; -390.000
271.023;  -67.800; -358.000; -357.000
271.164;  -79.100; -607.000; -528.000
271.305; -104.325; -666.000; -654.000
271.445;  -95.625; -722.000; -683.000
271.586;  -70.725; -462.000; -283.000
271.726;  -45.450; -397.000; -322.000
271.867;  -65.750; -594.000; -534.000
272.008;  159.950; -473.000; -285.000
272.148;  111.025;  462.000;  468.000
272.289;    7.575; -113.000; -181.000
272.429;    8.075;   19.000;  185.000
272.570; -103.300; -633.000; -737.000
272.710;  -98.000; -825.000; -775.000
272.851;  -24.500;  113.000; -130.000
272.991; -167.800;-1173.000;-1077.000
273.131;  -58.650; -419.000; -459.000
273.272; -112.000; -683.000; -723.000
273.412;   -8.150; -143.000;  -31.000
273.553;  -70.950; -488.000; -507.000
273.693;  117.175;  913.000;  858.000
273.834; -114.075; -894.000; -692.000
273.974;  -85.625; -664.000; -615.000
274.114; -115.375; -772.000; -560.000
274.255;   64.575;  414.000;  373.000
274.395;  -12.250; -180.000; -125.000
274.535;   25.600;  199.000;  350.000
274.676;   21.950;  225.000;   94.000
274.816;   -5.400;  110.000;   34.000
274.956;  -96.600; -624.000; -690.000
275.097;  -84.400;-1014.000; -922.000
275.237; -109.850; -913.000; -803.000
275.377; -111.700; -778.000; -689.000
275.517; -148.300; -878.000; -937.000
275.658;  -65.450; -590.000; -555.000
275.798;  -86.500; -606.000; -413.000
275.938;   12.150;  215.000;  323.000
276.078;  -97.825; -626.000; -395.000
276.218;    2.675;   99.000;  104.000
276.359; -136.225;-1026.000;-1024.000
276.499;  -82.125; -605.000; -446.000
276.639;  -44.625; -305.000; -151.000
276.779;  -57.050; -475.000; -357.000
276.919; -114.600; -783.000; -624.000
277.059;  -24.500; -261.000; -212.000
277.199;  -52.475; -357.000; -259.000
277.340;   36.025;  287.000;  175.000
277.480; -109.250; -840.000; -693.000
277.620;   25.000;  192.000;   16.000
277.760; -199.550;-1533.000;-1294.000
277.900;    0.875;  113.000;   33.000
278.040;    9.025;  137.000;  159.000
278.180;   17.025;  270.000;  170.000
278.320;  -10.475;   21.000;   56.000
278.460;  -78.175; -443.000; -469.000
278.600;  -98.475; -708.000; -598.000
278.740;   44.725;  448.000;  224.000
278.880;  -70.175; -768.000; -791.000
279.020;  -29.325; -194.000; -144.000
279.160; -102.000; -672.000; -595.000
279.300; -131.400; -926.000; -873.000
279.440;  -77.750; -709.000; -622.000
279.579;  -45.075;-1014.000; -929.000
279.719;  -55.525; -410.000; -394.000
279.859;   61.100;   -4.000;   41.000
279.999;   20.950; -208.000;  101.000
280.139;  -34.550; -435.000; -387.000
280.279;  -85.050; -708.000; -745.000
280.419;  -15.500; -229.000; -147.000
280.559;  -37.875; -259.000; -180.000
280.698;  -98.200; -790.000; -639.000
280.838; -104.150; -778.000; -800.000
280.978;  -99.450; -846.000; -790.000
281.118; -122.450; -811.000; -704.000
281.257;    1.400;   24.000;    6.000
281.397; -121.175;-1094.000; -960.000
281.537;  -88.375; -599.000; -712.000
281.677;  -15.125; -150.000; -101.000
281.816;  -88.575; -700.000; -630.000
281.956;  -45.375; -193.000; -257.000
282.096;  -56.225; -539.000; -396.000
282.235; -110.600; -672.000; -638.000
282.375;  -17.250; -243.000;  -98.000
282.515; -108.900; -715.000; -707.000
282.654;   27.150;   29.000;  106.000
282.794;   19.750;  388.000;  244.000
282.934;  -67.375; -530.000; -491.000
283.073; -136.300;-1030.000; -857.000
283.213;  -57.850; -460.000; -467.000
283.353;  -50.175; -408.000; -349.000
283.492;  -29.625; -264.000; -296.000
283.632;  -49.750; -254.000; -168.000
283.771; -106.775; -859.000; -730.000
283.911;  -50.225; -369.000; -260.000
284.050; -126.250; -794.000; -748.000
284.190; -165.625;-1229.000;-1096.000
284.329; -156.175;-1055.000; -964.000
284.469;  -93.200; -516.000; -591.000
284.608;  -78.300; -559.000; -598.000
284.748;  -82.450; -614.000; -570.000
284.887;  -15.525;  -87.000;  -20.000
285.027; -139.625; -844.000; -892.000
285.166;  -57.575; -192.000; -249.000
285.306;    1.750; -116.000;  -33.000
285.445;  -55.400; -229.000; -343.000
285.584;  -98.750; -630.000; -494.000
285.724;  -46.775; -282.000; -322.000
285.863; -122.225; -857.000; -507.000
286.002;  -59.850; -366.000; -276.000
286.142; -117.025; -715.000; -622.000
286.281;  -86.775; -525.000; -493.000
286.420;  -81.375; -554.000; -417.000
286.560;   96.850;  653.000;  623.000
286.699; -133.825; -958.000; -912.000
286.838;  -96.125; -590.000; -591.000
286.978;  -88.775; -533.000; -537.000
287.117; -140.375;-1085.000; -950.000
287.256;  -41.825; -228.000; -211.000
287.395;  -53.125; -197.000; -378.000
287.535;  -59.775; -370.000; -298.000
287.674;  -77.500; -509.000; -484.000
287.813;   54.650;  661.000;  533.000
287.952; -136.100;-1010.000; -871.000
288.091; -159.600;-1049.000; -915.000
288.231;    6.200;   13.000;   15.000
288.370; -186.000;-1217.000;-1200.000
288.509;  -95.050; -728.000; -645.000
288.648;  -93.150; -770.000; -548.000
288.787;  -30.500; -243.000;  -87.000
288.926;  -75.800; -454.000; -475.000
289.065;  105.825;  859.000;  672.000
289.204;  -57.125; -377.000; -217.000
289.344; -111.675; -791.000; -690.000
289.483;   18.600;  416.000;  304.000
289.622;  -36.700; -291.000; -149.000
289.761;  -22.475; -309.000; -166.000
289.900; -119.475; -785.000; -626.000
290.039;  -26.450;  -12.000;  -95.000
290.178;  -44.025; -274.000; -180.000
290.317;  -90.575; -618.000; -479.000
290.456;  -71.625; -463.000; -451.000
290.595; -154.975; -961.000; -833.000
290.734; -134.350; -904.000; -891.000
290.873;  -75.850; -456.000; -420.000
291.011; -120.550; -833.000; -843.000
291.150; -108.775; -770.000; -682.000
291.289;  -31.625; -343.000; -110.000
291.428;  -97.925; -599.000; -480.000
291.567;  -65.675; -370.000; -442.000
291.706;   -4.575;  109.000;  154.000
291.845; -100.475; -597.000; -505.000
291.984; -165.225;-1234.000;-1061.000
292.122;   73.650;  602.000;  582.000
292.261;   39.850;  620.000;  463.000
292.400;   -5.800; -144.000;  211.000
292.539; -134.100; -959.000; -813.000
292.678;  -40.050; -325.000; -300.000
292.816; -159.825;-1136.000; -965.000
292.955;  -84.050; -844.000; -684.000
293.094;  -24.125; -173.000; -337.000
293.233;  -64.225; -556.000; -400.000
293.371;  -43.875; -225.000;  -84.000
293.510; -111.350; -866.000; -780.000
293.649; -134.975; -959.000; -924.000
293.787;  -83.850;-1083.000;-1012.000
293.926;    3.350; -113.000;  -32.000
294.065;  -40.500; -379.000; -290.000
294.203;   45.050;  298.000;  406.000
294.342;   22.000;   74.000;  156.000
294.481; 7210.950;51180.000; -836.000
294.619;  -31.675; -425.000; -582.000
294.758; -152.125;-1230.000;-1137.000
294.896;   38.625; -125.000;    5.000
295.035; -123.075;-1040.000;-1006.000
295.174; -127.050;-1082.000; -954.000
295.312;  -42.750; -323.000; -203.000
295.451;  -29.850; -307.000; -428.000
295.589;  -70.325; -389.000; -518.000
295.728;    8.625; -292.000; -165.000
295.866;    6.150;  -36.000;  -51.000
296.005;  -71.675; -584.000; -341.000
296.143;  -86.250; -558.000; -596.000
296.282; -115.325; -957.000; -881.000
296.420;  -97.450; -657.000; -557.000
296.559;  -92.950; -892.000; -633.000
296.697;   -3.225; -847.000; -665.000
296.835;    6.550;-1141.000;-1002.000
296.974;   19.475;  -23.000;   39.000
297.112;  -22.350; -443.000; -504.000
297.251;  -88.725; -815.000; -755.000
297.389;   35.575; -576.000; -438.000
297.527;   36.875; -145.000;  -83.000
297.666;  -69.200; -486.000; -438.000
297.804;  -50.500; -404.000; -264.000
297.942;   -2.550; -136.000; -161.000
298.081;    0.275; -183.000;   63.000
298.219;   48.800;  -17.000;  -19.000
298.357;   34.800; -144.000;  -71.000
298.495;    1.750; -810.000; -812.000
298.634;   46.300;  245.000;  219.000
298.772;   18.100; -220.000; -338.000
298.910;  -51.125; -309.000; -182.000
299.048;  -25.025; -130.000; -153.000
299.187;  -47.950; -350.000; -250.000
299.325;    4.050;   52.000;  122.000
299.463;   24.750; -389.000; -299.000
299.601;   67.875; -327.000; -271.000
299.739; -122.975; -908.000; -883.000
299.877;  -82.625; -791.000; -703.000
300.016;  -61.800;-1095.000; -935.000
300.154;  122.300;  -19.000; -161.000
300.292;   24.700; -428.000; -348.000
300.430;    5.075; -408.000; -291.000
300.568; -107.050; -940.000; -874.000
300.706;  -61.150; -366.000; -469.000
300.844;  -92.500;-1108.000; -979.000
300.982;   99.550;  246.000;  282.000
301.120; -112.550; -965.000; -866.000
301.258;  -92.125; -812.000; -705.000
301.396;   22.475;  104.000;  -41.000
301.534;   41.400; -218.000; -293.000
301.672;  -29.125; -664.000; -521.000
301.810;   -8.125; -613.000; -545.000
301.948;   85.250;   53.000;  149.000
302.086;  512.950; -250.000;  -32.000
302.224;  808.425; -610.000; -585.000
302.362;   23.850; -558.000; -622.000
302.500;  -46.200; -923.000; -893.000
302.638;   82.350;  128.000;  245.000
302.776;  -19.750; -352.000; -408.000
302.913;   38.750;  447.000;  236.000
303.051;  -25.050;  -86.000;  -23.000
303.189;   27.350;   90.000;  118.000
303.327;  -51.550; -341.000; -256.000
303.465;  -96.400; -832.000; -588.000
303.603; -115.225; -805.000; -604.000
303.740;   73.025;  417.000;  241.000
303.878;   -4.350; -800.000; -759.000
304.016; -106.675; -915.000; -790.000
304.154; -141.725;-1123.000;-1152.000
304.291;  -70.950; -505.000; -554.000
304.429;   -7.100;  102.000;   74.000
304.567; -129.025; -908.000; -893.000
304.705;  -63.575; -408.000; -515.000
304.842;   58.325; -616.000; -540.000
304.980;   21.825;  215.000;   35.000
305.118;   16.000; -367.000; -365.000
305.255; -100.475; -945.000; -927.000
305.393;   46.175;  178.000;  239.000
305.531; -106.575;-1173.000; -956.000
305.668;  -71.000; -663.000; -582.000
305.806;   80.875; -358.000; -439.000
305.943;   64.875; -629.000; -637.000
306.081;   15.525; -378.000; -267.000
306.219; -107.375; -863.000; -748.000
306.356;   -0.825;  158.000;   27.000
306.494;   96.825;  981.000;  761.000
306.631;   -8.750;  -11.000;  -55.000
306.769;  -11.400; -613.000; -485.000
306.906;  -29.175; -284.000; -258.000
307.044;  -66.025; -473.000; -488.000
307.181;  -69.625; -410.000; -332.000
307.319;    1.275;  112.000;   87.000
307.456; -167.750;-1191.000;-1153.000
307.594; -111.325; -980.000; -727.000
307.731;  -27.050; -371.000; -164.000
307.868;    1.000;  -15.000;   20.000
308.006; -144.025; -961.000; -847.000
308.143;  -93.600; -618.000; -330.000
308.281;  106.425;  -37.000; -254.000
308.418;  -37.225; -748.000; -640.000
308.555;  -87.500; -400.000; -250.000
308.693;  -74.050; -577.000; -573.000
308.830; -101.025; -712.000; -657.000
308.967;  -19.175; -215.000;  -95.000
309.105;  -63.650; -507.000; -396.000
309.242;   -7.675; -468.000; -367.000
309.379;  184.225; -577.000; -655.000
309.517; -107.825; -936.000; -948.000
309.654; -126.800; -910.000; -734.000
309.791;  -83.150; -662.000; -580.000
309.928; -129.225; -977.000; -914.000
310.065;  153.100;  819.000;  697.000
310.203;  -31.000; -825.000; -850.000
310.340;  -41.025; -465.000; -321.000
310.477;  -89.550; -412.000; -516.000
310.614;  -77.025; -383.000; -473.000
310.751;  -84.000; -427.000; -518.000
310.889;  -42.925;    1.000;   11.000
311.026; -159.925;-1161.000; -939.000
311.163;  -46.775; -386.000; -380.000
311.300;  -90.900; -512.000; -479.000
311.437;  -90.375; -658.000; -619.000
311.574; -159.125;-1226.000; -985.000
311.711;  -73.550; -595.000; -433.000
311.848;  -56.825; -380.000; -388.000
311.985;    1.350;  270.000;   93.000
312.122; -127.675; -932.000; -762.000
312.259; -124.725; -941.000; -994.000
312.396;  -88.575; -508.000; -551.000
312.533; -104.400; -812.000; -790.000
312.670; -154.100;-1070.000; -898.000
312.807;  -43.850; -352.000; -367.000
312.944;  -90.875; -513.000; -611.000
313.081;  -39.175; -150.000; -415.000
313.218; -114.675;-1111.000; -867.000
313.355;  -14.675; -531.000; -449.000
313.492;  -13.275; -455.000; -292.000
313.629;  117.000;  815.000;  735.000
313.766; -174.900;-1176.000;-1008.000
313.902;  -23.400; -186.000;   21.000
314.039;  -70.425; -372.000; -289.000
314.176;   12.750;  286.000;  192.000
314.313;  -89.600; -569.000; -473.000
314.450;  -80.275; -788.000; -684.000
314.587;  -63.875; -468.000; -480.000
314.723;    3.375;  -78.000;  130.000
314.860;   26.675;  318.000;  332.000
314.997;   20.550;  223.000;  142.000
315.134;  -48.400; -385.000; -368.000
315.270;  -51.825; -480.000; -496.000
315.407; -136.650;-1094.000; -967.000
315.544;  -73.450; -657.000; -538.000
315.681;  -74.700; -681.000; -565.000
315.817;    9.200; -133.000; -176.000
315.954;    3.500; -613.000; -392.000
316.091; -134.600;-1045.000;-1023.000
316.227;  -34.750;  -71.000; -179.000
316.364;   -4.575;   23.000;    6.000
316.500;  -49.925; -113.000; -300.000
316.637;  -45.750; -181.000; -302.000
316.774;  -94.100; -625.000; -358.000
316.910; -107.650; -598.000; -629.000
317.047;  -82.700; -487.000; -351.000
317.183;  -61.975; -435.000; -566.000
317.320;  -17.675; -367.000; -321.000
317.456;  -72.925; -733.000; -805.000
317.593; -103.100; -598.000; -641.000
317.729;  -12.150;  168.000;  -67.000
317.866; -215.625;-1434.000;-1285.000
318.002;  -90.250; -708.000; -948.000
318.139; -107.300; -883.000; -867.000
318.275; -120.725;-1003.000; -738.000
318.412;  -73.425; -517.000; -336.000
318.548;  -55.375; -751.000; -720.000
318.685; -108.850; -985.000; -888.000
318.821; -104.425; -762.000; -735.000
318.957;  -19.125;   34.000;  -23.000
319.094;   31.525;  297.000;  154.000
319.230;  -79.825; -756.000; -742.000
319.367;   82.150; -471.000; -520.000
319.503;   31.250; -538.000; -436.000
319.639; -104.975; -877.000; -793.000
319.775;  -81.700; -750.000; -685.000
319.912;  -61.050; -424.000; -519.000
320.048;  -95.675;-1184.000;-1184.000
320.184;   55.850;   59.000;   70.000
320.321;  -68.200; -497.000; -467.000
320.457;   59.800;  475.000;  662.000
320.593;  -65.700; -375.000; -382.000
320.729; -122.900; -732.000; -734.000
320.866;  -83.675; -577.000; -635.000
321.002;  -93.575; -759.000; -809.000
321.138;  -22.975; -135.000; -211.000
321.274;   63.425; -148.000; -115.000
321.410;  -51.350; -585.000; -353.000
321.546;  -61.150;-1011.000; -911.000
321.683;   34.200;  400.000;  185.000
321.819;   -6.275;  -48.000; -117.000
321.955; -119.475; -743.000; -722.000
322.091;  -51.800; -585.000; -540.000
322.227;  -21.875; -382.000; -202.000
322.363;  -29.300; -320.000; -215.000
322.499;  -55.400; -343.000; -331.000
322.635;  123.225;  636.000;  443.000
322.771;   15.975; -139.000;   12.000
322.907;   74.975;  129.000;  327.000
323.043;  -18.175; -115.000; -206.000
323.179;  -44.625; -394.000; -363.000
323.315;   -8.675; -401.000; -371.000
323.451;   49.950; -328.000; -236.000
323.587;   41.775;  -60.000;  -77.000
323.723;   -7.125; -682.000; -601.000
323.859;  -16.050; -258.000;  -76.000
323.995;  -53.150; -467.000; -409.000
324.131; -131.100; -967.000; -892.000
324.267;  -48.975; -254.000; -276.000
324.402; -142.450; -960.000; -983.000
324.538;  -40.000; -279.000; -104.000
324.674;    0.700;  164.000;   77.000
324.810;   85.700;  226.000;  308.000
324.946;  -33.550; -810.000; -658.000
325.082;  -72.175; -568.000; -475.000
325.217;  -24.125;  -62.000;   16.000
325.353; -109.850; -764.000; -659.000
325.489;  -99.025; -540.000; -506.000
325.625;  -77.575; -579.000; -525.000
325.760;   64.200;  517.000;  376.000
325.896;  -33.550; -515.000; -702.000
326.032;  -67.125; -403.000; -352.000
326.168;  -77.475; -462.000; -369.000
326.303;  -61.275; -352.000; -461.000
326.439;  -29.550; -336.000; -276.000
326.575;  -14.175; -190.000;  -29.000
326.710;   -9.175; -156.000;  -30.000
326.846;  -19.575;  146.000;  103.000
326.982; -102.700; -530.000; -548.000
327.117;  -84.350; -481.000; -442.000
327.253;  -96.600; -745.000; -742.000
327.388; -162.625;-1137.000;-1153.000
327.524;  -68.525; -811.000; -578.000
327.659;  -32.800;  -58.000;  -22.000
327.795;  -32.325;   69.000;   45.000
327.931;  -83.575; -723.000; -499.000
328.066;  -27.800; -417.000; -276.000
328.202;  -34.350;   12.000; -129.000
328.337;  106.475;  957.000;  713.000
328.473;   30.325;  -12.000;  -74.000
328.608;  -24.975; -256.000; -267.000
328.743; -104.325; -799.000; -664.000
328.879;    5.900;  214.000;  114.000
329.014;  -45.575; -102.000; -122.000
329.150;  -91.150; -358.000; -483.000
329.285;  -86.400; -465.000; -466.000
329.421;  -71.400; -548.000; -246.000
329.556;  -28.925;  -36.000;   85.000
329.691; -101.075; -633.000; -615.000
329.827;  -94.100; -626.000; -480.000
329.962;  -42.700;  131.000; -301.000
330.097;  -93.800; -673.000; -585.000
330.233;  -66.250; -410.000; -223.000
330.368; -137.200; -839.000; -628.000
330.503;  -31.500;    3.000;   98.000
330.638;  -26.275;  -93.000; -125.000
330.774;  -82.925; -609.000; -530.000
330.909;  -59.125; -434.000; -244.000
331.044; -100.475; -714.000; -708.000
331.179; -181.350;-1217.000;-1109.000
331.315;   -4.625;   77.000;   20.000
331.450;    4.750;  157.000;  285.000
331.585;  -94.350; -805.000; -706.000
331.720;  -86.425; -510.000; -460.000
331.855;   -8.050;  -35.000; -102.000
331.990;  266.275;   62.000;  138.000
332.126;  122.500; -110.000;   71.000
332.261;  -31.475; -379.000; -265.000
332.396;  -13.400; -135.000; -242.000
332.531; -106.600;-1074.000;-1031.000
332.666;   26.350; -519.000; -363.000
332.801; -112.875; -726.000; -807.000
332.936;  -46.400; -192.000; -122.000
333.071; -133.900; -870.000; -817.000
333.206;   10.825;  307.000;  379.000
333.341;   29.175;  344.000;  418.000
333.476;  -89.325; -627.000; -623.000
333.611;  -45.150; -251.000; -173.000
333.746;  -63.200; -381.000; -464.000
333.881; -128.000; -973.000; -935.000
334.016; -138.425; -936.000; -917.000
334.151; -142.750; -746.000; -702.000
334.286;    9.775;  152.000;  186.000
334.421;  -34.150; -125.000; -178.000
334.556;  -90.575; -611.000; -567.000
334.690;  -99.175; -631.000; -577.000
334.825;   45.475;  381.000;   83.000
334.960;  -70.500; -285.000; -413.000
335.095;  -13.900;  135.000;  -91.000
335.230; -114.450; -722.000; -738.000
335.365; -143.300;-1084.000; -990.000
335.499; -146.575;-1108.000;-1037.000
335.634;    0.900;    9.000;  534.000
335.769; -116.400; -755.000; -720.000
335.904;  -86.775; -603.000; -561.000
336.038;  -68.625; -735.000; -657.000
336.173; -134.475;-1206.000;-1194.000
336.308;  -13.800; -116.000; -189.000
336.443;  -32.600; -544.000; -634.000
336.577;  -92.850; -936.000; -787.000
336.712;   48.150;   -4.000;  -12.000
336.847;  -68.000; -724.000; -607.000
336.981;   34.600; -272.000; -208.000
337.116;  247.275;  615.000;  501.000
337.250;  104.900; -434.000; -421.000
337.385;  270.700; -297.000; -208.000
337.520;   90.000; -632.000; -603.000
337.654;  -35.375; -215.000; -126.000
337.789; -129.250; -989.000; -933.000
337.923;  -43.600; -104.000; -205.000
338.058; -108.000; -673.000; -738.000
338.192;  -52.950; -611.000; -488.000
338.327;  -11.925;  -18.000; -155.000
338.461;  -73.950; -299.000; -469.000
338.596; -109.675; -780.000; -638.000
338.730; -104.475; -767.000; -803.000
338.865;   97.325;  -46.000; -140.000
338.999;  -50.000; -846.000; -702.000
339.134;  -37.400; -634.000; -536.000
339.268;    0.850; -741.000; -603.000
339.403;  360.650; -740.000; -775.000
339.537;  110.350; -894.000; -820.000
339.671; -125.275; -829.000; -813.000
339.806;  -65.775; -556.000; -512.000
339.940;   12.525; -261.000; -235.000
340.074; -102.450; -685.000; -510.000
340.209;  -61.525; -351.000; -230.000
340.343;  -90.925; -517.000; -573.000
340.477;  141.700;  998.000; 1036.000
340.612;  -66.150;-1033.000; -900.000
340.746;  138.725; -199.000; -243.000
340.880;  -88.325; -924.000; -785.000
341.014;  -33.500;  -45.000; -154.000
341.149; -129.425; -756.000; -718.000
341.283; -122.950; -839.000; -754.000
341.417; -116.825;-1124.000; -938.000
341.551;   63.000; -768.000; -708.000
341.685;  -61.175; -633.000; -611.000
341.820;  -65.500; -562.000; -493.000
341.954;  -62.050; -218.000; -349.000
342.088; -164.350;-1102.000;-1019.000
342.222;   58.900;  565.000;  618.000
342.356;  -83.075; -395.000; -335.000
342.490; -110.775; -880.000; -841.000
342.624;  -56.650; -339.000; -242.000
342.758;  -29.750; -364.000; -312.000
342.892;  -91.050; -710.000; -585.000
343.026;  -29.300;  -58.000; -116.000
343.160;  -73.425; -426.000; -376.000
343.294; -104.225; -474.000; -337.000
343.428;  -38.375; -488.000; -448.000
343.562;  -36.650; -172.000;  -23.000
343.696;  -26.075; -385.000; -314.000
343.830;  -18.100; -362.000; -356.000
343.964;    7.625; -231.000; -168.000
344.098;  760.425;  199.000;   70.000
344.232;  625.550; -266.000; -127.000
344.366;   72.750; -567.000; -453.000
344.500;    9.550; -665.000; -744.000
344.634;   -0.050; -324.000; -164.000
344.768;  -34.300; -531.000; -341.000
344.902;   12.075;  278.000;  256.000
345.035;  -76.500; -556.000; -496.000
345.169; -136.325; -933.000; -656.000
345.303;  -71.000; -308.000; -482.000
345.437;  -87.750; -826.000; -717.000
345.571;  -84.325; -675.000; -594.000
345.704;  -63.000; -309.000; -532.000
345.838;  -28.900; -331.000; -284.000
345.972;  -48.175; -543.000; -495.000
346.106;  152.550; -179.000; -190.000
346.239;  393.300; -312.000; -243.000
346.373;  -14.450; -343.000; -302.000
346.507; -161.300; -950.000; -962.000
346.640;  105.675;  -30.000;   13.000
346.774;  -76.650; -650.000; -797.000
346.908;  -25.900; -138.000;  -11.000
347.041;  -99.975; -646.000; -593.000
347.175;   -2.125;  259.000;   27.000
347.309;  -90.100; -698.000; -628.000
347.442; -116.950; -883.000; -732.000
347.576;  232.275;  670.000;  668.000
347.709;  145.375; -123.000;  -52.000
347.843; -118.400; -933.000; -825.000
347.976;   30.775;  235.000;  294.000
348.110; -195.450;-1268.000;-1186.000
348.243; -116.050; -679.000; -772.000
348.377;  -12.325;  -26.000;   60.000
348.510;   41.275;  403.000;  540.000
348.644;  -46.525;  -37.000; -159.000
348.777;   -7.025;  180.000;  191.000
348.911;  -46.125; -142.000; -112.000
349.044;  139.375;  471.000;  448.000
349.178;  109.975;-1069.000;-1006.000
349.311;  109.200;  141.000;  255.000
349.444;  -15.725; -927.000; -813.000
349.578;  -21.350; -347.000; -200.000
349.711; -135.425; -959.000; -862.000
349.845;  -32.825; -661.000; -591.000
349.978; -162.025;-1224.000;-1137.000
350.111;  -97.700; -546.000; -612.000
350.244;  -93.575; -596.000; -700.000
350.378;  -20.050; -392.000; -393.000
350.511;  -70.025; -393.000; -426.000
350.644; -108.400; -808.000; -806.000
350.778;    6.175;  168.000;  104.000
350.911;  -10.475;  134.000;  140.000
351.044; -100.500; -685.000; -615.000
351.177;  -44.625; -321.000; -281.000
351.310;  -17.725;    3.000; -131.000
351.444;  -97.800; -888.000; -788.000
351.577;   87.700;  140.000;   90.000
351.710;   85.575;  593.000;  417.000
351.843;  -45.175; -165.000;  -77.000
351.976;  -20.675;  149.000;  -79.000
352.109;  -93.575; -621.000; -612.000
352.242;  -42.200; -464.000; -419.000
352.376;  -69.775; -580.000; -636.000
352.509;  100.000; -437.000; -356.000
352.642;  -29.250; -654.000; -604.000
352.775;   26.175; -141.000;  -98.000
352.908; -124.850; -933.000; -904.000
353.041; -108.400; -814.000; -824.000
353.174;  -73.325; -551.000; -424.000
353.307; -106.100; -753.000; -764.000
353.440;   61.950;  541.000;  453.000
353.573; -116.350; -957.000;-1008.000
353.706;  -69.550; -384.000; -558.000
353.839;  -27.925; -264.000; -220.000
353.971; -100.375; -657.000; -512.000
354.104;  -93.075; -896.000; -835.000
354.237;  -50.625; -627.000; -662.000
354.370; -102.725; -846.000; -879.000
354.503; -189.800;-1231.000;-1308.000
354.636;  -61.225; -529.000; -348.000
354.769; -133.750; -937.000; -860.000
354.902;  -18.350; -230.000; -139.000
355.034;  -29.525; -164.000; -220.000
355.167;  -20.750; -262.000; -162.000
355.300; -111.975;-1061.000; -880.000
355.433;  970.100;  -71.000;  -14.000
355.565; 1518.225; -402.000; -384.000
355.698;  380.075; -356.000; -296.000
355.831;   -9.525; -882.000; -801.000
355.964;   45.525; -285.000; -170.000
356.096;  -99.025; -856.000; -843.000
356.229;  -15.775; -523.000; -530.000
356.362;  322.875; -373.000; -266.000
356.494;  611.950; -229.000; -162.000
356.627;  403.475;  269.000;  377.000
356.760;  651.550;  120.000;   53.000
356.892;  988.300; -286.000; -601.000
357.025;  543.150;  403.000;  389.000
357.157;  456.375; -167.000; -179.000
357.290;  726.525; -856.000; -713.000
357.423;  191.400; -667.000; -556.000
357.555;   84.725; -217.000; -228.000
357.688;   92.800; -483.000; -364.000
357.820;  386.225; -870.000; -877.000
357.953; 3263.175; -563.000; -589.000
358.085;  651.925; -632.000; -612.000
358.218;  816.950;-1131.000; -932.000
358.350;  159.150;  -58.000;  312.000
358.483; -143.400;-1300.000;-1187.000
358.615;  -51.925;-1182.000;-1078.000
358.747; -101.000;-1187.000;-1058.000
358.880;  -11.425; -810.000; -744.000
359.012;  -14.375; -376.000; -202.000
359.145;  -56.225; -480.000; -511.000
359.277;   14.625; -962.000; -913.000
359.409; 2687.250;  536.000;  231.000
359.542;  692.925; -738.000; -688.000
359.674;   67.500;   46.000;   13.000
359.806;  -70.525; -565.000; -438.000
359.939;  -51.800; -617.000; -516.000
360.071;  -12.550; -583.000; -579.000
360.203;  -35.050; -411.000; -364.000
360.335;   39.275;  164.000;  -16.000
360.468;  159.875; -249.000; -307.000
360.600; 2203.550; -547.000; -454.000
360.732; 2965.500; -546.000; -423.000
360.864;  377.925;-1216.000;-1044.000
360.996;  188.750; -516.000; -554.000
361.129;   20.200; -389.000; -598.000
361.261;   20.400;  110.000; -113.000
361.393;  -30.850; -252.000; -214.000
361.525;   11.450;   94.000;  244.000
361.657;  -59.225; -821.000; -703.000
361.789;   -7.000; -139.000; -155.000
361.921;  129.225; -642.000; -593.000
362.053;  184.250;  524.000;  541.000
362.185;   40.875;  288.000;   72.000
362.318;  -97.750; -709.000; -705.000
362.450;   88.825;  294.000;  444.000
362.582;   26.050; -913.000; -870.000
362.714;  -42.200; -353.000; -332.000
362.846;  -95.400; -606.000; -490.000
362.978; -140.975; -941.000; -811.000
363.109;   14.000; -161.000; -260.000
363.241;  337.750; -739.000; -749.000
363.373;  413.700; -649.000; -564.000
363.505;  681.375; -186.000;  -91.000
363.637;  134.750; -787.000; -601.000
363.769; -126.425;-1067.000;-1080.000
363.901;  -77.675; -596.000; -654.000
364.033; -139.425;-1103.000;-1062.000
364.165;  -33.750; -283.000; -283.000
364.296;   48.625; -316.000; -177.000
364.428;   71.125;-1344.000;-1220.000
364.560;  -73.500; -679.000; -661.000
364.692;  -72.375; -738.000; -835.000
364.824;  168.300; -588.000; -456.000
364.955;  429.200; -402.000; -564.000
365.087; 1006.100;-1097.000; -852.000
365.219;   16.350; -686.000; -816.000
365.351;  -74.450; -526.000; -572.000
365.482;   47.850;  300.000;  240.000
365.614;  -57.375; -402.000; -314.000
365.746; -117.550; -729.000; -752.000
365.877; -113.250; -706.000; -672.000
366.009;  259.775;  -35.000;  -62.000
366.141;  -84.725;-1249.000;-1134.000
366.272; -123.600; -803.000; -719.000
366.404; -128.250;-1005.000; -874.000
366.535;  -18.725; -139.000;  -12.000
366.667; -113.250; -644.000; -649.000
366.799;   27.575;  353.000;  203.000
366.930; -138.350; -862.000; -996.000
367.062;   96.250; -639.000; -613.000
367.193;  164.175; -872.000; -842.000
367.325;  -70.325; -580.000; -684.000
367.456;   16.825; -246.000;   31.000
367.588;  156.375; -371.000; -318.000
367.719;   13.000;  -44.000;  -45.000
367.851;  -29.525; -222.000; -241.000
367.982;  -76.150; -875.000; -732.000
368.113;   55.925; -475.000; -358.000
368.245; -133.675; -960.000; -841.000
368.376;  -50.225; -254.000; -302.000
368.508;  -52.550; -188.000; -263.000
368.639; -152.975;-1166.000;-1034.000
368.770;  -36.075; -670.000; -589.000
368.902;  -90.325; -836.000; -926.000
369.033; -126.100; -906.000; -855.000
369.164;  -72.375; -720.000; -653.000
369.296; -111.750; -452.000; -601.000
369.427;  -19.375; -209.000; -144.000
369.558;  -69.025; -593.000; -377.000
369.689;  -97.600; -721.000; -569.000
369.821; -141.850; -951.000; -845.000
369.952;  -33.275;   42.000; -108.000
370.083;  -48.375; -229.000; -108.000
370.214;  -92.500; -735.000; -650.000
370.345;  -21.200;   65.000;   81.000
370.477;  -93.275; -810.000; -790.000
370.608;  165.450; -328.000; -264.000
370.739;  -83.875;-1233.000;-1292.000
370.870;  -65.800;-1102.000; -923.000
371.001;   55.400; -378.000; -467.000
371.132;  -95.325; -754.000; -735.000
371.263;  -40.550;  -42.000; -148.000
371.394; -137.700; -841.000; -748.000
371.525;   19.875;  345.000;  225.000
371.657; -100.325; -808.000; -670.000
371.788;   46.300;  103.000;  199.000
371.919;  130.900; -384.000; -304.000
372.050; 3098.325;  -91.000; -156.000
372.181;  900.550; -188.000; -294.000
372.311;  282.150;   42.000; -127.000
372.442;   -9.175; -457.000; -451.000
372.573;  -52.825; -444.000; -340.000
372.704; -145.100;-1008.000; -980.000
372.835;   46.475; -228.000; -289.000
372.966;  -80.150; -646.000; -554.000
373.097;  -91.675; -575.000; -711.000
373.228;  -72.350; -717.000; -542.000
373.359;   79.925; -824.000; -536.000
373.490;  752.375; -881.000; -727.000
373.620;  940.800;-1001.000; -803.000
373.751; 1458.350; -332.000; -396.000
373.882;  629.225; -663.000; -733.000
374.013;   25.775; -449.000; -262.000
374.143;  -66.075; -581.000; -659.000
374.274; -128.375; -987.000; -908.000
374.405;  142.525; -388.000; -276.000
374.536;  336.900; -526.000; -387.000
374.666;  869.525; -759.000; -807.000
374.797;  152.900; -817.000; -868.000
374.928;  663.075; -710.000; -560.000
375.058;  695.325; -535.000; -500.000
375.189;   32.525;  -59.000;  -93.000
375.320; -115.825; -928.000;-1034.000
375.450;  -62.000; -625.000; -616.000
375.581;  -68.225; -526.000; -436.000
375.712;  -42.075; -574.000; -250.000
375.842;  217.700; -438.000; -415.000
375.973;  130.050; -554.000; -513.000
376.103;  -66.600; -665.000; -648.000
376.234;  -88.800; -531.000; -552.000
376.364;  -74.225; -944.000; -867.000
376.495;  277.075;  925.000;  529.000
376.625;  -48.550; -472.000; -485.000
376.756;   10.325; -709.000; -678.000
376.886; -102.850;-1178.000;-1026.000
377.017;   40.500;-1048.000;-1061.000
377.147;  359.225; -786.000; -782.000
377.278;   51.675;  174.000;  228.000
377.408; -130.600; -801.000; -815.000
377.538; -106.925; -707.000; -693.000
377.669;  -99.000; -537.000; -613.000
377.799; -107.550; -645.000; -635.000
377.929;  -82.575; -610.000; -428.000
378.060; -148.150; -781.000; -847.000
378.190;  -59.775; -726.000; -531.000
378.320;  -62.500; -401.000; -406.000
378.451;  -26.175; -131.000;  -22.000
378.581;  -12.325;  -67.000; -110.000
378.711;  133.925; 1035.000;  866.000
378.841;  -46.400; -533.000; -675.000
378.972; -107.250; -871.000; -751.000
379.102;  -40.825; -652.000; -579.000
379.232;  -47.500; -126.000;  -73.000
379.362; -132.950;-1001.000; -885.000
379.492;  -24.475; -373.000; -424.000
379.623;   87.925;    0.000;  111.000
379.753; -134.400;-1107.000; -974.000
379.883;  147.575;   59.000;  156.000
380.013;  -30.625;-1081.000;-1017.000
380.143; -136.550;-1097.000;-1056.000
380.273; -122.425; -985.000; -861.000
380.403;  -11.625; -344.000; -257.000
380.533;  -53.250; -651.000; -664.000
380.663;   41.175;  173.000;  128.000
380.793; -125.275;-1027.000;-1074.000
380.923;  -41.825; -103.000;  -34.000
381.053; -103.100; -613.000; -623.000
381.183;  -37.300; -106.000; -248.000
381.313;    3.750; -656.000; -470.000
381.443;    8.975; -692.000; -473.000
381.573;  122.800; -402.000; -409.000
381.703;  155.350;-1249.000;-1095.000
381.833; -160.200;-1454.000;-1336.000
381.963;   82.075; -134.000;  -87.000
382.093; 1216.875; -925.000; -909.000
382.223;  339.925; -713.000; -602.000
382.353;  -39.725; -801.000; -608.000
382.482;  277.550;-1091.000; -964.000
382.612;  604.825; -872.000; -644.000
382.742;  335.075; -695.000; -622.000
382.872;  173.575; -565.000; -551.000
383.002;   40.075;  347.000; -132.000
383.131;  -31.475; -226.000; -160.000
383.261;  -59.875; -706.000; -768.000
383.391;  258.975; -552.000; -377.000
383.521; 3415.925;  451.000;  263.000
383.650;  791.725; -947.000; -904.000
383.780;  -35.100; -783.000; -656.000
383.910;   96.350;  880.000;  802.000
384.039;  -18.050; -794.000; -656.000
384.169;  111.500;-1205.000;-1017.000
384.299;  -53.700; -650.000; -662.000
384.428; -108.025; -764.000; -680.000
384.558;  -58.875; -308.000; -275.000
384.687;  -60.250; -414.000; -334.000
384.817;   -9.750;   75.000;   -2.000
384.947;   12.550; -234.000; -141.000
385.076;  233.100;  982.000;  912.000
385.206;   74.275;  369.000;  480.000
385.335;  -53.050; -549.000; -417.000
385.465;  -99.675; -655.000; -663.000
385.594;  101.325;  -53.000;  -44.000
385.724;  286.800; -868.000; -838.000
385.853;   81.425; -296.000; -270.000
385.982; 1123.725; -743.000; -787.000
386.112; 1750.325;-1052.000; -871.000
386.241;   91.675; -307.000; -312.000
386.371;   -3.275; -174.000;  -87.000
386.500;  -34.225; -825.000; -789.000
386.629;    7.000; -874.000; -817.000
386.759;   40.700;  -43.000;   68.000
386.888;  -19.100; -170.000; -250.000
387.017; -107.075; -648.000; -620.000
387.147; -106.725; -771.000; -798.000
387.276;  -29.450; -410.000; -397.000
387.405;  -15.500; -398.000; -342.000
387.535;  -69.075; -452.000; -361.000
387.664;  -80.350; -692.000; -620.000
387.793;   38.350; -198.000; -113.000
387.922;  413.925;  255.000;  200.000
388.052;  -21.350; -576.000; -423.000
388.181;  -37.575; -342.000; -472.000
388.310;  -53.850; -889.000; -710.000
388.439;  -74.075; -749.000; -742.000
388.568;  153.075;  365.000;  244.000
388.697;  833.325; -756.000; -653.000
388.826;  139.025; -768.000; -666.000
388.956;   24.200; -285.000; -307.000
389.085;  -44.675; -347.000; -287.000
389.214; -125.525; -842.000; -872.000
389.343;  -75.975; -645.000; -413.000
389.472;  415.050;  126.000;  149.000
389.601;  486.700;   91.000;    0.000
389.730;  -17.700; -568.000; -687.000
389.859;   52.700;  226.000;   46.000
389.988;  118.550; -423.000; -408.000
390.117;   98.875; -168.000; -146.000
390.246;  -14.500; -331.000; -320.000
390.375;   31.575; -673.000; -626.000
390.504;  -76.675; -703.000; -621.000
390.633; -115.675; -672.000; -726.000
390.761;  -87.775; -732.000; -645.000
390.890;  -10.525;   -4.000; -130.000
391.019;  -53.350; -421.000; -441.000
391.148; -138.400; -826.000; -855.000
391.277;  -81.850; -576.000; -493.000
391.406; -108.725; -821.000; -805.000
391.534;   11.200;  574.000; -301.000
391.663;  -86.175; -583.000; -645.000
391.792;  -88.400; -673.000; -701.000
391.921;   65.525;   -3.000;   15.000
392.050;  113.175; -287.000; -228.000
392.178;  -86.650;-1206.000;-1061.000
392.307;   84.400; -758.000; -712.000
392.436;   39.650; -427.000; -641.000
392.564;   -0.900;  166.000;   -6.000
392.693; -103.275; -860.000; -682.000
392.822;  129.725; -529.000; -534.000
392.950;   29.850; -880.000; -714.000
393.079;  227.125; -188.000; -328.000
393.208;   -7.450; -488.000; -511.000
393.336;  -27.625; -170.000; -145.000
393.465;  -60.050; -317.000; -199.000
393.593;    1.425;   62.000;   79.000
393.722; -163.825;-1121.000; -916.000
393.850;  -53.900; -188.000;  -61.000
393.979; -167.650; -926.000; -805.000
394.107;  -75.550; -517.000; -537.000
394.236;  -41.850; -570.000; -507.000
394.364;  149.025;  383.000;  206.000
394.493;  205.550; -911.000; -767.000
394.621;  -30.350; -955.000; -916.000
394.750;  732.800; -873.000; -923.000
394.878; 3055.725; -247.000; -149.000
395.007; 4120.625; -721.000; -807.000
395.135;  295.850; -790.000; -721.000
395.263;  -98.600;-1038.000;-1040.000
395.392;  -10.775;  -25.000; -107.000
395.520; -156.550; -818.000; -679.000
395.648; -111.450; -865.000; -915.000
395.777;  -53.675; -366.000; -405.000
395.905;  -70.675; -449.000; -564.000
396.033;   10.100;  217.000;  172.000
396.162;  362.900; -399.000; -453.000
396.290;  307.600;  -17.000;   -2.000
396.418;   47.500; -555.000; -514.000
396.546; -103.275; -571.000; -466.000
396.674; -115.125; -850.000; -878.000
396.803;  -14.500;  -72.000;  -23.000
396.931;   35.500; -179.000; -199.000
397.059;  -26.725;-1026.000; -989.000
397.187; -133.900;-1026.000; -975.000
397.315; -145.325; -884.000; -649.000
397.443; -110.575; -592.000; -443.000
397.572;  -89.200; -578.000; -424.000
397.700;  -44.150; -607.000; -614.000
397.828;  -11.350;  120.000;  -90.000
397.956;  -52.125; -508.000; -478.000
398.084;  -70.250; -767.000; -626.000
398.212;   10.525;  137.000;  124.000
398.340;  -21.725;  -56.000;  159.000
398.468;  -13.275; -390.000; -169.000
398.596; -143.525; -993.000; -953.000
398.724; -134.350; -762.000; -767.000
398.852; -182.775;-1024.000; -976.000
398.980;  -76.300; -560.000; -560.000
399.108;  -77.150; -982.000; -735.000
399.236;   15.375;   13.000;    8.000
399.363;    3.550;  222.000;  196.000
399.491;  -71.350; -404.000; -398.000
399.619; -141.375; -829.000; -800.000
399.747; -120.850; -859.000; -771.000
399.875;   58.075;  220.000;  234.000
400.003;  -69.725; -359.000; -284.000
400.130;  -92.750; -421.000; -341.000
400.258;  -36.225;  -83.000;   38.000
400.386;  -75.225; -352.000; -168.000
400.514;  -63.250; -526.000; -587.000
400.641; -120.800; -928.000; -802.000
400.769; -151.800; -979.000; -888.000
400.897; -127.075; -838.000; -793.000
401.025;  -39.350; -166.000; -152.000
401.152;  -26.125;  220.000;   38.000
401.280;  -96.150; -430.000; -429.000
401.408; -119.525; -712.000; -576.000
401.535; -137.050; -735.000; -758.000
401.663; -197.075;-1134.000;-1054.000
401.790;  -85.800; -514.000; -525.000
401.918;   24.475;  436.000;  405.000
402.046;  -21.425;  134.000;  122.000
402.173;  -49.025;  -18.000;    7.000
402.301;  -83.825; -519.000; -397.000
402.428;   27.325;  528.000;  383.000
402.556; -155.925;-1188.000; -913.000
402.683;  -32.050;  -20.000;   -1.000
402.811;  -32.025;  -37.000; -206.000
402.938;  -18.275;   20.000;   27.000
403.066;  131.525; -574.000; -558.000
403.193;  272.625;  299.000;  239.000
403.321;  188.725; -396.000; -574.000
403.448;  261.400;   83.000;   27.000
403.575;  106.900;  -90.000;  -46.000
403.703; -116.200; -732.000; -557.000
403.830;  -76.375; -531.000; -496.000
403.957; -152.350;-1117.000;-1023.000
404.085;    0.550;  -61.000; -172.000
404.212;   80.000;  -50.000;   63.000
404.339;  259.500; -566.000; -306.000
404.467; 6039.050; -612.000; -524.000
404.594; 3720.500; -287.000; -227.000
404.721;  795.900; -869.000; -764.000
404.848;   53.775; -113.000; -202.000
404.976; -113.050; -856.000; -783.000
405.103;  -19.825;  -14.000;  -82.000
405.230;   -9.175;  190.000;  226.000
405.357;    9.775;  117.000;   44.000
405.484;  278.800;  -49.000;    5.000
405.612;   31.375; -548.000; -563.000
405.739;  -82.475; -488.000; -243.000
405.866;   66.250;  669.000;  385.000
405.993;  -54.875; -398.000; -102.000
406.120; -151.375; -801.000; -887.000
406.247;  -69.650; -323.000; -342.000
406.374;  337.300;  540.000;  629.000
406.501;   34.150; -632.000; -702.000
406.628; -102.800; -621.000; -589.000
406.755; -113.875; -803.000; -620.000
406.882;  -48.475; -228.000; -277.000
407.009; -121.750; -719.000; -628.000
407.136;    0.725; -480.000; -401.000
407.263;   51.275; -939.000; -829.000
407.390;  -91.925; -692.000; -614.000
407.517; -197.625;-1139.000;-1187.000
407.644;  -77.350; -332.000; -256.000
407.771;  -80.575; -249.000; -287.000
407.898;   -7.050;  168.000;  328.000
408.025;  -66.225; -421.000; -313.000
408.151;  -22.000;   82.000;  153.000
408.278;  -79.900; -267.000; -216.000
408.405; -132.875; -931.000; -899.000
408.532;  -76.925; -549.000; -542.000
408.659; -130.275; -677.000; -648.000
408.785; -210.975;-1298.000;-1170.000
408.912;  -79.625; -412.000; -296.000
409.039; -115.825; -610.000; -686.000
409.166; -114.600; -591.000; -555.000
409.292; -107.400; -571.000; -534.000
409.419; -124.125; -665.000; -649.000
409.546;  -82.250; -431.000; -192.000
409.672; -138.450; -713.000; -545.000
409.799;  -31.475;  -36.000;   34.000
409.926;  -52.325; -180.000; -179.000
410.052; -184.325;-1127.000;-1091.000
410.179;  -73.650; -368.000; -392.000
410.305;  -81.025; -375.000; -493.000
410.432;  -65.800; -220.000; -333.000
410.558;  -86.775; -305.000; -380.000
410.685; -122.200; -688.000; -431.000
410.812;  -96.150; -409.000; -588.000
410.938; -149.000; -964.000; -808.000
411.065; -110.375; -671.000; -645.000
411.191;  -21.075; -189.000; -174.000
411.317; -134.600; -823.000; -742.000
411.444;  -75.050; -317.000; -246.000
411.570;  -65.825; -339.000; -294.000
411.697; -135.325; -758.000; -752.000
411.823; -177.175; -989.000; -999.000
411.949;  -45.800;  -56.000;   17.000
412.076; -120.200; -539.000; -519.000
412.202; -135.325; -758.000; -757.000
412.329; -155.175; -798.000; -752.000
412.455; -139.225; -821.000; -657.000
412.581;  -13.475;  -15.000;  172.000
412.707;  -80.700; -540.000; -457.000
412.834;    6.200;  156.000;  219.000
412.960;  -94.500; -785.000; -784.000
413.086; -117.725; -743.000; -701.000
413.212;  118.900;  604.000;  578.000
413.339;  -84.550; -685.000; -701.000
413.465;  -30.400; -364.000; -310.000
413.591;  -99.425; -757.000; -474.000
413.717;  -67.000; -358.000; -366.000
413.843; -162.000; -839.000; -861.000
413.969;  -63.000;  -47.000; -292.000
414.096; -113.375; -679.000; -679.000
414.222;  -26.450;  -33.000;   85.000
414.348;  -52.575; -652.000; -385.000
414.474;   50.150;   38.000;  -52.000
414.600;  -24.250; -126.000; -144.000
414.726;  -23.750;  -96.000;  -55.000
414.852;  -63.550; -365.000; -342.000
414.978;   27.375;  104.000;  -18.000
415.104;   35.300;   38.000;   80.000
415.230;   22.100; -329.000; -330.000
415.356;   22.875; -409.000; -514.000
415.482;  200.800;   13.000;  -35.000
415.608;  273.700; -247.000; -323.000
415.734;  993.900;   67.000;   38.000
415.860;20632.050; -875.000; -767.000
415.986;14524.175; -685.000; -607.000
416.111; 1228.975; -798.000; -652.000
416.237;  259.100; -424.000; -571.000
416.363; 1212.800; -765.000; -733.000
416.489; 4328.175; -324.000; -251.000
416.615;  420.925; -707.000; -742.000
416.741;  -28.000; -677.000; -784.000
416.866;  -95.150; -673.000; -736.000
416.992; -119.475; -801.000; -818.000
417.118;  -19.400;  -41.000;  -80.000
417.244;  -82.750; -798.000; -531.000
417.369;  -98.375; -801.000; -612.000
417.495;  -14.600; -325.000; -254.000
417.621;  -97.625;-1015.000; -803.000
417.746;    4.250; -579.000; -572.000
417.872;   33.075; -254.000; -144.000
417.998;   42.975; -515.000; -530.000
418.123; 1130.575;-1073.000; -845.000
418.249; 5648.675; -512.000; -601.000
418.374;  752.875; -916.000; -824.000
418.500;  102.950; -383.000; -482.000
418.626;  111.775;   70.000;  -59.000
418.751;   96.600; -549.000; -448.000
418.877;  189.600; -637.000; -643.000
419.002; 1895.025; -688.000; -560.000
419.128;13151.600; -930.000; -721.000
419.253; 3131.525; -967.000; -837.000
419.379;  411.050; -391.000; -338.000
419.504;  406.325;  325.000;  415.000
419.629;  511.800; -393.000; -212.000
419.755; 3871.225; -317.000; -254.000
419.880;22549.975;  -98.000;   67.000
420.006;12000.875; -280.000; -221.000
420.131;30449.725; -662.000; -775.000
420.256; 4250.325; -315.000; -316.000
420.382;  549.850; -665.000; -687.000
420.507;   51.750; -649.000; -778.000
420.632;   81.900; -337.000; -339.000
420.758;  160.575; -251.000; -425.000
420.883; -109.500; -876.000; -672.000
421.008; -113.025; -775.000; -619.000
421.133; -100.025; -509.000; -467.000
421.259;  -59.950; -325.000; -259.000
421.384; -138.025; -834.000; -693.000
421.509;  -85.200;-1052.000; -862.000
421.634;  848.425; -936.000; -820.000
421.759;  359.825; -359.000; -327.000
421.885;  -69.025; -717.000; -656.000
422.010;  -95.600; -673.000; -542.000
422.135; -158.750; -695.000; -727.000
422.260;   20.150;  340.000;  280.000
422.385;  -43.600;   12.000;  -98.000
422.510;    4.950;  151.000;  -26.000
422.635;   -5.025;  -87.000;  -43.000
422.760;   69.350; -766.000; -791.000
422.885;   44.525;  -57.000;  -80.000
423.010;  -42.475; -112.000; -169.000
423.135; -103.150; -481.000; -561.000
423.260;  -22.450; -150.000; -245.000
423.385;   37.600;  476.000;  222.000
423.510;   15.750;   71.000;  -22.000
423.635;   50.575;  133.000;   45.000
423.760;   48.200;  383.000;  328.000
423.885;   38.325;  336.000;  391.000
424.010;   -8.725;  -68.000;  -13.000
424.135;  -27.875;    5.000;  -33.000
424.259; -100.450; -654.000; -457.000
424.384;  -67.050; -279.000; -272.000
424.509;  -31.725; -260.000; -186.000
424.634; -108.000; -761.000; -623.000
424.759;  -37.450; -688.000; -544.000
424.883;  -17.950; -506.000; -527.000
425.008;  157.150; -502.000; -410.000
425.133; 2069.225; -679.000; -653.000
425.258;  943.925; -517.000; -381.000
425.382;  901.800; -867.000; -774.000
425.507; 2255.125; -487.000; -543.000
425.632;  370.900; -802.000; -663.000
425.756;  461.975; -256.000; -146.000
425.881; 7211.325; -831.000; -857.000
426.006;19220.550; -604.000; -355.000
426.130; 2859.450; -696.000; -508.000
426.255;  369.825; -611.000; -491.000
426.379;  166.250; -189.000; -577.000
426.504;  377.625;  660.000;  544.000
426.629; 4170.300; -519.000; -466.000
426.753; 2758.225;   64.000;  -46.000
426.878;  304.550; -252.000; -288.000
427.002;  177.400; -651.000; -668.000
427.127; 1675.950;  -35.000; -158.000
427.251;11947.975;  372.000;  401.000
427.375; 3298.325; -191.000; -173.000
427.500; 2032.325; -616.000; -610.000
427.624;  656.250; -234.000; -400.000
427.749;   70.275; -216.000; -225.000
427.873;  -67.150; -499.000; -412.000
427.997;  -47.150; -222.000; -230.000
428.122;   56.775;  795.000;  703.000
428.246;   45.625;  433.000;  434.000
428.371; -153.050; -869.000; -773.000
428.495; -112.250; -624.000; -646.000
428.619;  -37.525; -186.000; -117.000
428.743;    7.525;   65.000;  132.000
428.868;   -6.500; -732.000; -643.000
428.992; 1175.175; -219.000; -326.000
429.116;  444.375; -329.000; -357.000
429.240;  202.600;  419.000;  426.000
429.365;  -47.450; -454.000; -574.000
429.489;  -58.050; -638.000; -647.000
429.613;    9.350; -236.000; -177.000
429.737;   24.925; -563.000; -432.000
429.861;  261.200; -247.000; -133.000
429.985; 5821.900; -425.000; -305.000
430.109; 6250.800; -770.000; -908.000
430.234;  713.400;   76.000;  -50.000
430.358;   68.600; -250.000; -160.000
430.482;  -92.625; -672.000; -564.000
430.606;  -79.200; -655.000; -375.000
430.730;  -16.325; -437.000; -388.000
430.854;   33.175; -909.000; -835.000
430.978; -107.050; -795.000; -764.000
431.102;  -98.375; -499.000; -422.000
431.226; -134.050; -874.000; -815.000
431.350;   -4.275;  345.000;  422.000
431.474; -107.250; -661.000; -373.000
431.597; -166.675;-1060.000; -848.000
431.721;  -80.075; -276.000; -267.000
431.845; -131.325; -704.000; -472.000
431.969;  -90.075; -304.000; -349.000
432.093;  -93.600; -395.000; -317.000
432.217;  -33.900;   32.000;   82.000
432.341; -107.675; -523.000; -518.000
432.464;    0.550;   96.000;   40.000
432.588;  127.325; -401.000; -329.000
432.712;   50.375;  -52.000;  -52.000
432.836;   30.400;  213.000;  263.000
432.959;  -44.125; -372.000; -311.000
433.083;   86.875;   11.000;    2.000
433.207;  386.500;  285.000;  930.000
433.330; 5379.125; -391.000; -200.000
433.454; 6479.300; -654.000; -638.000
433.578; 3734.875;  583.000;  278.000
433.701;  654.725; -623.000; -675.000
433.825;   99.175; -292.000; -299.000
433.949;  112.900;   28.000;  -72.000
434.072;   15.100; -410.000; -323.000
434.196;  -31.000; -309.000; -117.000
434.319; 3758.300;25482.000;25124.000
434.443;  722.175; -656.000; -603.000
434.566; 2762.450;  281.000;   62.000
434.690;  439.525; -637.000; -383.000
434.813;   47.200; -251.000; -173.000
434.937;  -84.550; -569.000; -696.000
435.060;  -54.275; -423.000; -332.000
435.184;  169.925; -492.000; -217.000
435.307;   95.050;  159.000;  102.000
435.431;  -30.875;  -40.000;   24.000
435.554;  -94.025; -399.000; -240.000
435.677;  -95.375; -350.000; -258.000
435.801;  -56.475;  -25.000;   49.000
435.924;  -28.625;    1.000;  -67.000
436.048; -139.725;-1019.000; -732.000
436.171;  -83.500; -240.000;  -66.000
436.294;  -28.000; -248.000; -229.000
436.417;   95.025; -963.000; -849.000
436.541;  -92.150; -814.000; -840.000
436.664;  -62.200; -242.000; -316.000
436.787;  -46.750;   13.000;  113.000
436.910; -125.950; -792.000; -422.000
437.034;   -1.775;  142.000;  143.000
437.157;   20.600;  -11.000;    0.000
437.280;  -80.575; -392.000; -292.000
437.403; -117.850; -982.000; -869.000
437.526;  406.250; -903.000; -865.000
437.649; 1588.675; -505.000; -332.000
437.772;  181.625; -692.000; -540.000
437.896;   96.250;  700.000;  544.000
438.019; -127.225; -758.000; -503.000
438.142;  -98.375; -596.000; -506.000
438.265;  -64.825; -639.000; -670.000
438.388;  391.900; -520.000; -410.000
438.511;   31.225; -597.000; -394.000
438.634;  -51.775; -247.000; -125.000
438.757; -142.375; -693.000; -619.000
438.880;  -42.850;  -34.000;  -57.000
439.003;  -90.700; -417.000; -437.000
439.126;  -76.125; -287.000; -167.000
439.248;  -70.275;  -98.000; -139.000
439.371;  -55.375;    9.000;  -53.000
439.494;   20.300;  510.000;  439.000
439.617;  -53.125;   65.000;  -88.000
439.740; -182.000; -968.000; -816.000
439.863; -153.375; -755.000; -595.000
439.986; -135.450; -476.000; -431.000
440.108;  -56.350; -161.000; -112.000
440.231; -165.775; -950.000; -836.000
440.354;  -41.725;  -64.000; -150.000
440.477;  -36.950; -566.000; -542.000
440.599;  -32.425; -200.000; -225.000
440.722; -131.225; -709.000; -586.000
440.845;   63.275;  751.000;  928.000
440.968; -115.400; -415.000; -311.000
441.090;  -87.300; -199.000;  -33.000
441.213; -177.875;-1021.000; -825.000
441.336;  -69.625; -159.000;   -5.000
441.458;  -83.600; -549.000; -396.000
441.581; -113.850; -628.000; -629.000
441.703;  -70.050; -152.000;   13.000
441.826; -116.175; -557.000; -400.000
441.948;  -59.800;   56.000;   51.000
442.071;   26.000;  555.000;  424.000
442.193; -131.400; -531.000; -485.000
442.316;   -5.075;  152.000;   97.000
442.438;   26.200; -233.000;  -10.000
442.561;   61.650;  272.000;  262.000
442.683;  376.000; -809.000; -522.000
442.806;  844.175;   -8.000;   74.000
442.928;  -43.875; -859.000; -604.000
443.051;  -89.050; -577.000; -373.000
443.173; -104.575; -341.000; -339.000
443.295; -108.425; -263.000; -371.000
443.418;  -82.625; -321.000;  -29.000
443.540;  -25.400; -106.000;   -4.000
443.662; -137.450; -563.000; -465.000
443.785;  -18.650;  335.000;  199.000
443.907;  -94.025; -362.000; -208.000
444.029; -140.700; -767.000; -494.000
444.152; -146.075; -644.000; -554.000
444.274;  -44.900;  -18.000;  -24.000
444.396; -127.400; -461.000; -221.000
444.518; -147.550; -691.000; -454.000
444.640; -112.025; -268.000; -111.000
444.763;  -33.925;  388.000;  249.000
444.885; -120.150; -432.000; -392.000
445.007;  -39.100;   35.000;   86.000
445.129; -142.025; -610.000; -515.000
445.251; -107.575; -372.000; -439.000
445.373; -145.350; -537.000; -386.000
445.495;  -10.450;  242.000;  350.000
445.617;   56.650;  853.000;  753.000
445.739;  -86.975; -215.000;  -97.000
445.861;  -49.825; -245.000; -112.000
445.984;  -57.175; -267.000; -101.000
446.105;  131.450; -418.000; -251.000
446.227;  433.000; -176.000;  -19.000
446.349;  -39.450; -358.000; -249.000
446.471; -126.500; -615.000; -448.000
446.593;  -75.400; -316.000;   19.000
446.715;  -34.825;  -67.000;   41.000
446.837;   69.850;  697.000;  832.000
446.959; -114.350; -457.000; -478.000
447.081; -152.775; -628.000; -518.000
447.203;   36.350;  862.000;  834.000
447.325;  -81.750; -270.000;   42.000
447.446;  -28.750;  286.000;  530.000
447.568; -179.725; -921.000; -803.000
447.690;  -92.100; -236.000; -245.000
447.812; -155.375; -798.000; -519.000
447.933;  -38.700;  155.000;  127.000
448.055;  -87.475; -306.000; -261.000
448.177;  105.900;   31.000;   79.000
448.299;   17.350; -935.000; -727.000
448.420;   17.650;  -25.000;  159.000
448.542;  -45.400;   -3.000;   33.000
448.664;  -40.150;  109.000;  322.000
448.785;  -50.050;  265.000;   83.000
448.907; -104.400; -614.000; -353.000
449.028;  -66.250; -771.000; -471.000
449.150;   68.375;  492.000;  589.000
449.272; -179.375;-1044.000; -913.000
449.393;   38.350;  612.000;  694.000
449.515; -138.775; -634.000; -581.000
449.636;  -68.925; -264.000; -155.000
449.758;   73.675;  763.000;  622.000
449.879; -109.575; -498.000; -396.000
450.001;  -85.925; -149.000;  -49.000
450.122;  -43.850;  -95.000;  162.000
450.244;  -32.000;   37.000;  364.000
450.365; -107.175; -495.000; -301.000
450.486;  -38.800;   80.000;  268.000
450.608;   22.550;  393.000;  326.000
450.729;   71.500;  578.000;  645.000
450.850;   17.100; -574.000; -466.000
450.972;  833.725; -552.000; -389.000
451.093; 5247.650;  190.000;  588.000
451.214; 2230.275; -516.000; -337.000
451.336;  411.525;  773.000;  579.000
451.457;   48.525;  264.000;  393.000
451.578;  -44.675; -118.000;  -74.000
451.699; -123.325; -546.000; -540.000
451.821;  -78.200; -284.000;  -50.000
451.942;  -13.000;  278.000;  285.000
452.063;   27.975;  228.000;  419.000
452.184;  586.925;  -54.000;  -49.000
452.305; 1129.175;  103.000;  170.000
452.427;  127.750; -549.000; -301.000
452.548;  -30.625;   23.000;   79.000
452.669;  -74.525; -257.000;  -89.000
452.790;  -49.550;    3.000;  -18.000
452.911;  -23.150;  195.000;  259.000
453.032;  -76.225; -289.000;  -60.000
453.153;  -49.175;  -29.000;   81.000
453.274;   46.025;  737.000;  868.000
453.395;  -62.150;  -51.000;  175.000
453.516;    8.125; 1317.000; 1388.000
453.637;  -83.600; -205.000; -150.000
453.758;  -53.625;   15.000;   69.000
453.879; -122.550; -462.000; -250.000
454.000;   53.925; 1086.000;  948.000
454.121; -132.800; -554.000; -326.000
454.242; -123.925; -599.000; -383.000
454.362;  -49.425;  -99.000;  114.000
454.483;  -58.400; -309.000; -229.000
454.604;   43.700;  512.000;  580.000
454.725; -139.825; -627.000; -555.000
454.846; -124.100; -474.000; -406.000
454.967;  -40.250;  230.000;  539.000
455.087;  -48.150;  179.000;  153.000
455.208;    4.475;  554.000;  856.000
455.329;  -76.675;  -22.000;   82.000
455.450;   34.025;  473.000;  633.000
455.570;  -77.300; -234.000; -211.000
455.691;  -43.025;  201.000;  407.000
455.812; -122.400; -270.000;  -92.000
455.932;  -69.050;  107.000;  -97.000
456.053;  -91.600;   36.000;   24.000
456.173; -115.175; -433.000; -355.000
456.294; -147.800; -476.000; -303.000
456.415;  -67.100;  -73.000;   70.000
456.535;  -35.600;  297.000;  273.000
456.656;  -51.700;  132.000;  240.000
456.776;  -86.650;    3.000;  298.000
456.897;  -17.550;  308.000;  513.000
457.017;  -77.725; -153.000;   -3.000
457.138; -115.725; -402.000; -249.000
457.258;  -36.950;  263.000;  224.000
457.379;  -11.275;  509.000;  521.000
457.499;  -39.125;  443.000;  432.000
457.620; -139.675; -407.000; -231.000
457.740; -105.050; -132.000;  -11.000
457.860;  -69.150;   87.000;   44.000
457.981;  -71.200;  132.000;  124.000
458.101;  -81.450;  -89.000;   40.000
458.221;  -19.050;  336.000;  402.000
458.342;  -57.375;   -4.000;  -37.000
458.462;   10.300;  617.000;  352.000
458.582;  -41.525; -302.000; -294.000
458.703;   21.150;  303.000;  154.000
458.823;  -30.350;   22.000;  163.000
458.943;   14.525;  341.000;  467.000
459.063;  -32.375; 1124.000;  192.000
459.183;  -44.200;  328.000;  313.000
459.304;  -12.625;  315.000;  517.000
459.424;  -75.775; -246.000;  -89.000
459.544;  354.075;  388.000;  764.000
459.664;  866.700;  499.000;  506.000
459.784;  310.850; 1004.000; 1175.000
459.904;   47.375;  867.000;  744.000
460.024;   46.325;  867.000;  684.000
460.144;  -29.275;  449.000;  554.000
460.264;  -17.150;  515.000;  327.000
460.385;  -80.500; -145.000; -119.000
460.505;   22.350;  905.000;  858.000
460.625;  -99.150;  -17.000;  -68.000
460.745;  -31.775;  396.000;  541.000
460.864;  -69.425;  153.000;  469.000
460.984;   -1.050;  499.000;  573.000
461.104;  127.925; 1656.000; 1775.000
461.224;    6.900;  657.000;  650.000
461.344;  -39.350;  431.000;  360.000
461.464;  -37.525;  258.000;  513.000
461.584;  -22.775;  283.000;  466.000
461.704;  -59.150;   58.000;  108.000
461.824;  -68.975;  238.000;  259.000
461.943;  -71.675;  191.000;  130.000
462.063;  -84.325;    2.000;  324.000
462.183;   10.050;  639.000;  717.000
462.303;  100.200; 1678.000; 1230.000
462.422;   20.300;  781.000;  840.000
462.542;  -45.375;  271.000;  391.000
462.662;   24.650;  353.000;  380.000
462.782;  249.450;  833.000;  572.000
462.901;  486.600;  545.000;  717.000
463.021;  278.700; 1702.000; 1638.000
463.141;  -26.300;  337.000;  770.000
463.260;  -27.225;  614.000;  474.000
463.380;    9.250;  902.000;  884.000
463.499;  -42.750;  342.000;  332.000
463.619;  -46.475;  581.000;  559.000
463.738;  107.425; 1644.000;  903.000
463.858;    9.750;  657.000;  811.000
463.978;  -34.175;  542.000;  396.000
464.097;   29.675;  921.000; 1114.000
464.217;  122.300; 1196.000; 1143.000
464.336;  116.025; 1068.000; 1130.000
464.455;  -49.075;  328.000;  659.000
464.575;   15.025;  597.000;  602.000
464.694;  142.000; 1204.000; 1179.000
464.814;  132.550; 1190.000; 1138.000
464.933;   74.450; 1095.000; 1027.000
465.052;   81.450; 1412.000; 1054.000
465.172;   78.650;  922.000;  799.000
465.291;  116.925; 1376.000; 1320.000
465.410;   14.175;  462.000;  735.000
465.530;   91.700; 1355.000; 1310.000
465.649;   67.325; 1209.000; 1273.000
465.768;  127.875; 1673.000; 1508.000
465.888;   60.900;  941.000; 1174.000
466.007;   95.575; 1335.000; 1440.000
466.126;   -2.875;  721.000;  641.000
466.245;   35.025; 1176.000; 1187.000
466.364;   14.300;  950.000; 1060.000
466.484;   49.925; 1024.000; 1213.000
466.603;   36.175; 1101.000; 1222.000
466.722;  114.825; 1490.000; 1769.000
466.841;   51.025; 1151.000; 1401.000
466.960;   28.075; 1069.000;  972.000
467.079;  124.325; 1971.000; 1786.000
467.198;   29.050; 1238.000; 1181.000
467.317;   88.050; 1768.000; 1162.000
467.436;   77.500; 1709.000; 1261.000
467.555;  124.250; 1796.000; 1746.000
467.674;   45.925; 1227.000; 1329.000
467.793;   40.225; 1376.000; 1374.000
467.912;   83.350; 1658.000; 1539.000
468.031;  129.500; 2038.000; 1930.000
468.150;  126.025; 1842.000; 1837.000
468.269;  169.275; 2313.000; 2090.000
468.388;  176.325; 2168.000; 2339.000
468.507;  249.475; 2884.000; 2903.000
468.626;  224.725; 2555.000; 2541.000
468.744;  132.575; 2018.000; 2174.000
468.863;  199.700; 2312.000; 2523.000
468.982;   91.750; 1503.000; 1555.000
469.101;  214.875; 2788.000; 2692.000
469.220;  144.675; 2333.000; 2176.000
469.338;  249.500; 2935.000; 3051.000
469.457;  183.775; 2719.000; 2545.000
469.576;  343.025; 3953.000; 3784.000
469.695;  246.875; 2877.000; 3066.000
469.813;  417.550; 4148.000; 4192.000
469.932;  410.000; 4255.000; 4485.000
470.051;  429.750; 4075.000; 4161.000
470.169;  883.575; 4470.000; 4338.000
470.288; 1521.750; 4700.000; 4809.000
470.406;  893.400; 5059.000; 5194.000
470.525;  629.325; 6101.000; 5787.000
470.644;  656.150; 6847.000; 6794.000
470.762;  801.225; 8397.000; 7873.000
470.881;  907.200; 8651.000; 8464.000
470.999; 1052.100; 9685.000; 9151.000
471.118; 1114.025;11174.000;10711.000

