
Integration time [ms]: 200.000
Averaging Nr. [scans]: 10
Smoothing Nr. [pixels]: 0
Data measured with spectrometer [name]: 2101012U2
Wave   ;Sample   ;Dark     ;Reference
[nm]   ;[counts] ;[counts] ;[counts] 

197.733;  124.900;  516.000;  404.000
197.879; -175.400; -610.000; -634.000
198.025; -129.300; -475.000; -420.000
198.171; -143.300; -602.000; -612.000
198.317;  -74.900; -401.000; -316.000
198.463; -119.500; -655.000; -404.000
198.609;   59.800;  181.000; -137.000
198.755; -177.800; -644.000; -410.000
198.901; -166.300; -505.000; -424.000
199.047; -136.800; -615.000; -488.000
199.193; -103.000; -230.000; -468.000
199.339;  -90.300; -222.000; -369.000
199.485;   90.300;  330.000;  271.000
199.631;   59.900;  227.000;  310.000
199.777; -114.100; -466.000; -398.000
199.923; -128.500; -610.000; -424.000
200.069;  -15.100; -141.000;  -58.000
200.215;  102.200;  128.000;  453.000
200.361;   48.300;  243.000;  477.000
200.507; -121.700; -600.000; -373.000
200.653;  -77.300; -371.000; -194.000
200.798;  -90.700; -215.000; -125.000
200.944;    8.200; -146.000;  -41.000
201.090;  116.600;   61.000;  222.000
201.236;  -55.500; -116.000; -158.000
201.382;  274.400;  874.000;  903.000
201.528;    2.800;  -58.000;  -48.000
201.674; -101.400; -386.000; -293.000
201.819; -130.400; -540.000; -439.000
201.965; -168.300; -699.000; -447.000
202.111;  -24.100; -273.000; -226.000
202.257;  -69.600; -250.000; -238.000
202.402;   -0.300;   13.000;  -36.000
202.548;  -48.400; -169.000; -116.000
202.694;  169.200;  410.000; -183.000
202.840; -139.700; -603.000; -531.000
202.985; -181.700; -681.000; -639.000
203.131; -229.400; -832.000; -666.000
203.277;  -68.300; -199.000; -262.000
203.423; -126.900; -434.000; -520.000
203.568;  -96.100; -462.000; -237.000
203.714; -150.000; -535.000; -542.000
203.860; -177.800; -682.000; -641.000
204.005;   37.400;  112.000;  167.000
204.151;  185.000;  561.000;  556.000
204.296;  -72.700; -354.000; -221.000
204.442; -154.100; -600.000; -547.000
204.588; -167.400; -592.000; -579.000
204.733;   39.100;  178.000;  168.000
204.879; -297.100;-1018.000; -822.000
205.025;    0.500;  -99.000;  126.000
205.170;   14.100;  -17.000;   94.000
205.316;  160.400;  438.000;  661.000
205.461; -157.200; -698.000; -554.000
205.607;  184.300;  609.000;  665.000
205.752; -133.500; -626.000; -551.000
205.898; -120.300; -501.000; -391.000
206.043; -127.600; -578.000; -506.000
206.189; -102.400; -243.000; -285.000
206.334;  162.400;  554.000;  606.000
206.480;  148.700;  409.000;  239.000
206.625; -185.400; -529.000; -552.000
206.771; -104.600; -451.000; -373.000
206.916;  -69.700; -210.000; -537.000
207.062; -183.800; -545.000; -591.000
207.207; -124.100; -546.000; -443.000
207.353;   93.900;  185.000;  460.000
207.498;    2.500;  196.000;   85.000
207.643; -126.600; -501.000; -370.000
207.789; -278.200;-1069.000; -910.000
207.934; -182.900; -665.000; -713.000
208.080;  -73.000; -154.000;   66.000
208.225;  -46.800;  -22.000;  -57.000
208.370; -168.800; -727.000; -619.000
208.516; -170.400; -741.000; -487.000
208.661;  -52.700; -127.000;  -69.000
208.806;  -64.900; -165.000; -171.000
208.952; -264.700;-1044.000; -731.000
209.097;  162.400;  378.000;  349.000
209.242;  -58.900; -307.000; -382.000
209.387;  105.400;  392.000;  350.000
209.533; -108.500; -321.000; -350.000
209.678;  182.400;  472.000;  543.000
209.823; -112.000; -408.000; -310.000
209.969; -237.100; -860.000; -757.000
210.114; -199.600; -907.000; -719.000
210.259; -257.100; -939.000; -889.000
210.404;   -5.700; -171.000;  103.000
210.549;   32.300;  108.000;    3.000
210.695;  -16.300;   -3.000;  -95.000
210.840;   57.400;   94.000;   67.000
210.985; -117.700; -484.000; -303.000
211.130;  128.500;  268.000;  406.000
211.275;   55.800;  207.000;  199.000
211.420;  -84.300; -300.000; -289.000
211.566; -144.900; -536.000; -489.000
211.711;   43.700;  218.000;  157.000
211.856; -144.300; -545.000; -519.000
212.001;  -10.600;  151.000;   44.000
212.146;    5.100;  153.000;   49.000
212.291;  -78.400; -210.000; -186.000
212.436;  -57.000; -280.000;   -6.000
212.581; -203.400; -685.000; -653.000
212.726; -135.100; -487.000; -538.000
212.871; -120.200; -552.000; -217.000
213.016; -324.400;-1172.000;-1029.000
213.161;  116.700;  406.000;  291.000
213.306; -150.600; -435.000; -577.000
213.451; -208.200; -778.000; -689.000
213.596;  -80.800; -455.000; -347.000
213.741; -126.800; -448.000; -538.000
213.886; -164.600; -498.000; -517.000
214.031;  -73.400; -294.000; -124.000
214.176; -118.600; -408.000; -341.000
214.321;  -45.300; -296.000; -157.000
214.466;  -39.800; -163.000;  -43.000
214.611;  -46.900;  -61.000;  -10.000
214.756; -255.000; -948.000; -858.000
214.901;  -54.600; -388.000; -226.000
215.046; -250.800; -797.000; -825.000
215.191;    9.600;  128.000;   35.000
215.336;  -15.400; -157.000;  -19.000
215.480; -164.600; -684.000; -505.000
215.625;    8.400; -175.000;  -19.000
215.770; -166.400; -757.000; -662.000
215.915;   -7.300;   -5.000;  -97.000
216.060;  -13.900; -113.000;  -21.000
216.205; -223.800; -731.000; -779.000
216.349; -194.500; -470.000; -533.000
216.494; -271.400; -939.000; -867.000
216.639; -265.300; -823.000; -888.000
216.784; -198.100; -577.000; -525.000
216.929;   85.500;  392.000;  281.000
217.073;  -23.000; -244.000;  -31.000
217.218;    3.100;   78.000;  -47.000
217.363; -189.800; -656.000; -618.000
217.507; -167.800; -623.000; -588.000
217.652; -246.800; -845.000; -874.000
217.797; -185.000; -708.000; -659.000
217.942; -252.500; -856.000; -720.000
218.086;  121.300;  608.000;  539.000
218.231;  -21.300; -174.000;  -26.000
218.376;  -54.300; -337.000; -229.000
218.520;   14.400;  -41.000;   96.000
218.665;  -79.500; -338.000; -204.000
218.810;  -44.600; -275.000; -233.000
218.954;   44.500;  201.000;   35.000
219.099; -240.100; -713.000; -963.000
219.243; -174.800; -589.000; -554.000
219.388;  -82.200; -264.000; -136.000
219.532;  -32.900; -116.000; -116.000
219.677; -162.300; -564.000; -521.000
219.822;    8.800;   33.000;   89.000
219.966;   38.600;   17.000;  -99.000
220.111;  -74.400; -328.000;  -40.000
220.255; -209.500; -797.000; -750.000
220.400;  -28.700; -180.000; -146.000
220.544; -143.300; -516.000; -450.000
220.689; -108.100; -422.000; -451.000
220.833;  -28.700; -123.000;  -58.000
220.978;  -97.700; -393.000; -563.000
221.122;   57.500;  319.000;  307.000
221.267; -233.000; -906.000; -837.000
221.411; -125.900; -478.000; -394.000
221.555;   -6.700; -104.000;  -23.000
221.700; -136.700; -329.000; -222.000
221.844;   79.900;  255.000;  272.000
221.989;  -79.900; -328.000; -311.000
222.133;  -89.800; -289.000; -307.000
222.277;  -12.000;    5.000;   78.000
222.422;   36.900;  227.000;  113.000
222.566;  -91.500; -381.000; -214.000
222.711; -120.500; -414.000; -479.000
222.855; -177.100; -643.000; -586.000
222.999; -170.700; -642.000; -717.000
223.144;  -28.300; -195.000; -194.000
223.288;  133.200;  423.000;  251.000
223.432;   64.900;  184.000;  230.000
223.576;    0.000;  152.000;  -21.000
223.721;  124.700;  364.000;  273.000
223.865; -121.300; -472.000; -475.000
224.009;  580.200; 1673.000; 1631.000
224.153; -183.100; -660.000; -671.000
224.298; -126.200; -531.000; -489.000
224.442;  -45.400;  -74.000;  -33.000
224.586;  -37.800; -169.000; -106.000
224.730; -223.700; -858.000; -670.000
224.875; -236.700; -739.000; -688.000
225.019;   24.300;  102.000;  188.000
225.163;  135.800;  208.000;  341.000
225.307;   43.400;   97.000;  -91.000
225.451;  106.700;  360.000;  481.000
225.595;   64.300;  264.000;  176.000
225.739;  -30.700; -170.000;  -94.000
225.884;    0.600;   86.000;    5.000
226.028; -197.600; -760.000; -626.000
226.172;  -75.300; -260.000; -273.000
226.316; -218.600; -941.000; -902.000
226.460; -126.400; -645.000; -493.000
226.604; -108.600; -406.000; -400.000
226.748; -231.600; -836.000; -733.000
226.892;  -78.700; -227.000; -181.000
227.036; -108.900; -537.000; -447.000
227.180; -134.000; -551.000; -375.000
227.324; -144.700; -561.000; -580.000
227.468; -241.900; -819.000; -717.000
227.612;   16.700;  242.000;  -28.000
227.756; -196.700; -845.000; -698.000
227.900;  114.200;  342.000;  441.000
228.044; -126.700; -509.000; -290.000
228.188;  124.800;  448.000;  568.000
228.332; -178.100; -546.000; -472.000
228.476;  -75.400; -223.000; -149.000
228.620;  -33.800; -210.000; -150.000
228.764;  140.600;  431.000;  349.000
228.908;  -29.900; -155.000;   30.000
229.052; -160.800; -615.000; -528.000
229.195;  -23.500; -172.000;   13.000
229.339;  -75.700; -235.000; -305.000
229.483;  -88.000;    5.000; -162.000
229.627;  -17.500; -156.000;  139.000
229.771;  -62.300; -218.000; -294.000
229.915;   -0.300;  230.000;   79.000
230.059; -178.100; -648.000; -663.000
230.202;  -75.000; -370.000; -317.000
230.346;  -39.400; -107.000;  107.000
230.490; -139.100; -489.000; -521.000
230.634; -194.000; -736.000; -553.000
230.777;  131.600;  478.000;  509.000
230.921; -122.000; -450.000; -359.000
231.065; -112.400; -246.000; -286.000
231.209;   61.000;  261.000;  265.000
231.352;   17.600;   54.000;   40.000
231.496;   32.500;  568.000;  188.000
231.640; -143.800; -693.000; -621.000
231.783;  123.000;  546.000;  525.000
231.927; -102.400; -294.000; -365.000
232.071; -253.700; -962.000; -736.000
232.214; -246.100; -980.000; -764.000
232.358; -215.900; -683.000; -599.000
232.502;   17.500;  -19.000;    7.000
232.645; -298.800;-1090.000; -927.000
232.789;  -47.900; -257.000; -218.000
232.933;  -72.600; -407.000; -224.000
233.076; -261.600;-1038.000; -897.000
233.220; -220.600; -752.000; -777.000
233.363; -180.200; -669.000; -477.000
233.507;  109.100;  371.000;  129.000
233.650; -229.300; -764.000; -834.000
233.794;  130.400;  438.000;  461.000
233.938; -136.700; -530.000; -362.000
234.081;  -18.900;  -93.000;   31.000
234.225; -137.700; -631.000; -539.000
234.368; -238.200; -773.000; -723.000
234.512;  -77.100; -385.000; -299.000
234.655; -146.500; -582.000; -555.000
234.798; -120.700; -493.000; -466.000
234.942; -294.600; -884.000;-1002.000
235.085; -172.000; -651.000; -443.000
235.229; -126.300; -405.000; -410.000
235.372; -120.600; -247.000; -191.000
235.516; -124.100; -397.000; -321.000
235.659;   57.500;   92.000;  121.000
235.802;  -10.100;  -38.000;  -22.000
235.946;   52.300;  335.000;  215.000
236.089;   29.100;  126.000;  250.000
236.233;  122.300;  275.000;  298.000
236.376;  -97.100; -235.000; -378.000
236.519; -132.900; -297.000; -319.000
236.663;  -47.500; -215.000; -117.000
236.806; -262.800;-1029.000; -999.000
236.949;  145.600;  543.000;  431.000
237.092;  116.300;  412.000;  391.000
237.236; -141.400; -589.000; -502.000
237.379;  145.600;  352.000;  428.000
237.522; -228.500; -879.000; -768.000
237.666;  -30.900; -271.000;   18.000
237.809; -247.200; -851.000; -823.000
237.952;   60.200;  469.000;  271.000
238.095; -138.900; -447.000; -442.000
238.238;  199.000;  688.000;  700.000
238.382;   -2.600;  166.000;  103.000
238.525; -131.500; -598.000; -511.000
238.668; -286.900;-1060.000; -985.000
238.811; -179.500; -638.000; -643.000
238.954;  -87.700; -483.000; -334.000
239.097;  182.100;  617.000;  664.000
239.241;   64.800;  394.000;  326.000
239.384;  -88.700; -254.000; -214.000
239.527; -104.600; -424.000; -224.000
239.670; -311.300; -994.000;-1091.000
239.813; -230.400; -696.000; -658.000
239.956;  192.000;  579.000;  473.000
240.099; -221.500; -778.000; -725.000
240.242;  123.300;  428.000;  432.000
240.385;  120.800;  466.000;  450.000
240.528; -147.500; -706.000; -473.000
240.671;   67.800;  189.000;  134.000
240.814;  -69.800; -441.000; -158.000
240.957; -202.200; -767.000; -578.000
241.100; -236.400; -779.000; -755.000
241.243; -282.800;-1234.000; -893.000
241.386; -159.900; -508.000; -379.000
241.529; -162.400; -735.000; -547.000
241.672; -145.300; -566.000; -495.000
241.815; -213.700; -832.000; -808.000
241.958;  -36.800; -125.000; -182.000
242.101; -179.600; -545.000; -390.000
242.244;  -69.700; -270.000; -325.000
242.387;  -38.100; -304.000; -246.000
242.530;  126.900;  470.000;  134.000
242.673;  -74.900; -381.000; -309.000
242.815; -253.200; -925.000; -899.000
242.958; -138.500; -482.000; -381.000
243.101;   21.700;  132.000;  187.000
243.244; -146.200; -564.000; -521.000
243.387;  -75.400; -313.000; -316.000
243.530; -219.600; -657.000; -674.000
243.672;   12.900;   43.000;  -92.000
243.815;  -92.700; -355.000; -283.000
243.958;  -17.700;   98.000;  -26.000
244.101;   10.700;   59.000;  -16.000
244.243;  -23.100;  -47.000;  101.000
244.386; -211.600; -761.000; -630.000
244.529;  -53.800; -132.000; -139.000
244.672; -329.400;-1154.000; -951.000
244.814; -197.800; -621.000; -794.000
244.957; -107.600; -380.000; -304.000
245.100; -157.900; -489.000; -489.000
245.242;  -96.900; -387.000; -374.000
245.385;  -24.500;  -59.000;  -39.000
245.528; -240.900; -871.000; -705.000
245.670;  208.800;  612.000;  634.000
245.813; -206.600; -599.000; -547.000
245.956;  -48.800; -324.000; -275.000
246.098; -152.400; -508.000; -650.000
246.241;   26.500;  194.000;   48.000
246.383;  -19.000; -119.000;  -73.000
246.526; -173.600; -454.000; -525.000
246.669; -244.300; -889.000; -780.000
246.811;   69.000;  172.000;   -1.000
246.954; -129.500; -512.000; -426.000
247.096;  -23.600;  -84.000;   -6.000
247.239; -143.200; -482.000; -445.000
247.381; -184.300; -647.000; -488.000
247.524;  231.100;  645.000;  679.000
247.666;   -7.800;   58.000;   11.000
247.809; -200.100; -887.000; -691.000
247.951;  -19.300;  -75.000;  138.000
248.094;   74.400;  432.000;  308.000
248.236; -344.200;-1262.000;-1238.000
248.378;  -37.100; -356.000;  -81.000
248.521;  -73.400; -334.000; -337.000
248.663;  -90.400; -236.000; -267.000
248.806;  -50.200; -300.000; -266.000
248.948; -227.100; -886.000; -763.000
249.090; -104.600; -428.000; -398.000
249.233; -111.000; -344.000; -381.000
249.375; -150.800; -474.000; -451.000
249.518;  -37.600;  -83.000; -133.000
249.660;  -36.300; -103.000;    3.000
249.802; -381.400;-1303.000;-1189.000
249.945; -162.300; -612.000; -540.000
250.087; -230.900; -834.000; -768.000
250.229; -114.800; -362.000; -480.000
250.371; -159.600; -494.000; -439.000
250.514; -110.300; -310.000; -244.000
250.656; -118.300;   69.000;  102.000
250.798; -243.300; -849.000; -800.000
250.940; -112.400; -322.000; -322.000
251.083;  -65.100; -335.000; -111.000
251.225;  134.800;  338.000;  310.000
251.367;  -76.800; -274.000; -373.000
251.509;  -58.000; -265.000; -210.000
251.651; -217.700; -731.000; -671.000
251.794;  114.400;  538.000;  632.000
251.936; -241.600; -821.000; -747.000
252.078; -157.700; -540.000; -461.000
252.220; -160.700; -645.000; -477.000
252.362;  118.600;  344.000;  462.000
252.504; -176.200; -677.000; -584.000
252.646; -218.200; -875.000; -722.000
252.788;  -37.000;   14.000; -128.000
252.931; -115.600; -257.000; -253.000
253.073; -110.800; -376.000; -317.000
253.215;    9.800;  141.000;  122.000
253.357;  -40.900;   82.000; -153.000
253.499; -106.500; -374.000; -234.000
253.641; -197.300; -749.000; -594.000
253.783; -178.500; -609.000; -527.000
253.925; -195.400; -586.000; -591.000
254.067; -249.100; -744.000; -667.000
254.209;  -65.300; -391.000; -259.000
254.351; -278.900; -865.000; -883.000
254.493; -161.300; -441.000; -417.000
254.635; -231.900; -936.000; -818.000
254.777; -195.600; -752.000; -687.000
254.918; -168.000; -512.000; -430.000
255.060; -182.500; -551.000; -395.000
255.202; -131.600; -473.000; -261.000
255.344; -178.800; -658.000; -455.000
255.486; -160.800; -471.000; -406.000
255.628; -240.000; -780.000; -781.000
255.770; -173.900; -676.000; -536.000
255.912; -160.100; -559.000; -468.000
256.053; -164.400; -730.000; -508.000
256.195;  330.500; 1008.000;  903.000
256.337; -209.200; -861.000; -595.000
256.479;  164.200;  532.000;  416.000
256.621;  -83.500; -394.000; -212.000
256.762; -216.000; -789.000; -742.000
256.904;  130.800;  485.000;  487.000
257.046; -113.800; -381.000; -271.000
257.188;  -66.000; -351.000; -264.000
257.329; -146.100; -525.000; -464.000
257.471; -248.500; -939.000; -807.000
257.613; -164.500; -584.000; -498.000
257.755; -305.000;-1073.000; -982.000
257.896;   86.000;  286.000;  392.000
258.038; -108.500; -403.000; -352.000
258.180;  -94.500; -354.000; -279.000
258.321; -175.600; -581.000; -457.000
258.463;   -5.300;  -71.000;  133.000
258.605; -219.500; -562.000; -570.000
258.746; -228.900; -886.000; -772.000
258.888; -298.700;-1026.000;-1020.000
259.029;   38.400;  121.000;   -8.000
259.171; -197.000; -614.000; -550.000
259.313;   10.100;  -49.000;  -47.000
259.454; -138.100; -536.000; -414.000
259.596; -124.700; -483.000; -390.000
259.737; -155.000; -590.000; -474.000
259.879;   53.700;  217.000;  311.000
260.020;  198.000;  901.000;  636.000
260.162;  -82.200; -146.000; -253.000
260.303; -222.800; -768.000; -687.000
260.445; -165.800; -609.000; -613.000
260.586;   86.700;  392.000;  157.000
260.728;  -90.000; -360.000; -248.000
260.869; -132.700; -350.000; -343.000
261.011;  170.800;  706.000;  537.000
261.152; -110.000; -479.000; -319.000
261.293; -155.200; -576.000; -595.000
261.435;  -48.400; -219.000; -184.000
261.576;  -80.900; -455.000; -325.000
261.718;  122.400;  420.000;  470.000
261.859; -298.600; -940.000; -949.000
262.000; -256.200; -951.000;-1016.000
262.142;  -39.400;  -52.000;  -60.000
262.283; -221.700; -808.000; -691.000
262.424; -187.500; -666.000; -625.000
262.566; -327.900;-1161.000; -983.000
262.707; -237.000; -840.000; -830.000
262.848; -228.900; -769.000; -726.000
262.990;  -87.100; -362.000; -345.000
263.131;  172.500;  650.000;  681.000
263.272;  -25.700;  -61.000;  -41.000
263.413; -191.700; -589.000; -561.000
263.555; -138.500; -669.000; -143.000
263.696; -164.700; -550.000; -641.000
263.837; -121.700; -449.000; -551.000
263.978;    3.900;   -5.000;  -77.000
264.119;  -87.400; -283.000; -264.000
264.261; -227.200; -847.000; -630.000
264.402;  -32.200;   33.000;   40.000
264.543; -181.800; -509.000; -524.000
264.684;  -39.200;   61.000;  -50.000
264.825; -135.600; -816.000; -538.000
264.966;   -4.500;  -84.000;  -67.000
265.107; -202.500; -646.000; -670.000
265.248; -265.100; -825.000; -812.000
265.390;   26.900;  152.000;   -9.000
265.531;  -44.800; -238.000; -107.000
265.672; -155.500; -557.000; -630.000
265.813;  149.600;  563.000;  439.000
265.954; -306.200; -959.000; -940.000
266.095;  -27.300; -372.000; -322.000
266.236; -198.500; -686.000; -548.000
266.377;  -95.900; -243.000; -297.000
266.518; -128.800; -619.000; -547.000
266.659;   71.700;  170.000;  268.000
266.800;   14.000;   83.000;   85.000
266.941; -164.500; -487.000; -478.000
267.082;   55.400;  354.000;   99.000
267.223; -103.400; -344.000; -273.000
267.364; -272.300; -892.000; -686.000
267.504;  -10.600;    3.000;  135.000
267.645;   19.200;  160.000;   67.000
267.786;  -72.500; -147.000;  -86.000
267.927; -149.000; -473.000; -379.000
268.068;  -21.800; -186.000;  -61.000
268.209;  -97.100; -175.000; -413.000
268.350; -148.200; -388.000; -532.000
268.490; -138.000; -648.000; -521.000
268.631;  101.600;  127.000;  225.000
268.772; -231.800; -874.000; -647.000
268.913; -114.400; -328.000; -476.000
269.054;  -11.200; -117.000;   12.000
269.194;  -72.100; -418.000; -402.000
269.335; -282.300;-1137.000;-1074.000
269.476;  -75.400;   33.000;  -35.000
269.617;  -87.700; -347.000; -392.000
269.757; -199.900; -713.000; -646.000
269.898; -223.900; -856.000; -613.000
270.039; -149.400; -415.000; -405.000
270.180; -268.500; -952.000; -816.000
270.320;  -55.100; -190.000; -250.000
270.461;  -84.600; -277.000; -249.000
270.602;  -29.100; -186.000; -156.000
270.742; -257.800; -868.000; -943.000
270.883; -118.700; -442.000; -390.000
271.023;  -91.200; -358.000; -357.000
271.164; -140.100; -607.000; -528.000
271.305; -190.800; -666.000; -654.000
271.445; -212.900; -722.000; -683.000
271.586; -134.400; -462.000; -283.000
271.726;  -76.400; -397.000; -322.000
271.867; -153.600; -594.000; -534.000
272.008;  101.900; -473.000; -285.000
272.148;  178.600;  462.000;  468.000
272.289;   -1.600; -113.000; -181.000
272.429;   24.700;   19.000;  185.000
272.570; -209.500; -633.000; -737.000
272.710; -188.400; -825.000; -775.000
272.851;  -56.700;  113.000; -130.000
272.991; -361.900;-1173.000;-1077.000
273.131; -137.800; -419.000; -459.000
273.272; -192.200; -683.000; -723.000
273.412;    5.900; -143.000;  -31.000
273.553; -131.000; -488.000; -507.000
273.693;  291.900;  913.000;  858.000
273.834; -244.300; -894.000; -692.000
273.974; -170.000; -664.000; -615.000
274.114; -214.300; -772.000; -560.000
274.255;  132.800;  414.000;  373.000
274.395;  -26.900; -180.000; -125.000
274.535;   50.600;  199.000;  350.000
274.676;   50.700;  225.000;   94.000
274.816;   -4.300;  110.000;   34.000
274.956; -155.100; -624.000; -690.000
275.097; -232.600;-1014.000; -922.000
275.237; -271.600; -913.000; -803.000
275.377; -194.100; -778.000; -689.000
275.517; -325.000; -878.000; -937.000
275.658; -155.400; -590.000; -555.000
275.798; -167.600; -606.000; -413.000
275.938;   32.700;  215.000;  323.000
276.078; -162.600; -626.000; -395.000
276.218;  -18.500;   99.000;  104.000
276.359; -304.300;-1026.000;-1024.000
276.499; -159.900; -605.000; -446.000
276.639;  -79.400; -305.000; -151.000
276.779; -117.800; -475.000; -357.000
276.919; -217.000; -783.000; -624.000
277.059;  -44.900; -261.000; -212.000
277.199;  -89.600; -357.000; -259.000
277.340;   93.800;  287.000;  175.000
277.480; -217.900; -840.000; -693.000
277.620;   44.800;  192.000;   16.000
277.760; -396.700;-1533.000;-1294.000
277.900;   41.900;  113.000;   33.000
278.040;   52.700;  137.000;  159.000
278.180;   62.800;  270.000;  170.000
278.320;    2.700;   21.000;   56.000
278.460; -156.500; -443.000; -469.000
278.600; -171.200; -708.000; -598.000
278.740;  140.700;  448.000;  224.000
278.880; -190.500; -768.000; -791.000
279.020;   -9.200; -194.000; -144.000
279.160; -170.400; -672.000; -595.000
279.300; -245.600; -926.000; -873.000
279.440; -199.400; -709.000; -622.000
279.579; -167.200;-1014.000; -929.000
279.719; -112.700; -410.000; -394.000
279.859;   82.000;   -4.000;   41.000
279.999;    2.500; -208.000;  101.000
280.139;  -76.200; -435.000; -387.000
280.279; -167.400; -708.000; -745.000
280.419;  -41.300; -229.000; -147.000
280.559;  -59.200; -259.000; -180.000
280.698; -198.100; -790.000; -639.000
280.838; -205.900; -778.000; -800.000
280.978; -202.100; -846.000; -790.000
281.118; -201.300; -811.000; -704.000
281.257;   21.800;   24.000;    6.000
281.397; -277.600;-1094.000; -960.000
281.537; -201.500; -599.000; -712.000
281.677;  -35.000; -150.000; -101.000
281.816; -190.900; -700.000; -630.000
281.956;  -35.400; -193.000; -257.000
282.096; -142.300; -539.000; -396.000
282.235; -205.300; -672.000; -638.000
282.375;  -25.000; -243.000;  -98.000
282.515; -217.600; -715.000; -707.000
282.654;   37.300;   29.000;  106.000
282.794;   76.300;  388.000;  244.000
282.934; -128.300; -530.000; -491.000
283.073; -276.900;-1030.000; -857.000
283.213; -130.200; -460.000; -467.000
283.353;  -90.600; -408.000; -349.000
283.492;  -74.700; -264.000; -296.000
283.632;  -62.800; -254.000; -168.000
283.771; -190.400; -859.000; -730.000
283.911;  -99.800; -369.000; -260.000
284.050; -227.400; -794.000; -748.000
284.190; -326.200;-1229.000;-1096.000
284.329; -301.400;-1055.000; -964.000
284.469; -151.100; -516.000; -591.000
284.608; -151.500; -559.000; -598.000
284.748; -143.000; -614.000; -570.000
284.887;  -43.000;  -87.000;  -20.000
285.027; -257.900; -844.000; -892.000
285.166;  -90.400; -192.000; -249.000
285.306;    2.200; -116.000;  -33.000
285.445;  -71.900; -229.000; -343.000
285.584; -207.100; -630.000; -494.000
285.724;  -79.700; -282.000; -322.000
285.863; -223.500; -857.000; -507.000
286.002; -132.400; -366.000; -276.000
286.142; -204.400; -715.000; -622.000
286.281; -126.200; -525.000; -493.000
286.420; -160.100; -554.000; -417.000
286.560;  210.900;  653.000;  623.000
286.699; -284.200; -958.000; -912.000
286.838; -155.300; -590.000; -591.000
286.978; -176.500; -533.000; -537.000
287.117; -258.500;-1085.000; -950.000
287.256;  -56.800; -228.000; -211.000
287.395; -117.900; -197.000; -378.000
287.535;  -97.900; -370.000; -298.000
287.674; -171.400; -509.000; -484.000
287.813;  141.600;  661.000;  533.000
287.952; -263.200;-1010.000; -871.000
288.091; -299.000;-1049.000; -915.000
288.231;    1.500;   13.000;   15.000
288.370; -330.400;-1217.000;-1200.000
288.509; -178.500; -728.000; -645.000
288.648; -190.900; -770.000; -548.000
288.787;  -36.600; -243.000;  -87.000
288.926; -120.000; -454.000; -475.000
289.065;  230.800;  859.000;  672.000
289.204;  -89.900; -377.000; -217.000
289.344; -205.600; -791.000; -690.000
289.483;   40.500;  416.000;  304.000
289.622;  -38.800; -291.000; -149.000
289.761;  -42.400; -309.000; -166.000
289.900; -256.700; -785.000; -626.000
290.039;    1.200;  -12.000;  -95.000
290.178;  -74.200; -274.000; -180.000
290.317; -156.100; -618.000; -479.000
290.456; -146.500; -463.000; -451.000
290.595; -292.800; -961.000; -833.000
290.734; -300.500; -904.000; -891.000
290.873; -113.300; -456.000; -420.000
291.011; -251.200; -833.000; -843.000
291.150; -215.600; -770.000; -682.000
291.289;  -70.200; -343.000; -110.000
291.428; -161.800; -599.000; -480.000
291.567;  -67.400; -370.000; -442.000
291.706;   19.000;  109.000;  154.000
291.845; -174.500; -597.000; -505.000
291.984; -333.700;-1234.000;-1061.000
292.122;  145.400;  602.000;  582.000
292.261;  128.500;  620.000;  463.000
292.400;   22.500; -144.000;  211.000
292.539; -238.300; -959.000; -813.000
292.678;  -64.800; -325.000; -300.000
292.816; -290.000;-1136.000; -965.000
292.955; -208.100; -844.000; -684.000
293.094;  -34.200; -173.000; -337.000
293.233; -117.300; -556.000; -400.000
293.371;  -66.800; -225.000;  -84.000
293.510; -226.600; -866.000; -780.000
293.649; -258.400; -959.000; -924.000
293.787; -235.900;-1083.000;-1012.000
293.926;   -2.200; -113.000;  -32.000
294.065;  -96.900; -379.000; -290.000
294.203;  151.900;  298.000;  406.000
294.342;   53.400;   74.000;  156.000
294.481;14718.600;51180.000; -836.000
294.619;  -35.700; -425.000; -582.000
294.758; -310.200;-1230.000;-1137.000
294.896;   98.600; -125.000;    5.000
295.035; -288.900;-1040.000;-1006.000
295.174; -289.100;-1082.000; -954.000
295.312; -116.600; -323.000; -203.000
295.451;  -38.900; -307.000; -428.000
295.589; -125.100; -389.000; -518.000
295.728;   40.000; -292.000; -165.000
295.866;   -6.100;  -36.000;  -51.000
296.005; -156.700; -584.000; -341.000
296.143; -167.800; -558.000; -596.000
296.282; -229.600; -957.000; -881.000
296.420; -164.700; -657.000; -557.000
296.559; -210.900; -892.000; -633.000
296.697;  -89.900; -847.000; -665.000
296.835; -127.400;-1141.000;-1002.000
296.974;   72.400;  -23.000;   39.000
297.112;  -73.600; -443.000; -504.000
297.251; -176.200; -815.000; -755.000
297.389;   12.100; -576.000; -438.000
297.527;   41.500; -145.000;  -83.000
297.666; -123.900; -486.000; -438.000
297.804;  -63.600; -404.000; -264.000
297.942;   37.700; -136.000; -161.000
298.081;  -19.000; -183.000;   63.000
298.219;   54.200;  -17.000;  -19.000
298.357;    5.600; -144.000;  -71.000
298.495;  -99.300; -810.000; -812.000
298.634;   93.400;  245.000;  219.000
298.772;  -16.500; -220.000; -338.000
298.910;  -79.400; -309.000; -182.000
299.048;  -31.500; -130.000; -153.000
299.187;  -74.000; -350.000; -250.000
299.325;   27.600;   52.000;  122.000
299.463;   -3.400; -389.000; -299.000
299.601;   41.800; -327.000; -271.000
299.739; -231.100; -908.000; -883.000
299.877; -161.000; -791.000; -703.000
300.016; -226.700;-1095.000; -935.000
300.154;   87.000;  -19.000; -161.000
300.292;  -21.400; -428.000; -348.000
300.430;   -7.600; -408.000; -291.000
300.568; -237.100; -940.000; -874.000
300.706; -108.200; -366.000; -469.000
300.844; -245.500;-1108.000; -979.000
300.982;  186.900;  246.000;  282.000
301.120; -244.700; -965.000; -866.000
301.258; -164.100; -812.000; -705.000
301.396;   64.900;  104.000;  -41.000
301.534;   62.600; -218.000; -293.000
301.672;  -51.600; -664.000; -521.000
301.810;  -53.400; -613.000; -545.000
301.948;  162.300;   53.000;  149.000
302.086;  478.600; -250.000;  -32.000
302.224;  782.100; -610.000; -585.000
302.362;  -64.900; -558.000; -622.000
302.500; -164.300; -923.000; -893.000
302.638;  136.100;  128.000;  245.000
302.776;  -40.500; -352.000; -408.000
302.913;   95.100;  447.000;  236.000
303.051;  -26.100;  -86.000;  -23.000
303.189;   65.600;   90.000;  118.000
303.327;  -85.000; -341.000; -256.000
303.465; -193.000; -832.000; -588.000
303.603; -182.100; -805.000; -604.000
303.740;  147.100;  417.000;  241.000
303.878; -100.500; -800.000; -759.000
304.016; -228.700; -915.000; -790.000
304.154; -297.900;-1123.000;-1152.000
304.291; -124.100; -505.000; -554.000
304.429;   32.400;  102.000;   74.000
304.567; -269.600; -908.000; -893.000
304.705; -112.700; -408.000; -515.000
304.842;    0.400; -616.000; -540.000
304.980;   95.900;  215.000;   35.000
305.118;  -21.700; -367.000; -365.000
305.255; -180.500; -945.000; -927.000
305.393;  112.700;  178.000;  239.000
305.531; -251.300;-1173.000; -956.000
305.668; -173.700; -663.000; -582.000
305.806;    1.400; -358.000; -439.000
305.943;  -26.500; -629.000; -637.000
306.081;   -1.200; -378.000; -267.000
306.219; -243.800; -863.000; -748.000
306.356;   26.300;  158.000;   27.000
306.494;  224.000;  981.000;  761.000
306.631;   12.700;  -11.000;  -55.000
306.769;  -36.600; -613.000; -485.000
306.906;  -76.900; -284.000; -258.000
307.044; -124.900; -473.000; -488.000
307.181; -123.800; -410.000; -332.000
307.319;   65.500;  112.000;   87.000
307.456; -336.700;-1191.000;-1153.000
307.594; -224.800; -980.000; -727.000
307.731;  -38.400; -371.000; -164.000
307.868;  -13.900;  -15.000;   20.000
308.006; -261.100; -961.000; -847.000
308.143; -157.700; -618.000; -330.000
308.281;  198.500;  -37.000; -254.000
308.418;  -76.100; -748.000; -640.000
308.555; -135.400; -400.000; -250.000
308.693; -156.500; -577.000; -573.000
308.830; -200.300; -712.000; -657.000
308.967;  -42.100; -215.000;  -95.000
309.105;  -60.900; -507.000; -396.000
309.242;  -21.900; -468.000; -367.000
309.379;  395.800; -577.000; -655.000
309.517; -155.500; -936.000; -948.000
309.654; -202.300; -910.000; -734.000
309.791; -164.000; -662.000; -580.000
309.928; -252.500; -977.000; -914.000
310.065;  287.100;  819.000;  697.000
310.203; -158.200; -825.000; -850.000
310.340;  -85.500; -465.000; -321.000
310.477; -156.200; -412.000; -516.000
310.614; -103.700; -383.000; -473.000
310.751; -143.500; -427.000; -518.000
310.889;  -16.900;    1.000;   11.000
311.026; -298.500;-1161.000; -939.000
311.163; -115.200; -386.000; -380.000
311.300; -120.000; -512.000; -479.000
311.437; -154.900; -658.000; -619.000
311.574; -330.300;-1226.000; -985.000
311.711; -122.100; -595.000; -433.000
311.848;  -91.800; -380.000; -388.000
311.985;   31.000;  270.000;   93.000
312.122; -213.600; -932.000; -762.000
312.259; -228.100; -941.000; -994.000
312.396; -181.100; -508.000; -551.000
312.533; -175.700; -812.000; -790.000
312.670; -281.000;-1070.000; -898.000
312.807;  -90.700; -352.000; -367.000
312.944; -117.200; -513.000; -611.000
313.081;  -56.500; -150.000; -415.000
313.218; -253.000;-1111.000; -867.000
313.355;  -32.900; -531.000; -449.000
313.492;  -16.700; -455.000; -292.000
313.629;  233.600;  815.000;  735.000
313.766; -316.800;-1176.000;-1008.000
313.902;  -42.600; -186.000;   21.000
314.039;  -87.600; -372.000; -289.000
314.176;   69.800;  286.000;  192.000
314.313; -162.500; -569.000; -473.000
314.450; -148.100; -788.000; -684.000
314.587; -139.500; -468.000; -480.000
314.723;    5.600;  -78.000;  130.000
314.860;  102.700;  318.000;  332.000
314.997;   75.000;  223.000;  142.000
315.134;  -89.900; -385.000; -368.000
315.270; -102.600; -480.000; -496.000
315.407; -300.500;-1094.000; -967.000
315.544; -122.600; -657.000; -538.000
315.681; -168.500; -681.000; -565.000
315.817;    4.700; -133.000; -176.000
315.954;  -71.900; -613.000; -392.000
316.091; -279.800;-1045.000;-1023.000
316.227;  -40.300;  -71.000; -179.000
316.364;   11.000;   23.000;    6.000
316.500;  -74.400; -113.000; -300.000
316.637;  -84.900; -181.000; -302.000
316.774; -180.700; -625.000; -358.000
316.910; -164.200; -598.000; -629.000
317.047; -130.000; -487.000; -351.000
317.183; -126.300; -435.000; -566.000
317.320;  -67.300; -367.000; -321.000
317.456; -173.600; -733.000; -805.000
317.593; -139.100; -598.000; -641.000
317.729;    1.600;  168.000;  -67.000
317.866; -410.600;-1434.000;-1285.000
318.002; -217.400; -708.000; -948.000
318.139; -231.900; -883.000; -867.000
318.275; -222.600;-1003.000; -738.000
318.412; -119.700; -517.000; -336.000
318.548; -158.200; -751.000; -720.000
318.685; -220.500; -985.000; -888.000
318.821; -233.500; -762.000; -735.000
318.957;  -32.100;   34.000;  -23.000
319.094;  105.800;  297.000;  154.000
319.230; -160.600; -756.000; -742.000
319.367;   46.800; -471.000; -520.000
319.503;    1.400; -538.000; -436.000
319.639; -255.300; -877.000; -793.000
319.775; -170.500; -750.000; -685.000
319.912; -121.900; -424.000; -519.000
320.048; -272.300;-1184.000;-1184.000
320.184;   88.900;   59.000;   70.000
320.321; -118.700; -497.000; -467.000
320.457;  167.500;  475.000;  662.000
320.593; -109.000; -375.000; -382.000
320.729; -208.800; -732.000; -734.000
320.866; -153.800; -577.000; -635.000
321.002; -213.200; -759.000; -809.000
321.138;  -73.300; -135.000; -211.000
321.274;   50.500; -148.000; -115.000
321.410;  -99.700; -585.000; -353.000
321.546; -188.400;-1011.000; -911.000
321.683;  111.900;  400.000;  185.000
321.819;    6.300;  -48.000; -117.000
321.955; -227.500; -743.000; -722.000
322.091; -126.000; -585.000; -540.000
322.227;  -48.700; -382.000; -202.000
322.363;  -67.000; -320.000; -215.000
322.499;  -89.000; -343.000; -331.000
322.635;  225.200;  636.000;  443.000
322.771;   11.700; -139.000;   12.000
322.907;  134.400;  129.000;  327.000
323.043;  -35.600; -115.000; -206.000
323.179;  -85.100; -394.000; -363.000
323.315;  -51.600; -401.000; -371.000
323.451;   65.300; -328.000; -236.000
323.587;   35.500;  -60.000;  -77.000
323.723;  -72.400; -682.000; -601.000
323.859;  -60.900; -258.000;  -76.000
323.995;  -80.700; -467.000; -409.000
324.131; -251.900; -967.000; -892.000
324.267;  -63.200; -254.000; -276.000
324.402; -273.500; -960.000; -983.000
324.538;  -73.200; -279.000; -104.000
324.674;   44.000;  164.000;   77.000
324.810;  137.500;  226.000;  308.000
324.946;  -22.500; -810.000; -658.000
325.082; -129.000; -568.000; -475.000
325.217;  -30.800;  -62.000;   16.000
325.353; -198.600; -764.000; -659.000
325.489; -170.400; -540.000; -506.000
325.625; -148.800; -579.000; -525.000
325.760;   95.500;  517.000;  376.000
325.896; -112.900; -515.000; -702.000
326.032;  -94.200; -403.000; -352.000
326.168; -148.500; -462.000; -369.000
326.303; -124.600; -352.000; -461.000
326.439;  -42.200; -336.000; -276.000
326.575;  -22.200; -190.000;  -29.000
326.710;  -27.700; -156.000;  -30.000
326.846;   15.400;  146.000;  103.000
326.982; -186.300; -530.000; -548.000
327.117; -125.500; -481.000; -442.000
327.253; -203.600; -745.000; -742.000
327.388; -334.600;-1137.000;-1153.000
327.524; -158.000; -811.000; -578.000
327.659;  -11.200;  -58.000;  -22.000
327.795;   10.100;   69.000;   45.000
327.931; -169.700; -723.000; -499.000
328.066;  -71.100; -417.000; -276.000
328.202;    6.100;   12.000; -129.000
328.337;  241.200;  957.000;  713.000
328.473;    7.400;  -12.000;  -74.000
328.608;  -45.300; -256.000; -267.000
328.743; -206.500; -799.000; -664.000
328.879;   25.400;  214.000;  114.000
329.014; -106.800; -102.000; -122.000
329.150; -172.100; -358.000; -483.000
329.285; -161.900; -465.000; -466.000
329.421;  -91.300; -548.000; -246.000
329.556;  -13.700;  -36.000;   85.000
329.691; -169.800; -633.000; -615.000
329.827; -171.000; -626.000; -480.000
329.962;  -65.200;  131.000; -301.000
330.097; -162.400; -673.000; -585.000
330.233;  -93.900; -410.000; -223.000
330.368; -224.700; -839.000; -628.000
330.503;   -8.400;    3.000;   98.000
330.638;   14.800;  -93.000; -125.000
330.774; -143.000; -609.000; -530.000
330.909;  -92.100; -434.000; -244.000
331.044; -176.400; -714.000; -708.000
331.179; -359.400;-1217.000;-1109.000
331.315;   39.000;   77.000;   20.000
331.450;   35.700;  157.000;  285.000
331.585; -225.300; -805.000; -706.000
331.720; -192.900; -510.000; -460.000
331.855;   -3.900;  -35.000; -102.000
331.990;  214.500;   62.000;  138.000
332.126;  102.500; -110.000;   71.000
332.261;  -61.500; -379.000; -265.000
332.396;  -19.400; -135.000; -242.000
332.531; -268.800;-1074.000;-1031.000
332.666;  -65.400; -519.000; -363.000
332.801; -206.100; -726.000; -807.000
332.936;  -45.200; -192.000; -122.000
333.071; -267.800; -870.000; -817.000
333.206;   42.000;  307.000;  379.000
333.341;   88.300;  344.000;  418.000
333.476; -178.500; -627.000; -623.000
333.611;  -61.300; -251.000; -173.000
333.746; -123.400; -381.000; -464.000
333.881; -259.100; -973.000; -935.000
334.016; -256.100; -936.000; -917.000
334.151; -222.600; -746.000; -702.000
334.286;   56.000;  152.000;  186.000
334.421;  -30.100; -125.000; -178.000
334.556; -175.000; -611.000; -567.000
334.690; -172.500; -631.000; -577.000
334.825;  132.500;  381.000;   83.000
334.960; -122.600; -285.000; -413.000
335.095;    8.300;  135.000;  -91.000
335.230; -194.400; -722.000; -738.000
335.365; -287.400;-1084.000; -990.000
335.499; -268.500;-1108.000;-1037.000
335.634;   65.400;    9.000;  534.000
335.769; -221.700; -755.000; -720.000
335.904; -147.900; -603.000; -561.000
336.038; -154.600; -735.000; -657.000
336.173; -305.800;-1206.000;-1194.000
336.308;  -16.300; -116.000; -189.000
336.443;  -56.400; -544.000; -634.000
336.577; -203.500; -936.000; -787.000
336.712;   75.800;   -4.000;  -12.000
336.847; -141.400; -724.000; -607.000
336.981;    4.300; -272.000; -208.000
337.116;  366.000;  615.000;  501.000
337.250;   68.800; -434.000; -421.000
337.385;  120.200; -297.000; -208.000
337.520;  -45.100; -632.000; -603.000
337.654;  -39.100; -215.000; -126.000
337.789; -268.700; -989.000; -933.000
337.923;  -47.600; -104.000; -205.000
338.058; -198.100; -673.000; -738.000
338.192; -128.300; -611.000; -488.000
338.327;  -15.300;  -18.000; -155.000
338.461; -161.800; -299.000; -469.000
338.596; -185.900; -780.000; -638.000
338.730; -207.300; -767.000; -803.000
338.865;   51.300;  -46.000; -140.000
338.999; -216.000; -846.000; -702.000
339.134; -131.200; -634.000; -536.000
339.268; -118.200; -741.000; -603.000
339.403;  165.700; -740.000; -775.000
339.537;  -52.300; -894.000; -820.000
339.671; -225.400; -829.000; -813.000
339.806; -134.000; -556.000; -512.000
339.940;  -32.300; -261.000; -235.000
340.074; -183.400; -685.000; -510.000
340.209;  -75.300; -351.000; -230.000
340.343; -143.300; -517.000; -573.000
340.477;  314.000;  998.000; 1036.000
340.612; -180.300;-1033.000; -900.000
340.746;   20.200; -199.000; -243.000
340.880; -212.700; -924.000; -785.000
341.014;  -28.500;  -45.000; -154.000
341.149; -223.200; -756.000; -718.000
341.283; -228.400; -839.000; -754.000
341.417; -234.300;-1124.000; -938.000
341.551;   35.500; -768.000; -708.000
341.685; -129.000; -633.000; -611.000
341.820; -176.200; -562.000; -493.000
341.954; -117.700; -218.000; -349.000
342.088; -311.400;-1102.000;-1019.000
342.222;  135.100;  565.000;  618.000
342.356; -123.400; -395.000; -335.000
342.490; -207.100; -880.000; -841.000
342.624;  -79.100; -339.000; -242.000
342.758;  -55.500; -364.000; -312.000
342.892; -173.100; -710.000; -585.000
343.026;  -46.200;  -58.000; -116.000
343.160; -101.800; -426.000; -376.000
343.294; -149.200; -474.000; -337.000
343.428; -105.300; -488.000; -448.000
343.562;  -29.200; -172.000;  -23.000
343.696;  -73.000; -385.000; -314.000
343.830;  -44.900; -362.000; -356.000
343.964;  -10.500; -231.000; -168.000
344.098;  848.200;  199.000;   70.000
344.232;  682.000; -266.000; -127.000
344.366;  -10.600; -567.000; -453.000
344.500;  -56.200; -665.000; -744.000
344.634;   21.200; -324.000; -164.000
344.768;  -94.200; -531.000; -341.000
344.902;   61.400;  278.000;  256.000
345.035; -153.300; -556.000; -496.000
345.169; -274.300; -933.000; -656.000
345.303;  -81.600; -308.000; -482.000
345.437; -197.300; -826.000; -717.000
345.571; -164.100; -675.000; -594.000
345.704; -150.900; -309.000; -532.000
345.838;  -65.500; -331.000; -284.000
345.972; -131.100; -543.000; -495.000
346.106;  138.400; -179.000; -190.000
346.239;  305.500; -312.000; -243.000
346.373;  -71.400; -343.000; -302.000
346.507; -275.200; -950.000; -962.000
346.640;  107.300;  -30.000;   13.000
346.774; -143.400; -650.000; -797.000
346.908;  -46.600; -138.000;  -11.000
347.041; -152.200; -646.000; -593.000
347.175;   32.600;  259.000;   27.000
347.309; -133.900; -698.000; -628.000
347.442; -218.900; -883.000; -732.000
347.576;  318.400;  670.000;  668.000
347.709;  186.700; -123.000;  -52.000
347.843; -226.200; -933.000; -825.000
347.976;   83.600;  235.000;  294.000
348.110; -352.500;-1268.000;-1186.000
348.243; -206.300; -679.000; -772.000
348.377;    6.200;  -26.000;   60.000
348.510;  109.100;  403.000;  540.000
348.644;  -47.300;  -37.000; -159.000
348.777;   32.300;  180.000;  191.000
348.911;  -84.800; -142.000; -112.000
349.044;  240.400;  471.000;  448.000
349.178;  -16.200;-1069.000;-1006.000
349.311;  154.000;  141.000;  255.000
349.444; -168.600; -927.000; -813.000
349.578;  -48.100; -347.000; -200.000
349.711; -235.200; -959.000; -862.000
349.845;  -68.900; -661.000; -591.000
349.978; -326.900;-1224.000;-1137.000
350.111; -157.900; -546.000; -612.000
350.244; -185.700; -596.000; -700.000
350.378;  -53.200; -392.000; -393.000
350.511; -150.200; -393.000; -426.000
350.644; -254.100; -808.000; -806.000
350.778;   40.700;  168.000;  104.000
350.911;   39.700;  134.000;  140.000
351.044; -169.600; -685.000; -615.000
351.177;  -47.400; -321.000; -281.000
351.310;  -17.400;    3.000; -131.000
351.444; -190.500; -888.000; -788.000
351.577;  135.400;  140.000;   90.000
351.710;  205.000;  593.000;  417.000
351.843;  -47.700; -165.000;  -77.000
351.976;   -1.600;  149.000;  -79.000
352.109; -192.700; -621.000; -612.000
352.242; -124.900; -464.000; -419.000
352.376; -171.800; -580.000; -636.000
352.509;  102.200; -437.000; -356.000
352.642; -150.000; -654.000; -604.000
352.775;   52.400; -141.000;  -98.000
352.908; -250.800; -933.000; -904.000
353.041; -229.000; -814.000; -824.000
353.174; -116.200; -551.000; -424.000
353.307; -209.600; -753.000; -764.000
353.440;  134.300;  541.000;  453.000
353.573; -243.900; -957.000;-1008.000
353.706;  -94.700; -384.000; -558.000
353.839;  -61.800; -264.000; -220.000
353.971; -168.100; -657.000; -512.000
354.104; -218.800; -896.000; -835.000
354.237; -128.100; -627.000; -662.000
354.370; -209.200; -846.000; -879.000
354.503; -373.400;-1231.000;-1308.000
354.636;  -94.700; -529.000; -348.000
354.769; -286.400; -937.000; -860.000
354.902;  -31.500; -230.000; -139.000
355.034;  -34.500; -164.000; -220.000
355.167;  -56.700; -262.000; -162.000
355.300; -236.200;-1061.000; -880.000
355.433;  807.800;  -71.000;  -14.000
355.565; 1175.500; -402.000; -384.000
355.698;  242.700; -356.000; -296.000
355.831; -147.600; -882.000; -801.000
355.964;   22.700; -285.000; -170.000
356.096; -250.200; -856.000; -843.000
356.229; -102.700; -523.000; -530.000
356.362;  224.300; -373.000; -266.000
356.494;  506.800; -229.000; -162.000
356.627;  490.300;  269.000;  377.000
356.760;  580.000;  120.000;   53.000
356.892;  683.000; -286.000; -601.000
357.025;  645.600;  403.000;  389.000
357.157;  530.900; -167.000; -179.000
357.290;  450.400; -856.000; -713.000
357.423;   77.000; -667.000; -556.000
357.555;   60.300; -217.000; -228.000
357.688;   27.000; -483.000; -364.000
357.820;  258.200; -870.000; -877.000
357.953; 3298.800; -563.000; -589.000
358.085;  606.800; -632.000; -612.000
358.218;  894.900;-1131.000; -932.000
358.350;  167.200;  -58.000;  312.000
358.483; -305.600;-1300.000;-1187.000
358.615; -199.800;-1182.000;-1078.000
358.747; -245.800;-1187.000;-1058.000
358.880;  -96.300; -810.000; -744.000
359.012;  -60.900; -376.000; -202.000
359.145; -140.200; -480.000; -511.000
359.277; -113.600; -962.000; -913.000
359.409; 2869.300;  536.000;  231.000
359.542;  625.800; -738.000; -688.000
359.674;   69.400;   46.000;   13.000
359.806; -102.800; -565.000; -438.000
359.939; -125.800; -617.000; -516.000
360.071;  -88.900; -583.000; -579.000
360.203;  -71.100; -411.000; -364.000
360.335;   66.800;  164.000;  -16.000
360.468;  127.100; -249.000; -307.000
360.600; 2125.600; -547.000; -454.000
360.732; 2228.100; -546.000; -423.000
360.864;  128.300;-1216.000;-1044.000
360.996;  162.100; -516.000; -554.000
361.129;   -4.900; -389.000; -598.000
361.261;    4.700;  110.000; -113.000
361.393;  -31.600; -252.000; -214.000
361.525;   43.000;   94.000;  244.000
361.657; -141.400; -821.000; -703.000
361.789;  -11.000; -139.000; -155.000
361.921;  106.300; -642.000; -593.000
362.053;  295.100;  524.000;  541.000
362.185;   67.300;  288.000;   72.000
362.318; -203.700; -709.000; -705.000
362.450;  191.400;  294.000;  444.000
362.582;  -46.500; -913.000; -870.000
362.714;  -78.500; -353.000; -332.000
362.846; -155.700; -606.000; -490.000
362.978; -290.300; -941.000; -811.000
363.109;   10.200; -161.000; -260.000
363.241;  284.800; -739.000; -749.000
363.373;  207.100; -649.000; -564.000
363.505;  529.700; -186.000;  -91.000
363.637;    7.600; -787.000; -601.000
363.769; -280.600;-1067.000;-1080.000
363.901; -181.400; -596.000; -654.000
364.033; -288.800;-1103.000;-1062.000
364.165;  -55.500; -283.000; -283.000
364.296;    9.100; -316.000; -177.000
364.428; -150.400;-1344.000;-1220.000
364.560; -159.300; -679.000; -661.000
364.692; -178.900; -738.000; -835.000
364.824;  154.700; -588.000; -456.000
364.955;  289.600; -402.000; -564.000
365.087;  547.900;-1097.000; -852.000
365.219; -153.500; -686.000; -816.000
365.351; -160.900; -526.000; -572.000
365.482;   90.900;  300.000;  240.000
365.614; -117.400; -402.000; -314.000
365.746; -199.800; -729.000; -752.000
365.877; -212.200; -706.000; -672.000
366.009;  213.400;  -35.000;  -62.000
366.141; -267.500;-1249.000;-1134.000
366.272; -210.700; -803.000; -719.000
366.404; -238.900;-1005.000; -874.000
366.535;  -17.300; -139.000;  -12.000
366.667; -198.300; -644.000; -649.000
366.799;  102.200;  353.000;  203.000
366.930; -266.800; -862.000; -996.000
367.062;    5.000; -639.000; -613.000
367.193;  -38.700; -872.000; -842.000
367.325; -152.700; -580.000; -684.000
367.456;   31.600; -246.000;   31.000
367.588;   71.300; -371.000; -318.000
367.719;   24.700;  -44.000;  -45.000
367.851;  -61.400; -222.000; -241.000
367.982; -165.000; -875.000; -732.000
368.113;   20.100; -475.000; -358.000
368.245; -273.900; -960.000; -841.000
368.376;  -22.300; -254.000; -302.000
368.508;  -44.500; -188.000; -263.000
368.639; -293.400;-1166.000;-1034.000
368.770;  -93.700; -670.000; -589.000
368.902; -187.900; -836.000; -926.000
369.033; -251.700; -906.000; -855.000
369.164; -168.800; -720.000; -653.000
369.296; -181.700; -452.000; -601.000
369.427;  -27.300; -209.000; -144.000
369.558;  -98.800; -593.000; -377.000
369.689; -160.000; -721.000; -569.000
369.821; -253.300; -951.000; -845.000
369.952;    4.000;   42.000; -108.000
370.083; -101.700; -229.000; -108.000
370.214; -197.000; -735.000; -650.000
370.345;   -1.400;   65.000;   81.000
370.477; -218.100; -810.000; -790.000
370.608;  201.200; -328.000; -264.000
370.739; -258.700;-1233.000;-1292.000
370.870; -181.900;-1102.000; -923.000
371.001;   25.700; -378.000; -467.000
371.132; -125.100; -754.000; -735.000
371.263;  -38.800;  -42.000; -148.000
371.394; -265.000; -841.000; -748.000
371.525;   48.400;  345.000;  225.000
371.657; -208.400; -808.000; -670.000
371.788;   90.900;  103.000;  199.000
371.919;  112.500; -384.000; -304.000
372.050; 3522.000;  -91.000; -156.000
372.181; 1012.600; -188.000; -294.000
372.311;  338.100;   42.000; -127.000
372.442;  -19.400; -457.000; -451.000
372.573;  -65.200; -444.000; -340.000
372.704; -263.400;-1008.000; -980.000
372.835;   25.300; -228.000; -289.000
372.966; -157.100; -646.000; -554.000
373.097; -147.000; -575.000; -711.000
373.228; -143.800; -717.000; -542.000
373.359;   11.300; -824.000; -536.000
373.490;  764.600; -881.000; -727.000
373.620;  923.600;-1001.000; -803.000
373.751; 1645.400; -332.000; -396.000
373.882;  612.800; -663.000; -733.000
374.013;  -20.000; -449.000; -262.000
374.143; -136.600; -581.000; -659.000
374.274; -239.700; -987.000; -908.000
374.405;  120.600; -388.000; -276.000
374.536;  329.200; -526.000; -387.000
374.666;  937.800; -759.000; -807.000
374.797;   82.500; -817.000; -868.000
374.928;  738.900; -710.000; -560.000
375.058;  698.300; -535.000; -500.000
375.189;   46.500;  -59.000;  -93.000
375.320; -237.200; -928.000;-1034.000
375.450; -116.900; -625.000; -616.000
375.581;  -99.700; -526.000; -436.000
375.712;  -80.600; -574.000; -250.000
375.842;  261.300; -438.000; -415.000
375.973;   92.100; -554.000; -513.000
376.103; -125.700; -665.000; -648.000
376.234; -173.300; -531.000; -552.000
376.364; -168.000; -944.000; -867.000
376.495;  405.700;  925.000;  529.000
376.625;  -51.900; -472.000; -485.000
376.756;  -19.100; -709.000; -678.000
376.886; -200.400;-1178.000;-1026.000
377.017; -136.300;-1048.000;-1061.000
377.147;  124.300; -786.000; -782.000
377.278;   88.700;  174.000;  228.000
377.408; -255.800; -801.000; -815.000
377.538; -199.000; -707.000; -693.000
377.669; -174.100; -537.000; -613.000
377.799; -207.200; -645.000; -635.000
377.929; -148.300; -610.000; -428.000
378.060; -257.900; -781.000; -847.000
378.190; -168.300; -726.000; -531.000
378.320; -128.700; -401.000; -406.000
378.451;   -2.600; -131.000;  -22.000
378.581;   13.100;  -67.000; -110.000
378.711;  282.000; 1035.000;  866.000
378.841;  -95.500; -533.000; -675.000
378.972; -196.900; -871.000; -751.000
379.102;  -90.300; -652.000; -579.000
379.232;  -56.500; -126.000;  -73.000
379.362; -287.900;-1001.000; -885.000
379.492;  -52.400; -373.000; -424.000
379.623;  133.200;    0.000;  111.000
379.753; -248.500;-1107.000; -974.000
379.883;  153.100;   59.000;  156.000
380.013; -171.400;-1081.000;-1017.000
380.143; -293.200;-1097.000;-1056.000
380.273; -232.700; -985.000; -861.000
380.403;  -36.000; -344.000; -257.000
380.533; -148.200; -651.000; -664.000
380.663;   88.100;  173.000;  128.000
380.793; -283.100;-1027.000;-1074.000
380.923;  -32.500; -103.000;  -34.000
381.053; -186.500; -613.000; -623.000
381.183;  -62.900; -106.000; -248.000
381.313;  -59.900; -656.000; -470.000
381.443;  -37.100; -692.000; -473.000
381.573;  142.700; -402.000; -409.000
381.703;   48.400;-1249.000;-1095.000
381.833; -324.800;-1454.000;-1336.000
381.963;   87.200; -134.000;  -87.000
382.093; 1139.000; -925.000; -909.000
382.223;  256.500; -713.000; -602.000
382.353; -122.100; -801.000; -608.000
382.482;  247.600;-1091.000; -964.000
382.612;  585.400; -872.000; -644.000
382.742;  295.400; -695.000; -622.000
382.872;  148.400; -565.000; -551.000
383.002;   72.000;  347.000; -132.000
383.131;  -64.400; -226.000; -160.000
383.261; -168.500; -706.000; -768.000
383.391;  169.800; -552.000; -377.000
383.521; 2693.900;  451.000;  263.000
383.650;  408.900; -947.000; -904.000
383.780; -132.000; -783.000; -656.000
383.910;  228.600;  880.000;  802.000
384.039; -118.500; -794.000; -656.000
384.169;    6.800;-1205.000;-1017.000
384.299; -128.700; -650.000; -662.000
384.428; -189.000; -764.000; -680.000
384.558; -100.800; -308.000; -275.000
384.687;  -88.300; -414.000; -334.000
384.817;   15.600;   75.000;   -2.000
384.947;  -35.800; -234.000; -141.000
385.076;  449.600;  982.000;  912.000
385.206;  178.700;  369.000;  480.000
385.335; -109.300; -549.000; -417.000
385.465; -182.500; -655.000; -663.000
385.594;  146.200;  -53.000;  -44.000
385.724;  283.000; -868.000; -838.000
385.853;   82.700; -296.000; -270.000
385.982; 1239.000; -743.000; -787.000
386.112; 1826.400;-1052.000; -871.000
386.241;   73.200; -307.000; -312.000
386.371;   11.000; -174.000;  -87.000
386.500; -149.200; -825.000; -789.000
386.629; -126.300; -874.000; -817.000
386.759;   70.100;  -43.000;   68.000
386.888;  -15.900; -170.000; -250.000
387.017; -169.600; -648.000; -620.000
387.147; -193.400; -771.000; -798.000
387.276;  -77.900; -410.000; -397.000
387.405;  -40.900; -398.000; -342.000
387.535; -107.400; -452.000; -361.000
387.664; -173.300; -692.000; -620.000
387.793;   43.400; -198.000; -113.000
387.922;  537.000;  255.000;  200.000
388.052;  -61.900; -576.000; -423.000
388.181;  -28.200; -342.000; -472.000
388.310; -120.500; -889.000; -710.000
388.439; -178.400; -749.000; -742.000
388.568;  218.300;  365.000;  244.000
388.697;  909.300; -756.000; -653.000
388.826;   74.200; -768.000; -666.000
388.956;  -20.100; -285.000; -307.000
389.085; -107.900; -347.000; -287.000
389.214; -239.100; -842.000; -872.000
389.343; -144.400; -645.000; -413.000
389.472;  406.200;  126.000;  149.000
389.601;  445.900;   91.000;    0.000
389.730;  -89.800; -568.000; -687.000
389.859;   86.500;  226.000;   46.000
389.988;  128.000; -423.000; -408.000
390.117;  107.000; -168.000; -146.000
390.246;  -66.200; -331.000; -320.000
390.375;    1.400; -673.000; -626.000
390.504; -136.900; -703.000; -621.000
390.633; -214.100; -672.000; -726.000
390.761; -182.300; -732.000; -645.000
390.890;   16.800;   -4.000; -130.000
391.019;  -99.900; -421.000; -441.000
391.148; -248.900; -826.000; -855.000
391.277; -155.000; -576.000; -493.000
391.406; -209.300; -821.000; -805.000
391.534;   31.300;  574.000; -301.000
391.663; -143.200; -583.000; -645.000
391.792; -193.100; -673.000; -701.000
391.921;  102.600;   -3.000;   15.000
392.050;  151.800; -287.000; -228.000
392.178; -205.300;-1206.000;-1061.000
392.307;   36.600; -758.000; -712.000
392.436;  -33.200; -427.000; -641.000
392.564;   47.100;  166.000;   -6.000
392.693; -216.500; -860.000; -682.000
392.822;  138.800; -529.000; -534.000
392.950;  -34.600; -880.000; -714.000
393.079;  240.000; -188.000; -328.000
393.208;  -55.000; -488.000; -511.000
393.336;  -24.600; -170.000; -145.000
393.465;  -86.700; -317.000; -199.000
393.593;   26.600;   62.000;   79.000
393.722; -281.100;-1121.000; -916.000
393.850;  -62.500; -188.000;  -61.000
393.979; -316.800; -926.000; -805.000
394.107; -148.500; -517.000; -537.000
394.236;  -75.600; -570.000; -507.000
394.364;  317.300;  383.000;  206.000
394.493;  366.200; -911.000; -767.000
394.621; -154.100; -955.000; -916.000
394.750;  434.500; -873.000; -923.000
394.878; 2461.900; -247.000; -149.000
395.007; 3032.600; -721.000; -807.000
395.135;   55.900; -790.000; -721.000
395.263; -272.200;-1038.000;-1040.000
395.392;   17.100;  -25.000; -107.000
395.520; -260.900; -818.000; -679.000
395.648; -216.300; -865.000; -915.000
395.777; -103.100; -366.000; -405.000
395.905; -133.000; -449.000; -564.000
396.033;   45.800;  217.000;  172.000
396.162;  802.100; -399.000; -453.000
396.290;  700.100;  -17.000;   -2.000
396.418;    2.500; -555.000; -514.000
396.546; -163.700; -571.000; -466.000
396.674; -213.300; -850.000; -878.000
396.803;   -4.400;  -72.000;  -23.000
396.931;   69.700; -179.000; -199.000
397.059; -163.500;-1026.000; -989.000
397.187; -270.000;-1026.000; -975.000
397.315; -223.300; -884.000; -649.000
397.443; -196.000; -592.000; -443.000
397.572; -169.600; -578.000; -424.000
397.700;  -94.400; -607.000; -614.000
397.828;   65.900;  120.000;  -90.000
397.956; -123.100; -508.000; -478.000
398.084; -210.300; -767.000; -626.000
398.212;   73.600;  137.000;  124.000
398.340;   31.600;  -56.000;  159.000
398.468;   -3.000; -390.000; -169.000
398.596; -272.800; -993.000; -953.000
398.724; -247.800; -762.000; -767.000
398.852; -313.100;-1024.000; -976.000
398.980; -125.900; -560.000; -560.000
399.108; -145.100; -982.000; -735.000
399.236;   26.400;   13.000;    8.000
399.363;   56.200;  222.000;  196.000
399.491; -119.700; -404.000; -398.000
399.619; -214.500; -829.000; -800.000
399.747; -228.300; -859.000; -771.000
399.875;  130.200;  220.000;  234.000
400.003; -131.500; -359.000; -284.000
400.130; -118.400; -421.000; -341.000
400.258;  -13.200;  -83.000;   38.000
400.386;  -47.000; -352.000; -168.000
400.514; -145.600; -526.000; -587.000
400.641; -207.900; -928.000; -802.000
400.769; -292.800; -979.000; -888.000
400.897; -212.500; -838.000; -793.000
401.025;  -21.600; -166.000; -152.000
401.152;    8.900;  220.000;   38.000
401.280; -136.400; -430.000; -429.000
401.408; -219.000; -712.000; -576.000
401.535; -213.900; -735.000; -758.000
401.663; -384.500;-1134.000;-1054.000
401.790; -142.600; -514.000; -525.000
401.918;  119.900;  436.000;  405.000
402.046;  -17.400;  134.000;  122.000
402.173;  -19.900;  -18.000;    7.000
402.301; -131.100; -519.000; -397.000
402.428;  114.300;  528.000;  383.000
402.556; -306.000;-1188.000; -913.000
402.683;  -37.700;  -20.000;   -1.000
402.811;  -36.100;  -37.000; -206.000
402.938;   14.300;   20.000;   27.000
403.066;   58.300; -574.000; -558.000
403.193;  305.100;  299.000;  239.000
403.321;  171.700; -396.000; -574.000
403.448;  272.900;   83.000;   27.000
403.575;  105.900;  -90.000;  -46.000
403.703; -187.100; -732.000; -557.000
403.830; -109.400; -531.000; -496.000
403.957; -324.700;-1117.000;-1023.000
404.085;  -45.800;  -61.000; -172.000
404.212;  109.200;  -50.000;   63.000
404.339;  184.300; -566.000; -306.000
404.467; 4813.300; -612.000; -524.000
404.594; 3022.500; -287.000; -227.000
404.721;  573.200; -869.000; -764.000
404.848;   28.600; -113.000; -202.000
404.976; -247.500; -856.000; -783.000
405.103;  -11.100;  -14.000;  -82.000
405.230;   24.500;  190.000;  226.000
405.357;   50.000;  117.000;   44.000
405.484;  199.600;  -49.000;    5.000
405.612;  -31.300; -548.000; -563.000
405.739; -134.700; -488.000; -243.000
405.866;  177.700;  669.000;  385.000
405.993; -102.600; -398.000; -102.000
406.120; -274.300; -801.000; -887.000
406.247; -131.200; -323.000; -342.000
406.374;  531.100;  540.000;  629.000
406.501;  -45.000; -632.000; -702.000
406.628; -141.600; -621.000; -589.000
406.755; -189.000; -803.000; -620.000
406.882;  -64.000; -228.000; -277.000
407.009; -213.600; -719.000; -628.000
407.136;   18.500; -480.000; -401.000
407.263;  -26.100; -939.000; -829.000
407.390; -178.000; -692.000; -614.000
407.517; -338.300;-1139.000;-1187.000
407.644; -127.200; -332.000; -256.000
407.771; -168.800; -249.000; -287.000
407.898;   54.600;  168.000;  328.000
408.025; -127.300; -421.000; -313.000
408.151;    0.800;   82.000;  153.000
408.278; -132.100; -267.000; -216.000
408.405; -249.100; -931.000; -899.000
408.532; -158.100; -549.000; -542.000
408.659; -232.200; -677.000; -648.000
408.785; -398.500;-1298.000;-1170.000
408.912;  -87.900; -412.000; -296.000
409.039; -188.900; -610.000; -686.000
409.166; -177.400; -591.000; -555.000
409.292; -184.500; -571.000; -534.000
409.419; -188.300; -665.000; -649.000
409.546; -133.100; -431.000; -192.000
409.672; -206.100; -713.000; -545.000
409.799;   -2.000;  -36.000;   34.000
409.926;  -94.600; -180.000; -179.000
410.052; -341.300;-1127.000;-1091.000
410.179; -115.900; -368.000; -392.000
410.305; -123.200; -375.000; -493.000
410.432; -120.400; -220.000; -333.000
410.558; -141.000; -305.000; -380.000
410.685; -203.000; -688.000; -431.000
410.812; -158.700; -409.000; -588.000
410.938; -274.100; -964.000; -808.000
411.065; -168.100; -671.000; -645.000
411.191;  -64.700; -189.000; -174.000
411.317; -232.300; -823.000; -742.000
411.444; -119.800; -317.000; -246.000
411.570;  -97.600; -339.000; -294.000
411.697; -210.700; -758.000; -752.000
411.823; -329.100; -989.000; -999.000
411.949;  -46.800;  -56.000;   17.000
412.076; -202.400; -539.000; -519.000
412.202; -216.300; -758.000; -757.000
412.329; -251.900; -798.000; -752.000
412.455; -228.500; -821.000; -657.000
412.581;  -25.500;  -15.000;  172.000
412.707; -168.000; -540.000; -457.000
412.834;   41.200;  156.000;  219.000
412.960; -229.400; -785.000; -784.000
413.086; -209.400; -743.000; -701.000
413.212;  229.400;  604.000;  578.000
413.339; -183.700; -685.000; -701.000
413.465;  -66.100; -364.000; -310.000
413.591; -204.300; -757.000; -474.000
413.717; -114.600; -358.000; -366.000
413.843; -260.900; -839.000; -861.000
413.969; -112.900;  -47.000; -292.000
414.096; -210.600; -679.000; -679.000
414.222;    4.600;  -33.000;   85.000
414.348; -131.500; -652.000; -385.000
414.474;   62.900;   38.000;  -52.000
414.600;   -0.700; -126.000; -144.000
414.726;    2.700;  -96.000;  -55.000
414.852; -168.700; -365.000; -342.000
414.978;   23.300;  104.000;  -18.000
415.104;   61.300;   38.000;   80.000
415.230;  -48.800; -329.000; -330.000
415.356;  -73.800; -409.000; -514.000
415.482;  138.200;   13.000;  -35.000
415.608;  172.300; -247.000; -323.000
415.734;  805.800;   67.000;   38.000
415.860;17347.800; -875.000; -767.000
415.986;11244.500; -685.000; -607.000
416.111;  780.900; -798.000; -652.000
416.237;  121.600; -424.000; -571.000
416.363;  916.700; -765.000; -733.000
416.489; 3329.600; -324.000; -251.000
416.615;  161.600; -707.000; -742.000
416.741; -131.900; -677.000; -784.000
416.866; -194.600; -673.000; -736.000
416.992; -268.200; -801.000; -818.000
417.118;  -59.800;  -41.000;  -80.000
417.244; -189.000; -798.000; -531.000
417.369; -202.500; -801.000; -612.000
417.495;  -32.900; -325.000; -254.000
417.621; -236.400;-1015.000; -803.000
417.746;  -95.900; -579.000; -572.000
417.872;   -2.200; -254.000; -144.000
417.998;  -54.800; -515.000; -530.000
418.123;  766.500;-1073.000; -845.000
418.249; 4286.600; -512.000; -601.000
418.374;  359.700; -916.000; -824.000
418.500;  -12.100; -383.000; -482.000
418.626;   73.000;   70.000;  -59.000
418.751;   23.900; -549.000; -448.000
418.877;   51.300; -637.000; -643.000
419.002; 1520.100; -688.000; -560.000
419.128;10173.200; -930.000; -721.000
419.253; 2143.000; -967.000; -837.000
419.379;  205.600; -391.000; -338.000
419.504;  393.900;  325.000;  415.000
419.629;  344.000; -393.000; -212.000
419.755; 3195.500; -317.000; -254.000
419.880;17360.300;  -98.000;   67.000
420.006; 9724.100; -280.000; -221.000
420.131;23929.700; -662.000; -775.000
420.256; 3010.400; -315.000; -316.000
420.382;  301.800; -665.000; -687.000
420.507;  -85.500; -649.000; -778.000
420.632;   87.700; -337.000; -339.000
420.758;  193.500; -251.000; -425.000
420.883; -181.200; -876.000; -672.000
421.008; -218.500; -775.000; -619.000
421.133; -153.700; -509.000; -467.000
421.259; -104.700; -325.000; -259.000
421.384; -228.600; -834.000; -693.000
421.509; -154.100;-1052.000; -862.000
421.634;  982.000; -936.000; -820.000
421.759;  347.200; -359.000; -327.000
421.885; -150.900; -717.000; -656.000
422.010; -203.800; -673.000; -542.000
422.135; -257.700; -695.000; -727.000
422.260;   59.200;  340.000;  280.000
422.385;  -79.600;   12.000;  -98.000
422.510;   30.800;  151.000;  -26.000
422.635;   50.200;  -87.000;  -43.000
422.760;  -36.800; -766.000; -791.000
422.885;   57.200;  -57.000;  -80.000
423.010;  -57.600; -112.000; -169.000
423.135; -170.700; -481.000; -561.000
423.260;  -77.100; -150.000; -245.000
423.385;  113.300;  476.000;  222.000
423.510;   50.600;   71.000;  -22.000
423.635;  123.100;  133.000;   45.000
423.760;  131.700;  383.000;  328.000
423.885;   78.000;  336.000;  391.000
424.010;    7.200;  -68.000;  -13.000
424.135;  -45.500;    5.000;  -33.000
424.259; -186.100; -654.000; -457.000
424.384; -129.300; -279.000; -272.000
424.509;  -75.100; -260.000; -186.000
424.634; -230.200; -761.000; -623.000
424.759; -141.900; -688.000; -544.000
424.883; -117.900; -506.000; -527.000
425.008;   52.400; -502.000; -410.000
425.133; 1591.400; -679.000; -653.000
425.258;  594.600; -517.000; -381.000
425.382;  889.800; -867.000; -774.000
425.507; 2274.700; -487.000; -543.000
425.632;  227.600; -802.000; -663.000
425.756;  308.900; -256.000; -146.000
425.881; 5676.900; -831.000; -857.000
426.006;13928.800; -604.000; -355.000
426.130; 1890.700; -696.000; -508.000
426.255;  174.400; -611.000; -491.000
426.379;  114.200; -189.000; -577.000
426.504;  397.900;  660.000;  544.000
426.629; 3522.400; -519.000; -466.000
426.753; 2150.000;   64.000;  -46.000
426.878;  198.400; -252.000; -288.000
427.002;   69.600; -651.000; -668.000
427.127; 1458.300;  -35.000; -158.000
427.251; 9697.300;  372.000;  401.000
427.375; 2379.900; -191.000; -173.000
427.500; 2030.700; -616.000; -610.000
427.624;  640.400; -234.000; -400.000
427.749;   51.300; -216.000; -225.000
427.873; -126.100; -499.000; -412.000
427.997;  -78.400; -222.000; -230.000
428.122;  210.400;  795.000;  703.000
428.246;  134.000;  433.000;  434.000
428.371; -241.400; -869.000; -773.000
428.495; -210.400; -624.000; -646.000
428.619;  -38.600; -186.000; -117.000
428.743;   25.100;   65.000;  132.000
428.868;  -86.400; -732.000; -643.000
428.992; 1250.200; -219.000; -326.000
429.116;  427.000; -329.000; -357.000
429.240;  295.100;  419.000;  426.000
429.365; -113.200; -454.000; -574.000
429.489; -152.500; -638.000; -647.000
429.613;    2.500; -236.000; -177.000
429.737;  -78.500; -563.000; -432.000
429.861;  228.300; -247.000; -133.000
429.985; 4894.600; -425.000; -305.000
430.109; 4569.100; -770.000; -908.000
430.234;  566.500;   76.000;  -50.000
430.358;    4.900; -250.000; -160.000
430.482; -156.700; -672.000; -564.000
430.606; -149.800; -655.000; -375.000
430.730;  -54.500; -437.000; -388.000
430.854;  -12.100; -909.000; -835.000
430.978; -210.000; -795.000; -764.000
431.102; -151.200; -499.000; -422.000
431.226; -253.100; -874.000; -815.000
431.350;   62.800;  345.000;  422.000
431.474; -147.600; -661.000; -373.000
431.597; -306.000;-1060.000; -848.000
431.721; -130.300; -276.000; -267.000
431.845; -237.300; -704.000; -472.000
431.969; -120.800; -304.000; -349.000
432.093; -174.800; -395.000; -317.000
432.217;  -11.400;   32.000;   82.000
432.341; -180.600; -523.000; -518.000
432.464;   10.000;   96.000;   40.000
432.588;   93.400; -401.000; -329.000
432.712;   34.200;  -52.000;  -52.000
432.836;   60.200;  213.000;  263.000
432.959;  -83.300; -372.000; -311.000
433.083;   57.500;   11.000;    2.000
433.207;  434.100;  285.000;  930.000
433.330; 4437.500; -391.000; -200.000
433.454; 4787.100; -654.000; -638.000
433.578; 2975.000;  583.000;  278.000
433.701;  327.700; -623.000; -675.000
433.825;   52.300; -292.000; -299.000
433.949;  152.900;   28.000;  -72.000
434.072;    0.800; -410.000; -323.000
434.196;  -35.500; -309.000; -117.000
434.319; 8175.700;25482.000;25124.000
434.443;  616.200; -656.000; -603.000
434.566; 2265.900;  281.000;   62.000
434.690;  207.700; -637.000; -383.000
434.813;   11.500; -251.000; -173.000
434.937; -185.000; -569.000; -696.000
435.060; -104.600; -423.000; -332.000
435.184;  256.500; -492.000; -217.000
435.307;  138.600;  159.000;  102.000
435.431;    6.300;  -40.000;   24.000
435.554; -102.400; -399.000; -240.000
435.677; -166.400; -350.000; -258.000
435.801;  -37.100;  -25.000;   49.000
435.924;    2.600;    1.000;  -67.000
436.048; -268.000;-1019.000; -732.000
436.171; -116.100; -240.000;  -66.000
436.294;  -41.100; -248.000; -229.000
436.417; -127.900; -963.000; -849.000
436.541; -224.600; -814.000; -840.000
436.664;  -81.000; -242.000; -316.000
436.787;   -1.300;   13.000;  113.000
436.910; -235.700; -792.000; -422.000
437.034;   32.200;  142.000;  143.000
437.157;   40.500;  -11.000;    0.000
437.280; -132.200; -392.000; -292.000
437.403; -256.100; -982.000; -869.000
437.526;  545.700; -903.000; -865.000
437.649; 2074.400; -505.000; -332.000
437.772;  171.900; -692.000; -540.000
437.896;  206.500;  700.000;  544.000
438.019; -172.400; -758.000; -503.000
438.142; -157.800; -596.000; -506.000
438.265; -124.700; -639.000; -670.000
438.388;  412.300; -520.000; -410.000
438.511;  -23.600; -597.000; -394.000
438.634;  -95.500; -247.000; -125.000
438.757; -232.400; -693.000; -619.000
438.880;  -43.100;  -34.000;  -57.000
439.003; -135.300; -417.000; -437.000
439.126;  -89.200; -287.000; -167.000
439.248;  -99.500;  -98.000; -139.000
439.371;  -35.400;    9.000;  -53.000
439.494;  124.600;  510.000;  439.000
439.617;  -85.000;   65.000;  -88.000
439.740; -332.600; -968.000; -816.000
439.863; -253.100; -755.000; -595.000
439.986; -225.700; -476.000; -431.000
440.108; -101.000; -161.000; -112.000
440.231; -323.800; -950.000; -836.000
440.354;  -75.500;  -64.000; -150.000
440.477;  -92.800; -566.000; -542.000
440.599;  -93.700; -200.000; -225.000
440.722; -223.600; -709.000; -586.000
440.845;  189.600;  751.000;  928.000
440.968; -165.400; -415.000; -311.000
441.090; -102.200; -199.000;  -33.000
441.213; -292.800;-1021.000; -825.000
441.336;  -94.500; -159.000;   -5.000
441.458; -155.700; -549.000; -396.000
441.581; -176.800; -628.000; -629.000
441.703;  -91.000; -152.000;   13.000
441.826; -196.300; -557.000; -400.000
441.948;  -24.000;   56.000;   51.000
442.071;  127.200;  555.000;  424.000
442.193; -207.000; -531.000; -485.000
442.316;   35.000;  152.000;   97.000
442.438;   -1.400; -233.000;  -10.000
442.561;   97.400;  272.000;  262.000
442.683;  462.900; -809.000; -522.000
442.806; 1099.100;   -8.000;   74.000
442.928; -141.300; -859.000; -604.000
443.051; -131.700; -577.000; -373.000
443.173; -148.200; -341.000; -339.000
443.295; -170.000; -263.000; -371.000
443.418; -109.700; -321.000;  -29.000
443.540;  -49.300; -106.000;   -4.000
443.662; -215.500; -563.000; -465.000
443.785;   -0.500;  335.000;  199.000
443.907; -187.800; -362.000; -208.000
444.029; -230.800; -767.000; -494.000
444.152; -265.700; -644.000; -554.000
444.274;  -51.500;  -18.000;  -24.000
444.396; -190.700; -461.000; -221.000
444.518; -238.500; -691.000; -454.000
444.640; -162.600; -268.000; -111.000
444.763;   23.100;  388.000;  249.000
444.885; -185.900; -432.000; -392.000
445.007;  -17.500;   35.000;   86.000
445.129; -210.000; -610.000; -515.000
445.251; -175.100; -372.000; -439.000
445.373; -216.900; -537.000; -386.000
445.495;   56.400;  242.000;  350.000
445.617;  181.700;  853.000;  753.000
445.739; -126.100; -215.000;  -97.000
445.861;  -70.500; -245.000; -112.000
445.984;  -68.800; -267.000; -101.000
446.105;  169.400; -418.000; -251.000
446.227;  546.400; -176.000;  -19.000
446.349;  -98.900; -358.000; -249.000
446.471; -204.500; -615.000; -448.000
446.593; -110.100; -316.000;   19.000
446.715;  -58.200;  -67.000;   41.000
446.837;  183.200;  697.000;  832.000
446.959; -187.000; -457.000; -478.000
447.081; -223.700; -628.000; -518.000
447.203;  150.500;  862.000;  834.000
447.325; -142.100; -270.000;   42.000
447.446;   67.100;  286.000;  530.000
447.568; -293.600; -921.000; -803.000
447.690; -131.200; -236.000; -245.000
447.812; -251.900; -798.000; -519.000
447.933;  -45.500;  155.000;  127.000
448.055;  -95.800; -306.000; -261.000
448.177;  167.500;   31.000;   79.000
448.299;  -80.200; -935.000; -727.000
448.420;   13.300;  -25.000;  159.000
448.542;  -41.300;   -3.000;   33.000
448.664;  -38.600;  109.000;  322.000
448.785;  -44.700;  265.000;   83.000
448.907; -157.000; -614.000; -353.000
449.028; -107.500; -771.000; -471.000
449.150;  109.800;  492.000;  589.000
449.272; -359.100;-1044.000; -913.000
449.393;  106.600;  612.000;  694.000
449.515; -296.900; -634.000; -581.000
449.636;  -96.600; -264.000; -155.000
449.758;  142.900;  763.000;  622.000
449.879; -197.600; -498.000; -396.000
450.001; -102.300; -149.000;  -49.000
450.122;  -77.900;  -95.000;  162.000
450.244;   -4.900;   37.000;  364.000
450.365; -182.000; -495.000; -301.000
450.486;  -61.000;   80.000;  268.000
450.608;   29.400;  393.000;  326.000
450.729;  144.000;  578.000;  645.000
450.850; -104.900; -574.000; -466.000
450.972;  575.700; -552.000; -389.000
451.093; 4233.200;  190.000;  588.000
451.214; 1452.400; -516.000; -337.000
451.336;  411.100;  773.000;  579.000
451.457;   80.800;  264.000;  393.000
451.578;  -65.600; -118.000;  -74.000
451.699; -232.900; -546.000; -540.000
451.821; -126.400; -284.000;  -50.000
451.942;   38.500;  278.000;  285.000
452.063;   75.600;  228.000;  419.000
452.184;  465.900;  -54.000;  -49.000
452.305;  882.600;  103.000;  170.000
452.427;  -20.500; -549.000; -301.000
452.548;  -31.200;   23.000;   79.000
452.669; -102.500; -257.000;  -89.000
452.790;  -51.900;    3.000;  -18.000
452.911;   21.500;  195.000;  259.000
453.032; -133.800; -289.000;  -60.000
453.153;  -71.900;  -29.000;   81.000
453.274;  174.400;  737.000;  868.000
453.395;  -80.400;  -51.000;  175.000
453.516;  267.200; 1317.000; 1388.000
453.637; -105.700; -205.000; -150.000
453.758;  -76.900;   15.000;   69.000
453.879; -184.300; -462.000; -250.000
454.000;  200.700; 1086.000;  948.000
454.121; -196.600; -554.000; -326.000
454.242; -233.100; -599.000; -383.000
454.362;  -59.600;  -99.000;  114.000
454.483; -118.300; -309.000; -229.000
454.604;   72.500;  512.000;  580.000
454.725; -235.000; -627.000; -555.000
454.846; -197.100; -474.000; -406.000
454.967;  -26.200;  230.000;  539.000
455.087;  -44.500;  179.000;  153.000
455.208;   98.200;  554.000;  856.000
455.329;  -59.100;  -22.000;   82.000
455.450;   95.900;  473.000;  633.000
455.570; -144.700; -234.000; -211.000
455.691;  -22.400;  201.000;  407.000
455.812; -147.400; -270.000;  -92.000
455.932;  -81.200;  107.000;  -97.000
456.053; -109.400;   36.000;   24.000
456.173; -179.200; -433.000; -355.000
456.294; -213.100; -476.000; -303.000
456.415;  -98.600;  -73.000;   70.000
456.535;    7.100;  297.000;  273.000
456.656;  -58.900;  132.000;  240.000
456.776;  -86.500;    3.000;  298.000
456.897;   69.100;  308.000;  513.000
457.017; -134.700; -153.000;   -3.000
457.138; -194.000; -402.000; -249.000
457.258;  -32.400;  263.000;  224.000
457.379;   27.500;  509.000;  521.000
457.499;   14.600;  443.000;  432.000
457.620; -242.000; -407.000; -231.000
457.740; -134.500; -132.000;  -11.000
457.860; -103.400;   87.000;   44.000
457.981;  -50.700;  132.000;  124.000
458.101; -126.900;  -89.000;   40.000
458.221;  -18.500;  336.000;  402.000
458.342;  -73.200;   -4.000;  -37.000
458.462;   87.500;  617.000;  352.000
458.582; -134.600; -302.000; -294.000
458.703;  -20.000;  303.000;  154.000
458.823;  -42.500;   22.000;  163.000
458.943;   41.900;  341.000;  467.000
459.063;   -2.300; 1124.000;  192.000
459.183;  -47.100;  328.000;  313.000
459.304;   65.500;  315.000;  517.000
459.424; -115.300; -246.000;  -89.000
459.544;  351.700;  388.000;  764.000
459.664;  781.000;  499.000;  506.000
459.784;  351.600; 1004.000; 1175.000
459.904;  120.900;  867.000;  744.000
460.024;  170.500;  867.000;  684.000
460.144;   47.200;  449.000;  554.000
460.264;    4.700;  515.000;  327.000
460.385; -147.600; -145.000; -119.000
460.505;  127.900;  905.000;  858.000
460.625; -145.700;  -17.000;  -68.000
460.745;    5.900;  396.000;  541.000
460.864;  -71.900;  153.000;  469.000
460.984;   90.800;  499.000;  573.000
461.104;  340.000; 1656.000; 1775.000
461.224;   91.000;  657.000;  650.000
461.344;  -23.600;  431.000;  360.000
461.464;  -23.300;  258.000;  513.000
461.584;  -37.100;  283.000;  466.000
461.704;  -63.600;   58.000;  108.000
461.824;  -79.600;  238.000;  259.000
461.943;  -58.500;  191.000;  130.000
462.063; -101.200;    2.000;  324.000
462.183;   89.100;  639.000;  717.000
462.303;  245.700; 1678.000; 1230.000
462.422;  100.600;  781.000;  840.000
462.542;  -27.000;  271.000;  391.000
462.662;   52.000;  353.000;  380.000
462.782;  307.200;  833.000;  572.000
462.901;  431.300;  545.000;  717.000
463.021;  443.500; 1702.000; 1638.000
463.141;   22.200;  337.000;  770.000
463.260;   14.600;  614.000;  474.000
463.380;   54.600;  902.000;  884.000
463.499;    3.600;  342.000;  332.000
463.619;  -32.000;  581.000;  559.000
463.738;  283.300; 1644.000;  903.000
463.858;  101.200;  657.000;  811.000
463.978;    1.600;  542.000;  396.000
464.097;  173.000;  921.000; 1114.000
464.217;  238.300; 1196.000; 1143.000
464.336;  230.500; 1068.000; 1130.000
464.455;   -6.500;  328.000;  659.000
464.575;   81.700;  597.000;  602.000
464.694;  304.200; 1204.000; 1179.000
464.814;  194.600; 1190.000; 1138.000
464.933;  168.000; 1095.000; 1027.000
465.052;  221.100; 1412.000; 1054.000
465.172;  138.900;  922.000;  799.000
465.291;  244.200; 1376.000; 1320.000
465.410;   63.000;  462.000;  735.000
465.530;  210.000; 1355.000; 1310.000
465.649;  184.500; 1209.000; 1273.000
465.768;  297.300; 1673.000; 1508.000
465.888;  167.100;  941.000; 1174.000
466.007;  248.800; 1335.000; 1440.000
466.126;   94.000;  721.000;  641.000
466.245;  133.100; 1176.000; 1187.000
466.364;   93.500;  950.000; 1060.000
466.484;  168.300; 1024.000; 1213.000
466.603;  126.000; 1101.000; 1222.000
466.722;  270.000; 1490.000; 1769.000
466.841;  197.900; 1151.000; 1401.000
466.960;  153.000; 1069.000;  972.000
467.079;  328.500; 1971.000; 1786.000
467.198;  155.300; 1238.000; 1181.000
467.317;  240.500; 1768.000; 1162.000
467.436;  214.800; 1709.000; 1261.000
467.555;  294.900; 1796.000; 1746.000
467.674;  161.400; 1227.000; 1329.000
467.793;  161.900; 1376.000; 1374.000
467.912;  261.300; 1658.000; 1539.000
468.031;  343.900; 2038.000; 1930.000
468.150;  307.400; 1842.000; 1837.000
468.269;  405.300; 2313.000; 2090.000
468.388;  400.800; 2168.000; 2339.000
468.507;  598.900; 2884.000; 2903.000
468.626;  625.000; 2555.000; 2541.000
468.744;  326.900; 2018.000; 2174.000
468.863;  435.100; 2312.000; 2523.000
468.982;  226.300; 1503.000; 1555.000
469.101;  532.200; 2788.000; 2692.000
469.220;  378.900; 2333.000; 2176.000
469.338;  565.400; 2935.000; 3051.000
469.457;  461.200; 2719.000; 2545.000
469.576;  753.900; 3953.000; 3784.000
469.695;  536.300; 2877.000; 3066.000
469.813;  890.900; 4148.000; 4192.000
469.932;  873.500; 4255.000; 4485.000
470.051;  854.200; 4075.000; 4161.000
470.169; 1291.200; 4470.000; 4338.000
470.288; 1805.200; 4700.000; 4809.000
470.406; 1385.900; 5059.000; 5194.000
470.525; 1264.900; 6101.000; 5787.000
470.644; 1336.300; 6847.000; 6794.000
470.762; 1733.800; 8397.000; 7873.000
470.881; 1820.400; 8651.000; 8464.000
470.999; 2057.800; 9685.000; 9151.000
471.118; 2296.900;11174.000;10711.000

