
Integration time [ms]: 100.000
Averaging Nr. [scans]: 40
Smoothing Nr. [pixels]: 0
Data measured with spectrometer [name]: 2101012U2
Wave   ;Sample   ;Dark     ;Reference
[nm]   ;[counts] ;[counts] ;[counts] 

197.733;   62.425;  516.000;  404.000
197.879;  -83.925; -610.000; -634.000
198.025;  -29.375; -475.000; -420.000
198.171;  -67.150; -602.000; -612.000
198.317;  -19.300; -401.000; -316.000
198.463;  -71.700; -655.000; -404.000
198.609;   31.425;  181.000; -137.000
198.755;  -78.375; -644.000; -410.000
198.901;  -76.225; -505.000; -424.000
199.047;  -68.400; -615.000; -488.000
199.193;  -25.600; -230.000; -468.000
199.339;  -45.025; -222.000; -369.000
199.485;   32.225;  330.000;  271.000
199.631;   10.375;  227.000;  310.000
199.777;  -56.350; -466.000; -398.000
199.923;  -61.250; -610.000; -424.000
200.069;    1.175; -141.000;  -58.000
200.215;   59.050;  128.000;  453.000
200.361;   54.125;  243.000;  477.000
200.507;  -71.375; -600.000; -373.000
200.653;  -34.650; -371.000; -194.000
200.798;  -37.850; -215.000; -125.000
200.944;   -4.550; -146.000;  -41.000
201.090;   29.150;   61.000;  222.000
201.236;   -2.625; -116.000; -158.000
201.382;  130.050;  874.000;  903.000
201.528;    9.150;  -58.000;  -48.000
201.674;  -27.100; -386.000; -293.000
201.819;  -69.600; -540.000; -439.000
201.965;  -92.250; -699.000; -447.000
202.111;  -16.000; -273.000; -226.000
202.257;  -41.350; -250.000; -238.000
202.402;   11.750;   13.000;  -36.000
202.548;  -29.675; -169.000; -116.000
202.694;   91.250;  410.000; -183.000
202.840;  -58.800; -603.000; -531.000
202.985;  -75.800; -681.000; -639.000
203.131; -102.700; -832.000; -666.000
203.277;  -18.175; -199.000; -262.000
203.423;  -41.475; -434.000; -520.000
203.568;  -39.350; -462.000; -237.000
203.714;  -55.825; -535.000; -542.000
203.860;  -81.025; -682.000; -641.000
204.005;   12.900;  112.000;  167.000
204.151;   73.300;  561.000;  556.000
204.296;  -47.275; -354.000; -221.000
204.442;  -70.200; -600.000; -547.000
204.588;  -83.625; -592.000; -579.000
204.733;   24.125;  178.000;  168.000
204.879; -132.100;-1018.000; -822.000
205.025;   10.325;  -99.000;  126.000
205.170;  -18.175;  -17.000;   94.000
205.316;   78.525;  438.000;  661.000
205.461; -103.275; -698.000; -554.000
205.607;   81.675;  609.000;  665.000
205.752;  -73.400; -626.000; -551.000
205.898;  -44.675; -501.000; -391.000
206.043;  -67.775; -578.000; -506.000
206.189;  -42.850; -243.000; -285.000
206.334;   72.975;  554.000;  606.000
206.480;   84.450;  409.000;  239.000
206.625;  -83.500; -529.000; -552.000
206.771;  -35.425; -451.000; -373.000
206.916;  -39.175; -210.000; -537.000
207.062;  -68.825; -545.000; -591.000
207.207;  -61.225; -546.000; -443.000
207.353;   37.950;  185.000;  460.000
207.498;   24.325;  196.000;   85.000
207.643;  -49.125; -501.000; -370.000
207.789; -124.600;-1069.000; -910.000
207.934;  -84.475; -665.000; -713.000
208.080;  -18.725; -154.000;   66.000
208.225;   -9.225;  -22.000;  -57.000
208.370;  -83.125; -727.000; -619.000
208.516;  -64.800; -741.000; -487.000
208.661;  -27.775; -127.000;  -69.000
208.806;  -12.475; -165.000; -171.000
208.952; -123.650;-1044.000; -731.000
209.097;   75.375;  378.000;  349.000
209.242;  -46.575; -307.000; -382.000
209.387;   70.525;  392.000;  350.000
209.533;  -54.075; -321.000; -350.000
209.678;   78.600;  472.000;  543.000
209.823;  -44.875; -408.000; -310.000
209.969;  -91.675; -860.000; -757.000
210.114; -117.000; -907.000; -719.000
210.259; -102.600; -939.000; -889.000
210.404;  -11.375; -171.000;  103.000
210.549;   21.200;  108.000;    3.000
210.695;  -19.425;   -3.000;  -95.000
210.840;   39.475;   94.000;   67.000
210.985;  -65.825; -484.000; -303.000
211.130;   51.375;  268.000;  406.000
211.275;    8.325;  207.000;  199.000
211.420;  -52.300; -300.000; -289.000
211.566;  -52.225; -536.000; -489.000
211.711;   18.350;  218.000;  157.000
211.856;  -68.075; -545.000; -519.000
212.001;   17.825;  151.000;   44.000
212.146;   18.325;  153.000;   49.000
212.291;  -15.275; -210.000; -186.000
212.436;  -36.075; -280.000;   -6.000
212.581;  -79.900; -685.000; -653.000
212.726;  -71.325; -487.000; -538.000
212.871;  -48.250; -552.000; -217.000
213.016; -147.975;-1172.000;-1029.000
213.161;   63.925;  406.000;  291.000
213.306;  -76.775; -435.000; -577.000
213.451;  -93.400; -778.000; -689.000
213.596;  -53.275; -455.000; -347.000
213.741;  -44.825; -448.000; -538.000
213.886;  -78.850; -498.000; -517.000
214.031;  -30.425; -294.000; -124.000
214.176;  -60.500; -408.000; -341.000
214.321;   -4.275; -296.000; -157.000
214.466;  -34.825; -163.000;  -43.000
214.611;   -1.800;  -61.000;  -10.000
214.756; -123.425; -948.000; -858.000
214.901;  -18.950; -388.000; -226.000
215.046; -117.650; -797.000; -825.000
215.191;   15.575;  128.000;   35.000
215.336;  -31.000; -157.000;  -19.000
215.480;  -70.775; -684.000; -505.000
215.625;  -17.075; -175.000;  -19.000
215.770;  -84.000; -757.000; -662.000
215.915;   -6.875;   -5.000;  -97.000
216.060;   -0.150; -113.000;  -21.000
216.205; -106.500; -731.000; -779.000
216.349;  -68.775; -470.000; -533.000
216.494; -138.500; -939.000; -867.000
216.639; -114.950; -823.000; -888.000
216.784;  -82.225; -577.000; -525.000
216.929;   36.225;  392.000;  281.000
217.073;  -17.325; -244.000;  -31.000
217.218;   -3.125;   78.000;  -47.000
217.363;  -89.550; -656.000; -618.000
217.507;  -80.500; -623.000; -588.000
217.652; -139.575; -845.000; -874.000
217.797;  -85.825; -708.000; -659.000
217.942; -121.625; -856.000; -720.000
218.086;   70.000;  608.000;  539.000
218.231;  -21.825; -174.000;  -26.000
218.376;  -22.475; -337.000; -229.000
218.520;    2.175;  -41.000;   96.000
218.665;  -38.250; -338.000; -204.000
218.810;  -50.425; -275.000; -233.000
218.954;    4.625;  201.000;   35.000
219.099; -105.875; -713.000; -963.000
219.243;  -69.600; -589.000; -554.000
219.388;  -29.425; -264.000; -136.000
219.532;  -17.725; -116.000; -116.000
219.677;  -79.925; -564.000; -521.000
219.822;    7.725;   33.000;   89.000
219.966;   20.425;   17.000;  -99.000
220.111;  -25.750; -328.000;  -40.000
220.255;  -99.450; -797.000; -750.000
220.400;  -15.425; -180.000; -146.000
220.544;  -86.400; -516.000; -450.000
220.689;  -53.300; -422.000; -451.000
220.833;  -34.225; -123.000;  -58.000
220.978;  -29.500; -393.000; -563.000
221.122;   27.650;  319.000;  307.000
221.267; -127.300; -906.000; -837.000
221.411;  -74.125; -478.000; -394.000
221.555;   -1.975; -104.000;  -23.000
221.700;  -43.700; -329.000; -222.000
221.844;   47.600;  255.000;  272.000
221.989;  -45.225; -328.000; -311.000
222.133;  -34.175; -289.000; -307.000
222.277;   -9.850;    5.000;   78.000
222.422;   11.250;  227.000;  113.000
222.566;  -41.075; -381.000; -214.000
222.711;  -42.275; -414.000; -479.000
222.855;  -88.450; -643.000; -586.000
222.999;  -75.525; -642.000; -717.000
223.144;  -26.875; -195.000; -194.000
223.288;   49.500;  423.000;  251.000
223.432;   23.750;  184.000;  230.000
223.576;   18.125;  152.000;  -21.000
223.721;   44.825;  364.000;  273.000
223.865;  -56.375; -472.000; -475.000
224.009;  212.475; 1673.000; 1631.000
224.153;  -73.675; -660.000; -671.000
224.298;  -75.425; -531.000; -489.000
224.442;  -14.600;  -74.000;  -33.000
224.586;  -15.900; -169.000; -106.000
224.730;  -90.650; -858.000; -670.000
224.875; -113.075; -739.000; -688.000
225.019;   17.200;  102.000;  188.000
225.163;   54.325;  208.000;  341.000
225.307;   22.450;   97.000;  -91.000
225.451;   39.525;  360.000;  481.000
225.595;   36.500;  264.000;  176.000
225.739;  -21.075; -170.000;  -94.000
225.884;    5.650;   86.000;    5.000
226.028;  -97.675; -760.000; -626.000
226.172;  -36.925; -260.000; -273.000
226.316; -121.525; -941.000; -902.000
226.460;  -74.675; -645.000; -493.000
226.604;  -41.900; -406.000; -400.000
226.748; -106.575; -836.000; -733.000
226.892;  -26.200; -227.000; -181.000
227.036;  -48.950; -537.000; -447.000
227.180;  -62.825; -551.000; -375.000
227.324;  -73.475; -561.000; -580.000
227.468; -113.725; -819.000; -717.000
227.612;   17.500;  242.000;  -28.000
227.756; -103.300; -845.000; -698.000
227.900;   46.000;  342.000;  441.000
228.044;  -57.000; -509.000; -290.000
228.188;   52.675;  448.000;  568.000
228.332;  -81.650; -546.000; -472.000
228.476;  -30.150; -223.000; -149.000
228.620;  -29.550; -210.000; -150.000
228.764;   66.150;  431.000;  349.000
228.908;   -3.050; -155.000;   30.000
229.052;  -67.800; -615.000; -528.000
229.195;  -12.350; -172.000;   13.000
229.339;  -30.325; -235.000; -305.000
229.483;  -20.950;    5.000; -162.000
229.627;   -6.975; -156.000;  139.000
229.771;  -47.550; -218.000; -294.000
229.915;   11.275;  230.000;   79.000
230.059;  -99.100; -648.000; -663.000
230.202;  -35.825; -370.000; -317.000
230.346;  -21.375; -107.000;  107.000
230.490;  -75.000; -489.000; -521.000
230.634; -119.050; -736.000; -553.000
230.777;   80.800;  478.000;  509.000
230.921;  -57.400; -450.000; -359.000
231.065;  -43.150; -246.000; -286.000
231.209;   19.025;  261.000;  265.000
231.352;   20.900;   54.000;   40.000
231.496;   22.275;  568.000;  188.000
231.640;  -76.025; -693.000; -621.000
231.783;   38.700;  546.000;  525.000
231.927;  -40.775; -294.000; -365.000
232.071; -129.675; -962.000; -736.000
232.214; -120.225; -980.000; -764.000
232.358; -104.125; -683.000; -599.000
232.502;    4.550;  -19.000;    7.000
232.645; -142.475;-1090.000; -927.000
232.789;  -29.300; -257.000; -218.000
232.933;  -48.500; -407.000; -224.000
233.076; -132.800;-1038.000; -897.000
233.220; -104.350; -752.000; -777.000
233.363;  -96.050; -669.000; -477.000
233.507;   54.875;  371.000;  129.000
233.650;  -94.925; -764.000; -834.000
233.794;   45.150;  438.000;  461.000
233.938;  -57.750; -530.000; -362.000
234.081;  -31.475;  -93.000;   31.000
234.225;  -61.375; -631.000; -539.000
234.368; -105.850; -773.000; -723.000
234.512;  -34.725; -385.000; -299.000
234.655;  -95.000; -582.000; -555.000
234.798;  -73.325; -493.000; -466.000
234.942; -128.375; -884.000;-1002.000
235.085;  -71.825; -651.000; -443.000
235.229;  -78.925; -405.000; -410.000
235.372;  -38.200; -247.000; -191.000
235.516;  -71.975; -397.000; -321.000
235.659;   28.850;   92.000;  121.000
235.802;  -30.675;  -38.000;  -22.000
235.946;   24.850;  335.000;  215.000
236.089;   24.925;  126.000;  250.000
236.233;   47.450;  275.000;  298.000
236.376;  -58.075; -235.000; -378.000
236.519;  -49.425; -297.000; -319.000
236.663;  -29.650; -215.000; -117.000
236.806; -139.150;-1029.000; -999.000
236.949;   53.925;  543.000;  431.000
237.092;   63.850;  412.000;  391.000
237.236;  -95.725; -589.000; -502.000
237.379;   63.100;  352.000;  428.000
237.522; -114.075; -879.000; -768.000
237.666;  -18.425; -271.000;   18.000
237.809; -124.300; -851.000; -823.000
237.952;   32.700;  469.000;  271.000
238.095;  -53.775; -447.000; -442.000
238.238;   80.450;  688.000;  700.000
238.382;   -5.225;  166.000;  103.000
238.525;  -65.800; -598.000; -511.000
238.668; -144.525;-1060.000; -985.000
238.811;  -93.950; -638.000; -643.000
238.954;  -65.100; -483.000; -334.000
239.097;   97.400;  617.000;  664.000
239.241;   15.750;  394.000;  326.000
239.384;  -25.700; -254.000; -214.000
239.527;  -65.800; -424.000; -224.000
239.670; -137.975; -994.000;-1091.000
239.813; -106.375; -696.000; -658.000
239.956;   73.950;  579.000;  473.000
240.099; -106.325; -778.000; -725.000
240.242;   64.475;  428.000;  432.000
240.385;   55.800;  466.000;  450.000
240.528;  -77.300; -706.000; -473.000
240.671;    6.650;  189.000;  134.000
240.814;  -50.225; -441.000; -158.000
240.957; -102.675; -767.000; -578.000
241.100;  -83.600; -779.000; -755.000
241.243; -143.175;-1234.000; -893.000
241.386;  -47.125; -508.000; -379.000
241.529;  -91.050; -735.000; -547.000
241.672;  -57.350; -566.000; -495.000
241.815; -128.400; -832.000; -808.000
241.958;  -33.200; -125.000; -182.000
242.101;  -82.375; -545.000; -390.000
242.244;  -37.850; -270.000; -325.000
242.387;  -32.875; -304.000; -246.000
242.530;   56.675;  470.000;  134.000
242.673;  -45.575; -381.000; -309.000
242.815; -114.850; -925.000; -899.000
242.958;  -67.100; -482.000; -381.000
243.101;   18.475;  132.000;  187.000
243.244;  -77.525; -564.000; -521.000
243.387;  -48.725; -313.000; -316.000
243.530;  -97.225; -657.000; -674.000
243.672;    2.450;   43.000;  -92.000
243.815;  -48.650; -355.000; -283.000
243.958;   -3.350;   98.000;  -26.000
244.101;   -4.900;   59.000;  -16.000
244.243;  -13.975;  -47.000;  101.000
244.386; -115.375; -761.000; -630.000
244.529;  -31.075; -132.000; -139.000
244.672; -158.775;-1154.000; -951.000
244.814;  -88.150; -621.000; -794.000
244.957;  -54.550; -380.000; -304.000
245.100;  -79.975; -489.000; -489.000
245.242;  -57.800; -387.000; -374.000
245.385;   -8.075;  -59.000;  -39.000
245.528; -132.100; -871.000; -705.000
245.670;   89.225;  612.000;  634.000
245.813;  -92.250; -599.000; -547.000
245.956;  -29.800; -324.000; -275.000
246.098;  -75.500; -508.000; -650.000
246.241;    1.525;  194.000;   48.000
246.383;  -21.300; -119.000;  -73.000
246.526;  -80.650; -454.000; -525.000
246.669; -125.025; -889.000; -780.000
246.811;   22.150;  172.000;   -1.000
246.954;  -64.800; -512.000; -426.000
247.096;  -18.800;  -84.000;   -6.000
247.239;  -77.975; -482.000; -445.000
247.381;  -69.900; -647.000; -488.000
247.524;   80.450;  645.000;  679.000
247.666;  -17.100;   58.000;   11.000
247.809; -121.375; -887.000; -691.000
247.951;   -0.950;  -75.000;  138.000
248.094;   26.600;  432.000;  308.000
248.236; -156.075;-1262.000;-1238.000
248.378;    2.775; -356.000;  -81.000
248.521;  -11.100; -334.000; -337.000
248.663;  -48.100; -236.000; -267.000
248.806;  -21.550; -300.000; -266.000
248.948; -102.200; -886.000; -763.000
249.090;  -35.025; -428.000; -398.000
249.233;  -49.400; -344.000; -381.000
249.375;  -65.800; -474.000; -451.000
249.518;  -25.825;  -83.000; -133.000
249.660;    1.475; -103.000;    3.000
249.802; -164.475;-1303.000;-1189.000
249.945;  -80.625; -612.000; -540.000
250.087; -118.275; -834.000; -768.000
250.229;  -46.800; -362.000; -480.000
250.371;  -64.950; -494.000; -439.000
250.514;  -49.875; -310.000; -244.000
250.656;  -23.225;   69.000;  102.000
250.798; -127.100; -849.000; -800.000
250.940;  -66.050; -322.000; -322.000
251.083;  -38.225; -335.000; -111.000
251.225;   54.675;  338.000;  310.000
251.367;  -42.625; -274.000; -373.000
251.509;  -26.100; -265.000; -210.000
251.651; -102.775; -731.000; -671.000
251.794;   47.200;  538.000;  632.000
251.936; -102.950; -821.000; -747.000
252.078;  -82.825; -540.000; -461.000
252.220;  -79.950; -645.000; -477.000
252.362;   67.775;  344.000;  462.000
252.504;  -70.275; -677.000; -584.000
252.646; -119.375; -875.000; -722.000
252.788;    0.050;   14.000; -128.000
252.931;  -49.600; -257.000; -253.000
253.073;  -48.575; -376.000; -317.000
253.215;    3.375;  141.000;  122.000
253.357;  -12.700;   82.000; -153.000
253.499;  -63.000; -374.000; -234.000
253.641;  -75.125; -749.000; -594.000
253.783;  -88.600; -609.000; -527.000
253.925;  -93.025; -586.000; -591.000
254.067; -111.800; -744.000; -667.000
254.209;  -32.275; -391.000; -259.000
254.351; -140.500; -865.000; -883.000
254.493;  -72.250; -441.000; -417.000
254.635; -139.750; -936.000; -818.000
254.777;  -76.025; -752.000; -687.000
254.918;  -72.250; -512.000; -430.000
255.060;  -52.525; -551.000; -395.000
255.202;  -62.575; -473.000; -261.000
255.344;  -70.875; -658.000; -455.000
255.486;  -85.550; -471.000; -406.000
255.628; -113.175; -780.000; -781.000
255.770;  -93.850; -676.000; -536.000
255.912;  -73.050; -559.000; -468.000
256.053;  -97.600; -730.000; -508.000
256.195;  146.625; 1008.000;  903.000
256.337; -104.300; -861.000; -595.000
256.479;   59.075;  532.000;  416.000
256.621;  -52.000; -394.000; -212.000
256.762;  -93.425; -789.000; -742.000
256.904;   48.125;  485.000;  487.000
257.046;  -57.500; -381.000; -271.000
257.188;  -50.950; -351.000; -264.000
257.329;  -79.100; -525.000; -464.000
257.471; -116.350; -939.000; -807.000
257.613;  -69.775; -584.000; -498.000
257.755; -140.150;-1073.000; -982.000
257.896;   34.400;  286.000;  392.000
258.038;  -73.675; -403.000; -352.000
258.180;  -43.550; -354.000; -279.000
258.321;  -88.275; -581.000; -457.000
258.463;    0.600;  -71.000;  133.000
258.605;  -99.250; -562.000; -570.000
258.746; -105.675; -886.000; -772.000
258.888; -143.200;-1026.000;-1020.000
259.029;   15.575;  121.000;   -8.000
259.171;  -98.450; -614.000; -550.000
259.313;   -3.300;  -49.000;  -47.000
259.454;  -78.825; -536.000; -414.000
259.596;  -41.550; -483.000; -390.000
259.737;  -79.500; -590.000; -474.000
259.879;   45.300;  217.000;  311.000
260.020;   80.275;  901.000;  636.000
260.162;  -37.675; -146.000; -253.000
260.303; -122.700; -768.000; -687.000
260.445;  -88.100; -609.000; -613.000
260.586;   24.725;  392.000;  157.000
260.728;  -39.050; -360.000; -248.000
260.869; -117.875; -350.000; -343.000
261.011;   86.275;  706.000;  537.000
261.152;  -59.025; -479.000; -319.000
261.293;  -61.375; -576.000; -595.000
261.435;  -44.900; -219.000; -184.000
261.576;  -44.750; -455.000; -325.000
261.718;   43.075;  420.000;  470.000
261.859; -128.075; -940.000; -949.000
262.000; -128.625; -951.000;-1016.000
262.142;  -16.000;  -52.000;  -60.000
262.283; -113.000; -808.000; -691.000
262.424;  -84.975; -666.000; -625.000
262.566; -161.225;-1161.000; -983.000
262.707; -113.775; -840.000; -830.000
262.848; -123.375; -769.000; -726.000
262.990;  -50.400; -362.000; -345.000
263.131;   75.750;  650.000;  681.000
263.272;   -4.200;  -61.000;  -41.000
263.413;  -89.425; -589.000; -561.000
263.555;  -69.700; -669.000; -143.000
263.696;  -82.575; -550.000; -641.000
263.837;  -58.025; -449.000; -551.000
263.978;  -16.050;   -5.000;  -77.000
264.119;  -43.575; -283.000; -264.000
264.261; -119.950; -847.000; -630.000
264.402;   -5.525;   33.000;   40.000
264.543;  -85.800; -509.000; -524.000
264.684;    6.950;   61.000;  -50.000
264.825;  -79.725; -816.000; -538.000
264.966;   -6.550;  -84.000;  -67.000
265.107; -115.750; -646.000; -670.000
265.248; -117.200; -825.000; -812.000
265.390;  -10.450;  152.000;   -9.000
265.531;  -34.025; -238.000; -107.000
265.672;  -87.100; -557.000; -630.000
265.813;   61.800;  563.000;  439.000
265.954; -152.025; -959.000; -940.000
266.095;   -9.750; -372.000; -322.000
266.236; -102.600; -686.000; -548.000
266.377;  -42.550; -243.000; -297.000
266.518;  -70.900; -619.000; -547.000
266.659;   19.375;  170.000;  268.000
266.800;   -5.600;   83.000;   85.000
266.941;  -78.525; -487.000; -478.000
267.082;   11.325;  354.000;   99.000
267.223;  -49.075; -344.000; -273.000
267.364; -124.000; -892.000; -686.000
267.504;  -19.550;    3.000;  135.000
267.645;  -11.250;  160.000;   67.000
267.786;  -29.425; -147.000;  -86.000
267.927;  -81.025; -473.000; -379.000
268.068;  -11.075; -186.000;  -61.000
268.209;  -44.125; -175.000; -413.000
268.350;  -57.000; -388.000; -532.000
268.490;  -84.475; -648.000; -521.000
268.631;   27.250;  127.000;  225.000
268.772; -109.225; -874.000; -647.000
268.913;  -44.775; -328.000; -476.000
269.054;  -19.075; -117.000;   12.000
269.194;  -42.925; -418.000; -402.000
269.335; -169.475;-1137.000;-1074.000
269.476;  -29.000;   33.000;  -35.000
269.617;  -57.875; -347.000; -392.000
269.757;  -95.700; -713.000; -646.000
269.898; -122.075; -856.000; -613.000
270.039;  -61.900; -415.000; -405.000
270.180; -139.325; -952.000; -816.000
270.320;  -29.550; -190.000; -250.000
270.461;  -48.000; -277.000; -249.000
270.602;  -26.800; -186.000; -156.000
270.742; -115.450; -868.000; -943.000
270.883;  -51.700; -442.000; -390.000
271.023;  -55.100; -358.000; -357.000
271.164;  -75.850; -607.000; -528.000
271.305; -109.575; -666.000; -654.000
271.445;  -95.100; -722.000; -683.000
271.586;  -73.475; -462.000; -283.000
271.726;  -56.600; -397.000; -322.000
271.867;  -81.050; -594.000; -534.000
272.008;  167.525; -473.000; -285.000
272.148;  114.300;  462.000;  468.000
272.289;   -0.625; -113.000; -181.000
272.429;   16.425;   19.000;  185.000
272.570;  -98.400; -633.000; -737.000
272.710; -104.575; -825.000; -775.000
272.851;  -27.400;  113.000; -130.000
272.991; -163.450;-1173.000;-1077.000
273.131;  -52.650; -419.000; -459.000
273.272; -108.450; -683.000; -723.000
273.412;   -4.950; -143.000;  -31.000
273.553;  -72.875; -488.000; -507.000
273.693;  133.950;  913.000;  858.000
273.834;  -92.775; -894.000; -692.000
273.974;  -81.675; -664.000; -615.000
274.114; -101.025; -772.000; -560.000
274.255;   81.825;  414.000;  373.000
274.395;   -8.350; -180.000; -125.000
274.535;   25.225;  199.000;  350.000
274.676;   19.700;  225.000;   94.000
274.816;    3.050;  110.000;   34.000
274.956;  -95.925; -624.000; -690.000
275.097;  -74.575;-1014.000; -922.000
275.237; -108.325; -913.000; -803.000
275.377; -100.450; -778.000; -689.000
275.517; -160.675; -878.000; -937.000
275.658;  -59.225; -590.000; -555.000
275.798;  -79.525; -606.000; -413.000
275.938;   21.600;  215.000;  323.000
276.078; -111.625; -626.000; -395.000
276.218;   -1.050;   99.000;  104.000
276.359; -143.025;-1026.000;-1024.000
276.499;  -68.475; -605.000; -446.000
276.639;  -37.250; -305.000; -151.000
276.779;  -56.225; -475.000; -357.000
276.919; -106.100; -783.000; -624.000
277.059;  -27.525; -261.000; -212.000
277.199;  -58.100; -357.000; -259.000
277.340;   39.525;  287.000;  175.000
277.480; -122.400; -840.000; -693.000
277.620;   22.575;  192.000;   16.000
277.760; -190.900;-1533.000;-1294.000
277.900;   -0.075;  113.000;   33.000
278.040;   13.675;  137.000;  159.000
278.180;   20.350;  270.000;  170.000
278.320;   -7.300;   21.000;   56.000
278.460;  -58.900; -443.000; -469.000
278.600;  -89.575; -708.000; -598.000
278.740;   57.275;  448.000;  224.000
278.880;  -84.350; -768.000; -791.000
279.020;  -12.750; -194.000; -144.000
279.160; -100.975; -672.000; -595.000
279.300; -129.700; -926.000; -873.000
279.440; -100.950; -709.000; -622.000
279.579;  -29.175;-1014.000; -929.000
279.719;  -47.725; -410.000; -394.000
279.859;   69.025;   -4.000;   41.000
279.999;   22.000; -208.000;  101.000
280.139;  -22.250; -435.000; -387.000
280.279;  -75.700; -708.000; -745.000
280.419;  -25.750; -229.000; -147.000
280.559;  -42.350; -259.000; -180.000
280.698;  -97.550; -790.000; -639.000
280.838; -109.150; -778.000; -800.000
280.978;  -86.300; -846.000; -790.000
281.118; -130.125; -811.000; -704.000
281.257;   -1.175;   24.000;    6.000
281.397; -128.950;-1094.000; -960.000
281.537; -102.050; -599.000; -712.000
281.677;  -21.250; -150.000; -101.000
281.816;  -84.200; -700.000; -630.000
281.956;  -35.125; -193.000; -257.000
282.096;  -62.900; -539.000; -396.000
282.235; -112.925; -672.000; -638.000
282.375;  -32.825; -243.000;  -98.000
282.515; -114.825; -715.000; -707.000
282.654;   20.275;   29.000;  106.000
282.794;   15.900;  388.000;  244.000
282.934;  -70.050; -530.000; -491.000
283.073; -136.300;-1030.000; -857.000
283.213;  -70.250; -460.000; -467.000
283.353;  -43.400; -408.000; -349.000
283.492;  -37.725; -264.000; -296.000
283.632;  -49.025; -254.000; -168.000
283.771; -104.075; -859.000; -730.000
283.911;  -66.875; -369.000; -260.000
284.050; -117.325; -794.000; -748.000
284.190; -163.050;-1229.000;-1096.000
284.329; -141.900;-1055.000; -964.000
284.469;  -71.675; -516.000; -591.000
284.608;  -63.250; -559.000; -598.000
284.748;  -83.150; -614.000; -570.000
284.887;  -13.975;  -87.000;  -20.000
285.027; -129.800; -844.000; -892.000
285.166;  -37.675; -192.000; -249.000
285.306;   -8.500; -116.000;  -33.000
285.445;  -52.675; -229.000; -343.000
285.584; -103.550; -630.000; -494.000
285.724;  -46.925; -282.000; -322.000
285.863; -123.750; -857.000; -507.000
286.002;  -49.900; -366.000; -276.000
286.142; -112.050; -715.000; -622.000
286.281;  -73.475; -525.000; -493.000
286.420;  -90.225; -554.000; -417.000
286.560;   86.000;  653.000;  623.000
286.699; -152.050; -958.000; -912.000
286.838;  -89.950; -590.000; -591.000
286.978;  -84.575; -533.000; -537.000
287.117; -144.525;-1085.000; -950.000
287.256;  -37.700; -228.000; -211.000
287.395;  -51.350; -197.000; -378.000
287.535;  -61.175; -370.000; -298.000
287.674;  -86.725; -509.000; -484.000
287.813;   53.525;  661.000;  533.000
287.952; -125.925;-1010.000; -871.000
288.091; -165.675;-1049.000; -915.000
288.231;   -9.550;   13.000;   15.000
288.370; -179.300;-1217.000;-1200.000
288.509;  -85.100; -728.000; -645.000
288.648;  -95.600; -770.000; -548.000
288.787;  -48.300; -243.000;  -87.000
288.926;  -84.100; -454.000; -475.000
289.065;  109.125;  859.000;  672.000
289.204;  -54.350; -377.000; -217.000
289.344;  -95.600; -791.000; -690.000
289.483;   34.600;  416.000;  304.000
289.622;  -36.025; -291.000; -149.000
289.761;  -22.450; -309.000; -166.000
289.900; -102.250; -785.000; -626.000
290.039;  -25.500;  -12.000;  -95.000
290.178;  -33.600; -274.000; -180.000
290.317;  -87.525; -618.000; -479.000
290.456;  -67.400; -463.000; -451.000
290.595; -148.625; -961.000; -833.000
290.734; -133.800; -904.000; -891.000
290.873;  -71.550; -456.000; -420.000
291.011; -119.675; -833.000; -843.000
291.150; -109.125; -770.000; -682.000
291.289;  -33.750; -343.000; -110.000
291.428;  -99.850; -599.000; -480.000
291.567;  -52.900; -370.000; -442.000
291.706;  -29.275;  109.000;  154.000
291.845;  -93.625; -597.000; -505.000
291.984; -172.975;-1234.000;-1061.000
292.122;   64.100;  602.000;  582.000
292.261;   35.875;  620.000;  463.000
292.400;   -2.725; -144.000;  211.000
292.539; -144.050; -959.000; -813.000
292.678;  -32.900; -325.000; -300.000
292.816; -166.075;-1136.000; -965.000
292.955;  -87.775; -844.000; -684.000
293.094;  -31.200; -173.000; -337.000
293.233;  -66.275; -556.000; -400.000
293.371;  -42.500; -225.000;  -84.000
293.510; -106.725; -866.000; -780.000
293.649; -130.050; -959.000; -924.000
293.787;  -66.850;-1083.000;-1012.000
293.926;  -19.275; -113.000;  -32.000
294.065;  -45.975; -379.000; -290.000
294.203;   28.800;  298.000;  406.000
294.342;   25.375;   74.000;  156.000
294.481; 6773.750;51180.000; -836.000
294.619;  -35.050; -425.000; -582.000
294.758; -161.200;-1230.000;-1137.000
294.896;   61.100; -125.000;    5.000
295.035; -144.350;-1040.000;-1006.000
295.174; -117.850;-1082.000; -954.000
295.312;  -48.975; -323.000; -203.000
295.451;  -18.425; -307.000; -428.000
295.589;  -71.475; -389.000; -518.000
295.728;    2.800; -292.000; -165.000
295.866;   -1.625;  -36.000;  -51.000
296.005;  -60.750; -584.000; -341.000
296.143;  -73.175; -558.000; -596.000
296.282; -111.875; -957.000; -881.000
296.420;  -72.950; -657.000; -557.000
296.559;  -83.600; -892.000; -633.000
296.697;    1.600; -847.000; -665.000
296.835;   25.975;-1141.000;-1002.000
296.974;   24.925;  -23.000;   39.000
297.112;    1.200; -443.000; -504.000
297.251;  -72.325; -815.000; -755.000
297.389;   46.675; -576.000; -438.000
297.527;   28.000; -145.000;  -83.000
297.666;  -63.375; -486.000; -438.000
297.804;  -76.850; -404.000; -264.000
297.942;  -10.525; -136.000; -161.000
298.081;  -31.875; -183.000;   63.000
298.219;   64.275;  -17.000;  -19.000
298.357;   45.250; -144.000;  -71.000
298.495;    4.650; -810.000; -812.000
298.634;   58.300;  245.000;  219.000
298.772;   25.400; -220.000; -338.000
298.910;  -52.225; -309.000; -182.000
299.048;   -9.100; -130.000; -153.000
299.187;  -35.200; -350.000; -250.000
299.325;   10.375;   52.000;  122.000
299.463;   18.425; -389.000; -299.000
299.601;   81.750; -327.000; -271.000
299.739; -109.500; -908.000; -883.000
299.877;  -89.950; -791.000; -703.000
300.016;  -49.600;-1095.000; -935.000
300.154;  128.775;  -19.000; -161.000
300.292;   14.925; -428.000; -348.000
300.430;   18.725; -408.000; -291.000
300.568; -118.425; -940.000; -874.000
300.706;  -60.625; -366.000; -469.000
300.844;  -91.800;-1108.000; -979.000
300.982;   89.950;  246.000;  282.000
301.120; -121.225; -965.000; -866.000
301.258;  -73.500; -812.000; -705.000
301.396;   17.000;  104.000;  -41.000
301.534;   54.250; -218.000; -293.000
301.672;  -33.800; -664.000; -521.000
301.810;   -2.475; -613.000; -545.000
301.948;  101.700;   53.000;  149.000
302.086;  548.475; -250.000;  -32.000
302.224;  815.875; -610.000; -585.000
302.362;   10.675; -558.000; -622.000
302.500;  -49.000; -923.000; -893.000
302.638;   76.575;  128.000;  245.000
302.776;  -15.300; -352.000; -408.000
302.913;   32.250;  447.000;  236.000
303.051;  -18.025;  -86.000;  -23.000
303.189;   35.750;   90.000;  118.000
303.327;  -49.550; -341.000; -256.000
303.465;  -94.400; -832.000; -588.000
303.603; -102.675; -805.000; -604.000
303.740;   90.625;  417.000;  241.000
303.878;   -4.100; -800.000; -759.000
304.016;  -96.550; -915.000; -790.000
304.154; -141.025;-1123.000;-1152.000
304.291;  -54.125; -505.000; -554.000
304.429;   -2.125;  102.000;   74.000
304.567; -130.850; -908.000; -893.000
304.705;  -61.525; -408.000; -515.000
304.842;   80.450; -616.000; -540.000
304.980;   41.325;  215.000;   35.000
305.118;   26.550; -367.000; -365.000
305.255;  -84.775; -945.000; -927.000
305.393;   44.600;  178.000;  239.000
305.531; -108.250;-1173.000; -956.000
305.668;  -70.875; -663.000; -582.000
305.806;  102.050; -358.000; -439.000
305.943;   75.575; -629.000; -637.000
306.081;   39.525; -378.000; -267.000
306.219; -109.775; -863.000; -748.000
306.356;   -0.875;  158.000;   27.000
306.494;  100.450;  981.000;  761.000
306.631;  -19.450;  -11.000;  -55.000
306.769;   -2.100; -613.000; -485.000
306.906;  -35.675; -284.000; -258.000
307.044;  -62.850; -473.000; -488.000
307.181;  -65.175; -410.000; -332.000
307.319;   -2.000;  112.000;   87.000
307.456; -179.050;-1191.000;-1153.000
307.594; -101.800; -980.000; -727.000
307.731;  -19.225; -371.000; -164.000
307.868;    6.850;  -15.000;   20.000
308.006; -140.450; -961.000; -847.000
308.143;  -80.400; -618.000; -330.000
308.281;  140.650;  -37.000; -254.000
308.418;  -23.650; -748.000; -640.000
308.555;  -93.575; -400.000; -250.000
308.693;  -79.825; -577.000; -573.000
308.830; -121.225; -712.000; -657.000
308.967;   -5.900; -215.000;  -95.000
309.105;  -55.575; -507.000; -396.000
309.242;   27.150; -468.000; -367.000
309.379;  249.175; -577.000; -655.000
309.517;  -81.750; -936.000; -948.000
309.654; -128.350; -910.000; -734.000
309.791;  -76.950; -662.000; -580.000
309.928; -127.250; -977.000; -914.000
310.065;  169.725;  819.000;  697.000
310.203;  -32.850; -825.000; -850.000
310.340;  -17.850; -465.000; -321.000
310.477;  -87.325; -412.000; -516.000
310.614;  -82.650; -383.000; -473.000
310.751;  -86.300; -427.000; -518.000
310.889;  -29.575;    1.000;   11.000
311.026; -166.475;-1161.000; -939.000
311.163;  -41.750; -386.000; -380.000
311.300;  -99.775; -512.000; -479.000
311.437;  -90.425; -658.000; -619.000
311.574; -175.050;-1226.000; -985.000
311.711;  -58.100; -595.000; -433.000
311.848;  -55.750; -380.000; -388.000
311.985;   -4.250;  270.000;   93.000
312.122; -126.375; -932.000; -762.000
312.259; -135.700; -941.000; -994.000
312.396;  -84.050; -508.000; -551.000
312.533;  -87.550; -812.000; -790.000
312.670; -134.325;-1070.000; -898.000
312.807;  -35.400; -352.000; -367.000
312.944;  -87.875; -513.000; -611.000
313.081;  -30.650; -150.000; -415.000
313.218; -110.925;-1111.000; -867.000
313.355;    0.725; -531.000; -449.000
313.492;   -8.325; -455.000; -292.000
313.629;  113.925;  815.000;  735.000
313.766; -162.725;-1176.000;-1008.000
313.902;  -26.675; -186.000;   21.000
314.039;  -56.300; -372.000; -289.000
314.176;   21.275;  286.000;  192.000
314.313;  -86.275; -569.000; -473.000
314.450;  -98.525; -788.000; -684.000
314.587;  -62.775; -468.000; -480.000
314.723;   -7.250;  -78.000;  130.000
314.860;   15.250;  318.000;  332.000
314.997;   31.675;  223.000;  142.000
315.134;  -44.300; -385.000; -368.000
315.270;  -37.825; -480.000; -496.000
315.407; -127.575;-1094.000; -967.000
315.544;  -67.000; -657.000; -538.000
315.681;  -90.900; -681.000; -565.000
315.817;   -3.075; -133.000; -176.000
315.954;   -7.700; -613.000; -392.000
316.091; -120.000;-1045.000;-1023.000
316.227;  -24.550;  -71.000; -179.000
316.364;    0.675;   23.000;    6.000
316.500;  -51.900; -113.000; -300.000
316.637;  -56.825; -181.000; -302.000
316.774;  -98.675; -625.000; -358.000
316.910;  -97.325; -598.000; -629.000
317.047;  -77.950; -487.000; -351.000
317.183;  -54.425; -435.000; -566.000
317.320;  -14.025; -367.000; -321.000
317.456;  -50.550; -733.000; -805.000
317.593;  -96.275; -598.000; -641.000
317.729;    3.700;  168.000;  -67.000
317.866; -220.900;-1434.000;-1285.000
318.002;  -93.975; -708.000; -948.000
318.139; -106.775; -883.000; -867.000
318.275; -116.700;-1003.000; -738.000
318.412;  -71.875; -517.000; -336.000
318.548;  -58.625; -751.000; -720.000
318.685; -112.650; -985.000; -888.000
318.821;  -95.625; -762.000; -735.000
318.957;  -14.725;   34.000;  -23.000
319.094;   27.425;  297.000;  154.000
319.230;  -88.900; -756.000; -742.000
319.367;   85.450; -471.000; -520.000
319.503;   39.275; -538.000; -436.000
319.639; -101.850; -877.000; -793.000
319.775;  -69.675; -750.000; -685.000
319.912;  -59.700; -424.000; -519.000
320.048;  -91.400;-1184.000;-1184.000
320.184;   68.625;   59.000;   70.000
320.321;  -61.825; -497.000; -467.000
320.457;   67.725;  475.000;  662.000
320.593;  -73.675; -375.000; -382.000
320.729; -109.450; -732.000; -734.000
320.866;  -85.025; -577.000; -635.000
321.002;  -88.825; -759.000; -809.000
321.138;  -23.600; -135.000; -211.000
321.274;   64.575; -148.000; -115.000
321.410;  -40.675; -585.000; -353.000
321.546;  -49.075;-1011.000; -911.000
321.683;   45.525;  400.000;  185.000
321.819;   -9.875;  -48.000; -117.000
321.955; -123.625; -743.000; -722.000
322.091;  -42.200; -585.000; -540.000
322.227;  -23.250; -382.000; -202.000
322.363;  -25.000; -320.000; -215.000
322.499;  -74.575; -343.000; -331.000
322.635;  131.375;  636.000;  443.000
322.771;   14.000; -139.000;   12.000
322.907;   70.650;  129.000;  327.000
323.043;  -32.575; -115.000; -206.000
323.179;  -46.875; -394.000; -363.000
323.315;   -4.900; -401.000; -371.000
323.451;   58.450; -328.000; -236.000
323.587;   46.425;  -60.000;  -77.000
323.723;   -8.200; -682.000; -601.000
323.859;  -31.625; -258.000;  -76.000
323.995;  -35.375; -467.000; -409.000
324.131; -126.575; -967.000; -892.000
324.267;  -53.625; -254.000; -276.000
324.402; -139.175; -960.000; -983.000
324.538;  -22.350; -279.000; -104.000
324.674;    7.025;  164.000;   77.000
324.810;   84.025;  226.000;  308.000
324.946;  -13.925; -810.000; -658.000
325.082;  -86.600; -568.000; -475.000
325.217;  -23.950;  -62.000;   16.000
325.353; -103.550; -764.000; -659.000
325.489;  -97.300; -540.000; -506.000
325.625;  -91.150; -579.000; -525.000
325.760;   52.875;  517.000;  376.000
325.896;  -36.750; -515.000; -702.000
326.032;  -66.075; -403.000; -352.000
326.168;  -79.050; -462.000; -369.000
326.303;  -67.675; -352.000; -461.000
326.439;  -32.450; -336.000; -276.000
326.575;  -11.725; -190.000;  -29.000
326.710;  -19.925; -156.000;  -30.000
326.846;  -17.500;  146.000;  103.000
326.982;  -84.025; -530.000; -548.000
327.117;  -75.900; -481.000; -442.000
327.253;  -97.625; -745.000; -742.000
327.388; -152.225;-1137.000;-1153.000
327.524;  -69.100; -811.000; -578.000
327.659;  -36.125;  -58.000;  -22.000
327.795;  -14.125;   69.000;   45.000
327.931;  -91.250; -723.000; -499.000
328.066;  -27.150; -417.000; -276.000
328.202;  -42.500;   12.000; -129.000
328.337;   88.150;  957.000;  713.000
328.473;   35.475;  -12.000;  -74.000
328.608;  -14.925; -256.000; -267.000
328.743;  -94.350; -799.000; -664.000
328.879;    8.675;  214.000;  114.000
329.014;  -34.400; -102.000; -122.000
329.150;  -95.100; -358.000; -483.000
329.285;  -74.500; -465.000; -466.000
329.421;  -70.150; -548.000; -246.000
329.556;  -40.300;  -36.000;   85.000
329.691; -106.075; -633.000; -615.000
329.827; -102.325; -626.000; -480.000
329.962;  -55.075;  131.000; -301.000
330.097;  -94.300; -673.000; -585.000
330.233;  -64.600; -410.000; -223.000
330.368; -139.275; -839.000; -628.000
330.503;  -21.575;    3.000;   98.000
330.638;   -3.675;  -93.000; -125.000
330.774;  -55.225; -609.000; -530.000
330.909;  -45.425; -434.000; -244.000
331.044; -101.700; -714.000; -708.000
331.179; -178.900;-1217.000;-1109.000
331.315;    5.475;   77.000;   20.000
331.450;    9.600;  157.000;  285.000
331.585;  -85.400; -805.000; -706.000
331.720;  -95.225; -510.000; -460.000
331.855;  -20.275;  -35.000; -102.000
331.990;  251.400;   62.000;  138.000
332.126;  119.975; -110.000;   71.000
332.261;  -27.150; -379.000; -265.000
332.396;   -6.225; -135.000; -242.000
332.531; -108.875;-1074.000;-1031.000
332.666;   23.300; -519.000; -363.000
332.801; -101.350; -726.000; -807.000
332.936;  -25.900; -192.000; -122.000
333.071; -161.950; -870.000; -817.000
333.206;   -7.700;  307.000;  379.000
333.341;   17.825;  344.000;  418.000
333.476; -102.250; -627.000; -623.000
333.611;  -44.950; -251.000; -173.000
333.746;  -59.325; -381.000; -464.000
333.881; -135.175; -973.000; -935.000
334.016; -139.650; -936.000; -917.000
334.151; -137.750; -746.000; -702.000
334.286;   12.775;  152.000;  186.000
334.421;  -29.575; -125.000; -178.000
334.556;  -98.125; -611.000; -567.000
334.690;  -99.325; -631.000; -577.000
334.825;   60.800;  381.000;   83.000
334.960;  -68.625; -285.000; -413.000
335.095;   -5.875;  135.000;  -91.000
335.230; -107.200; -722.000; -738.000
335.365; -147.600;-1084.000; -990.000
335.499; -152.625;-1108.000;-1037.000
335.634;    9.925;    9.000;  534.000
335.769; -116.400; -755.000; -720.000
335.904;  -66.450; -603.000; -561.000
336.038;  -73.875; -735.000; -657.000
336.173; -125.925;-1206.000;-1194.000
336.308;  -17.400; -116.000; -189.000
336.443;   13.175; -544.000; -634.000
336.577;  -87.425; -936.000; -787.000
336.712;   45.975;   -4.000;  -12.000
336.847;  -49.250; -724.000; -607.000
336.981;   53.875; -272.000; -208.000
337.116;  253.250;  615.000;  501.000
337.250;  126.725; -434.000; -421.000
337.385;  272.450; -297.000; -208.000
337.520;   87.050; -632.000; -603.000
337.654;  -45.175; -215.000; -126.000
337.789; -129.000; -989.000; -933.000
337.923;  -50.425; -104.000; -205.000
338.058; -106.875; -673.000; -738.000
338.192;  -57.675; -611.000; -488.000
338.327;  -15.150;  -18.000; -155.000
338.461;  -85.975; -299.000; -469.000
338.596; -103.650; -780.000; -638.000
338.730; -110.525; -767.000; -803.000
338.865;   83.300;  -46.000; -140.000
338.999;  -64.575; -846.000; -702.000
339.134;  -25.850; -634.000; -536.000
339.268;    0.275; -741.000; -603.000
339.403;  372.725; -740.000; -775.000
339.537;  120.575; -894.000; -820.000
339.671; -122.250; -829.000; -813.000
339.806;  -59.200; -556.000; -512.000
339.940;    1.925; -261.000; -235.000
340.074; -108.050; -685.000; -510.000
340.209;  -45.200; -351.000; -230.000
340.343; -101.600; -517.000; -573.000
340.477;  144.325;  998.000; 1036.000
340.612;  -44.425;-1033.000; -900.000
340.746;  134.725; -199.000; -243.000
340.880;  -78.600; -924.000; -785.000
341.014;  -20.875;  -45.000; -154.000
341.149; -128.400; -756.000; -718.000
341.283; -116.450; -839.000; -754.000
341.417; -115.225;-1124.000; -938.000
341.551;   92.350; -768.000; -708.000
341.685;  -51.750; -633.000; -611.000
341.820;  -48.900; -562.000; -493.000
341.954;  -51.450; -218.000; -349.000
342.088; -142.050;-1102.000;-1019.000
342.222;   36.800;  565.000;  618.000
342.356;  -69.175; -395.000; -335.000
342.490; -107.700; -880.000; -841.000
342.624;  -39.300; -339.000; -242.000
342.758;  -29.400; -364.000; -312.000
342.892;  -69.225; -710.000; -585.000
343.026;  -32.075;  -58.000; -116.000
343.160;  -61.075; -426.000; -376.000
343.294;  -90.300; -474.000; -337.000
343.428;  -36.400; -488.000; -448.000
343.562;  -37.000; -172.000;  -23.000
343.696;  -46.650; -385.000; -314.000
343.830;  -44.200; -362.000; -356.000
343.964;   14.075; -231.000; -168.000
344.098;  788.750;  199.000;   70.000
344.232;  661.575; -266.000; -127.000
344.366;   64.125; -567.000; -453.000
344.500;   33.475; -665.000; -744.000
344.634;   10.275; -324.000; -164.000
344.768;  -35.150; -531.000; -341.000
344.902;    4.175;  278.000;  256.000
345.035;  -83.425; -556.000; -496.000
345.169; -146.425; -933.000; -656.000
345.303;  -30.600; -308.000; -482.000
345.437;  -88.725; -826.000; -717.000
345.571;  -78.125; -675.000; -594.000
345.704;  -78.900; -309.000; -532.000
345.838;  -30.250; -331.000; -284.000
345.972;  -60.050; -543.000; -495.000
346.106;  151.500; -179.000; -190.000
346.239;  391.300; -312.000; -243.000
346.373;    0.150; -343.000; -302.000
346.507; -147.800; -950.000; -962.000
346.640;  115.825;  -30.000;   13.000
346.774;  -52.975; -650.000; -797.000
346.908;  -21.850; -138.000;  -11.000
347.041; -106.275; -646.000; -593.000
347.175;   -7.450;  259.000;   27.000
347.309;  -88.675; -698.000; -628.000
347.442; -106.600; -883.000; -732.000
347.576;  241.875;  670.000;  668.000
347.709;  142.950; -123.000;  -52.000
347.843; -100.125; -933.000; -825.000
347.976;   25.325;  235.000;  294.000
348.110; -180.000;-1268.000;-1186.000
348.243; -109.550; -679.000; -772.000
348.377;    2.475;  -26.000;   60.000
348.510;   52.825;  403.000;  540.000
348.644;  -49.625;  -37.000; -159.000
348.777;  -23.100;  180.000;  191.000
348.911;  -51.150; -142.000; -112.000
349.044;  135.375;  471.000;  448.000
349.178;  115.275;-1069.000;-1006.000
349.311;   97.275;  141.000;  255.000
349.444;  -19.225; -927.000; -813.000
349.578;  -33.150; -347.000; -200.000
349.711; -130.450; -959.000; -862.000
349.845;  -21.275; -661.000; -591.000
349.978; -161.425;-1224.000;-1137.000
350.111;  -98.350; -546.000; -612.000
350.244;  -92.350; -596.000; -700.000
350.378;  -29.800; -392.000; -393.000
350.511;  -79.200; -393.000; -426.000
350.644; -106.600; -808.000; -806.000
350.778;   -2.400;  168.000;  104.000
350.911;  -16.675;  134.000;  140.000
351.044;  -94.975; -685.000; -615.000
351.177;  -39.500; -321.000; -281.000
351.310;  -33.775;    3.000; -131.000
351.444;  -83.250; -888.000; -788.000
351.577;   90.550;  140.000;   90.000
351.710;   90.100;  593.000;  417.000
351.843;  -58.450; -165.000;  -77.000
351.976;   -9.175;  149.000;  -79.000
352.109;  -99.900; -621.000; -612.000
352.242;  -51.250; -464.000; -419.000
352.376;  -72.825; -580.000; -636.000
352.509;  113.350; -437.000; -356.000
352.642;  -23.600; -654.000; -604.000
352.775;   36.025; -141.000;  -98.000
352.908; -131.300; -933.000; -904.000
353.041;  -97.875; -814.000; -824.000
353.174;  -80.900; -551.000; -424.000
353.307;  -74.200; -753.000; -764.000
353.440;   45.475;  541.000;  453.000
353.573; -131.075; -957.000;-1008.000
353.706;  -67.825; -384.000; -558.000
353.839;  -25.300; -264.000; -220.000
353.971;  -85.050; -657.000; -512.000
354.104;  -94.125; -896.000; -835.000
354.237;  -53.675; -627.000; -662.000
354.370;  -92.850; -846.000; -879.000
354.503; -189.175;-1231.000;-1308.000
354.636;  -53.150; -529.000; -348.000
354.769; -146.475; -937.000; -860.000
354.902;  -18.000; -230.000; -139.000
355.034;  -39.725; -164.000; -220.000
355.167;  -15.725; -262.000; -162.000
355.300;  -97.075;-1061.000; -880.000
355.433;  982.725;  -71.000;  -14.000
355.565; 1537.225; -402.000; -384.000
355.698;  383.225; -356.000; -296.000
355.831;   -9.225; -882.000; -801.000
355.964;   52.650; -285.000; -170.000
356.096; -109.800; -856.000; -843.000
356.229;  -21.525; -523.000; -530.000
356.362;  316.625; -373.000; -266.000
356.494;  616.400; -229.000; -162.000
356.627;  430.650;  269.000;  377.000
356.760;  674.600;  120.000;   53.000
356.892; 1004.200; -286.000; -601.000
357.025;  578.525;  403.000;  389.000
357.157;  501.950; -167.000; -179.000
357.290;  720.075; -856.000; -713.000
357.423;  194.825; -667.000; -556.000
357.555;  102.450; -217.000; -228.000
357.688;  108.550; -483.000; -364.000
357.820;  384.300; -870.000; -877.000
357.953; 3395.900; -563.000; -589.000
358.085;  717.375; -632.000; -612.000
358.218;  871.150;-1131.000; -932.000
358.350;  156.375;  -58.000;  312.000
358.483; -147.725;-1300.000;-1187.000
358.615;  -48.975;-1182.000;-1078.000
358.747;  -96.875;-1187.000;-1058.000
358.880;    4.900; -810.000; -744.000
359.012;  -15.800; -376.000; -202.000
359.145;  -36.725; -480.000; -511.000
359.277;   21.800; -962.000; -913.000
359.409; 2832.825;  536.000;  231.000
359.542;  725.050; -738.000; -688.000
359.674;   55.900;   46.000;   13.000
359.806;  -69.575; -565.000; -438.000
359.939;  -55.550; -617.000; -516.000
360.071;  -13.675; -583.000; -579.000
360.203;  -39.250; -411.000; -364.000
360.335;   36.275;  164.000;  -16.000
360.468;  172.875; -249.000; -307.000
360.600; 2307.850; -547.000; -454.000
360.732; 2957.750; -546.000; -423.000
360.864;  406.425;-1216.000;-1044.000
360.996;  201.000; -516.000; -554.000
361.129;   20.375; -389.000; -598.000
361.261;   20.850;  110.000; -113.000
361.393;  -43.125; -252.000; -214.000
361.525;   12.900;   94.000;  244.000
361.657;  -61.475; -821.000; -703.000
361.789;    4.850; -139.000; -155.000
361.921;  153.050; -642.000; -593.000
362.053;  212.425;  524.000;  541.000
362.185;   32.275;  288.000;   72.000
362.318;  -85.100; -709.000; -705.000
362.450;  100.150;  294.000;  444.000
362.582;   28.475; -913.000; -870.000
362.714;  -46.625; -353.000; -332.000
362.846; -102.275; -606.000; -490.000
362.978; -153.550; -941.000; -811.000
363.109;   17.800; -161.000; -260.000
363.241;  346.000; -739.000; -749.000
363.373;  419.225; -649.000; -564.000
363.505;  697.075; -186.000;  -91.000
363.637;  140.400; -787.000; -601.000
363.769; -136.475;-1067.000;-1080.000
363.901;  -79.525; -596.000; -654.000
364.033; -144.000;-1103.000;-1062.000
364.165;  -13.300; -283.000; -283.000
364.296;   45.250; -316.000; -177.000
364.428;   68.450;-1344.000;-1220.000
364.560;  -70.200; -679.000; -661.000
364.692;  -78.200; -738.000; -835.000
364.824;  179.975; -588.000; -456.000
364.955;  422.775; -402.000; -564.000
365.087; 1020.700;-1097.000; -852.000
365.219;   21.875; -686.000; -816.000
365.351;  -80.850; -526.000; -572.000
365.482;   40.425;  300.000;  240.000
365.614;  -57.050; -402.000; -314.000
365.746; -107.500; -729.000; -752.000
365.877; -103.650; -706.000; -672.000
366.009;  262.500;  -35.000;  -62.000
366.141;  -82.500;-1249.000;-1134.000
366.272; -110.800; -803.000; -719.000
366.404; -125.250;-1005.000; -874.000
366.535;  -22.625; -139.000;  -12.000
366.667; -110.225; -644.000; -649.000
366.799;   16.825;  353.000;  203.000
366.930; -132.275; -862.000; -996.000
367.062;  119.200; -639.000; -613.000
367.193;  146.650; -872.000; -842.000
367.325;  -69.175; -580.000; -684.000
367.456;   11.525; -246.000;   31.000
367.588;  156.425; -371.000; -318.000
367.719;   12.750;  -44.000;  -45.000
367.851;  -28.650; -222.000; -241.000
367.982;  -66.825; -875.000; -732.000
368.113;   69.225; -475.000; -358.000
368.245; -133.100; -960.000; -841.000
368.376;  -34.300; -254.000; -302.000
368.508;  -35.200; -188.000; -263.000
368.639; -139.175;-1166.000;-1034.000
368.770;  -33.900; -670.000; -589.000
368.902;  -75.625; -836.000; -926.000
369.033; -102.875; -906.000; -855.000
369.164;  -51.875; -720.000; -653.000
369.296; -105.025; -452.000; -601.000
369.427;    1.200; -209.000; -144.000
369.558;  -61.800; -593.000; -377.000
369.689;  -96.150; -721.000; -569.000
369.821; -142.475; -951.000; -845.000
369.952;  -27.350;   42.000; -108.000
370.083;  -60.950; -229.000; -108.000
370.214;  -99.875; -735.000; -650.000
370.345;  -19.650;   65.000;   81.000
370.477;  -99.050; -810.000; -790.000
370.608;  176.600; -328.000; -264.000
370.739;  -79.000;-1233.000;-1292.000
370.870;  -61.725;-1102.000; -923.000
371.001;   59.650; -378.000; -467.000
371.132;  -84.325; -754.000; -735.000
371.263;  -33.650;  -42.000; -148.000
371.394; -153.600; -841.000; -748.000
371.525;    5.100;  345.000;  225.000
371.657;  -96.175; -808.000; -670.000
371.788;   64.300;  103.000;  199.000
371.919;  130.275; -384.000; -304.000
372.050; 3237.500;  -91.000; -156.000
372.181;  960.475; -188.000; -294.000
372.311;  321.550;   42.000; -127.000
372.442;   15.050; -457.000; -451.000
372.573;  -29.400; -444.000; -340.000
372.704; -137.600;-1008.000; -980.000
372.835;   49.975; -228.000; -289.000
372.966;  -75.025; -646.000; -554.000
373.097;  -88.275; -575.000; -711.000
373.228;  -69.175; -717.000; -542.000
373.359;   81.875; -824.000; -536.000
373.490;  766.600; -881.000; -727.000
373.620; 1008.075;-1001.000; -803.000
373.751; 1508.650; -332.000; -396.000
373.882;  685.375; -663.000; -733.000
374.013;   36.650; -449.000; -262.000
374.143;  -57.600; -581.000; -659.000
374.274; -117.675; -987.000; -908.000
374.405;  144.450; -388.000; -276.000
374.536;  352.400; -526.000; -387.000
374.666;  940.675; -759.000; -807.000
374.797;  175.650; -817.000; -868.000
374.928;  706.150; -710.000; -560.000
375.058;  745.400; -535.000; -500.000
375.189;   65.450;  -59.000;  -93.000
375.320; -117.525; -928.000;-1034.000
375.450;  -53.100; -625.000; -616.000
375.581;  -66.675; -526.000; -436.000
375.712;  -50.000; -574.000; -250.000
375.842;  225.850; -438.000; -415.000
375.973;  161.250; -554.000; -513.000
376.103;  -78.175; -665.000; -648.000
376.234;  -93.075; -531.000; -552.000
376.364;  -67.700; -944.000; -867.000
376.495;  282.275;  925.000;  529.000
376.625;  -24.750; -472.000; -485.000
376.756;   16.600; -709.000; -678.000
376.886;  -97.300;-1178.000;-1026.000
377.017;   53.725;-1048.000;-1061.000
377.147;  367.125; -786.000; -782.000
377.278;   48.675;  174.000;  228.000
377.408; -129.675; -801.000; -815.000
377.538; -101.575; -707.000; -693.000
377.669;  -95.325; -537.000; -613.000
377.799;  -98.525; -645.000; -635.000
377.929;  -80.800; -610.000; -428.000
378.060; -133.825; -781.000; -847.000
378.190;  -72.300; -726.000; -531.000
378.320;  -54.125; -401.000; -406.000
378.451;  -26.200; -131.000;  -22.000
378.581;  -30.050;  -67.000; -110.000
378.711;  125.425; 1035.000;  866.000
378.841;  -39.300; -533.000; -675.000
378.972; -102.300; -871.000; -751.000
379.102;  -27.150; -652.000; -579.000
379.232;  -44.075; -126.000;  -73.000
379.362; -123.525;-1001.000; -885.000
379.492;  -14.950; -373.000; -424.000
379.623;   93.425;    0.000;  111.000
379.753; -104.450;-1107.000; -974.000
379.883;  147.350;   59.000;  156.000
380.013;  -31.650;-1081.000;-1017.000
380.143; -118.500;-1097.000;-1056.000
380.273; -124.175; -985.000; -861.000
380.403;  -11.975; -344.000; -257.000
380.533;  -56.325; -651.000; -664.000
380.663;   51.725;  173.000;  128.000
380.793; -133.000;-1027.000;-1074.000
380.923;  -32.875; -103.000;  -34.000
381.053; -109.550; -613.000; -623.000
381.183;  -58.800; -106.000; -248.000
381.313;    3.900; -656.000; -470.000
381.443;   20.075; -692.000; -473.000
381.573;  115.425; -402.000; -409.000
381.703;  186.875;-1249.000;-1095.000
381.833; -160.525;-1454.000;-1336.000
381.963;   96.350; -134.000;  -87.000
382.093; 1205.100; -925.000; -909.000
382.223;  368.250; -713.000; -602.000
382.353;  -36.225; -801.000; -608.000
382.482;  286.275;-1091.000; -964.000
382.612;  681.750; -872.000; -644.000
382.742;  354.225; -695.000; -622.000
382.872;  180.950; -565.000; -551.000
383.002;   41.225;  347.000; -132.000
383.131;  -34.150; -226.000; -160.000
383.261;  -53.700; -706.000; -768.000
383.391;  265.400; -552.000; -377.000
383.521; 3399.375;  451.000;  263.000
383.650;  822.850; -947.000; -904.000
383.780;  -20.275; -783.000; -656.000
383.910;   91.200;  880.000;  802.000
384.039;  -19.875; -794.000; -656.000
384.169;  132.650;-1205.000;-1017.000
384.299;  -33.100; -650.000; -662.000
384.428; -117.200; -764.000; -680.000
384.558;  -60.600; -308.000; -275.000
384.687;  -67.375; -414.000; -334.000
384.817;   -1.100;   75.000;   -2.000
384.947;  -15.950; -234.000; -141.000
385.076;  241.400;  982.000;  912.000
385.206;   82.850;  369.000;  480.000
385.335;  -64.150; -549.000; -417.000
385.465; -106.925; -655.000; -663.000
385.594;   95.475;  -53.000;  -44.000
385.724;  322.700; -868.000; -838.000
385.853;   80.000; -296.000; -270.000
385.982; 1124.700; -743.000; -787.000
386.112; 1861.075;-1052.000; -871.000
386.241;  100.000; -307.000; -312.000
386.371;   -3.750; -174.000;  -87.000
386.500;  -39.625; -825.000; -789.000
386.629;    4.600; -874.000; -817.000
386.759;   52.850;  -43.000;   68.000
386.888;  -32.700; -170.000; -250.000
387.017;  -92.250; -648.000; -620.000
387.147; -102.425; -771.000; -798.000
387.276;  -25.250; -410.000; -397.000
387.405;    8.675; -398.000; -342.000
387.535;  -57.850; -452.000; -361.000
387.664;  -67.175; -692.000; -620.000
387.793;   35.875; -198.000; -113.000
387.922;  410.600;  255.000;  200.000
388.052;  -13.725; -576.000; -423.000
388.181;  -30.075; -342.000; -472.000
388.310;  -49.400; -889.000; -710.000
388.439;  -83.650; -749.000; -742.000
388.568;  141.125;  365.000;  244.000
388.697;  887.600; -756.000; -653.000
388.826;  159.850; -768.000; -666.000
388.956;   21.900; -285.000; -307.000
389.085;  -41.075; -347.000; -287.000
389.214; -108.475; -842.000; -872.000
389.343;  -95.825; -645.000; -413.000
389.472;  408.575;  126.000;  149.000
389.601;  495.525;   91.000;    0.000
389.730;   -2.050; -568.000; -687.000
389.859;   53.525;  226.000;   46.000
389.988;  134.050; -423.000; -408.000
390.117;  122.025; -168.000; -146.000
390.246;  -31.300; -331.000; -320.000
390.375;   33.900; -673.000; -626.000
390.504;  -69.050; -703.000; -621.000
390.633; -121.475; -672.000; -726.000
390.761;  -78.925; -732.000; -645.000
390.890;  -11.175;   -4.000; -130.000
391.019;  -45.075; -421.000; -441.000
391.148; -141.375; -826.000; -855.000
391.277;  -92.550; -576.000; -493.000
391.406; -103.225; -821.000; -805.000
391.534;   17.425;  574.000; -301.000
391.663;  -88.875; -583.000; -645.000
391.792; -104.850; -673.000; -701.000
391.921;   55.000;   -3.000;   15.000
392.050;  112.550; -287.000; -228.000
392.178;  -73.950;-1206.000;-1061.000
392.307;   99.975; -758.000; -712.000
392.436;   52.775; -427.000; -641.000
392.564;    6.900;  166.000;   -6.000
392.693; -115.175; -860.000; -682.000
392.822;  159.000; -529.000; -534.000
392.950;   58.400; -880.000; -714.000
393.079;  258.150; -188.000; -328.000
393.208;   -0.425; -488.000; -511.000
393.336;  -23.500; -170.000; -145.000
393.465;  -52.100; -317.000; -199.000
393.593;   -9.600;   62.000;   79.000
393.722; -157.000;-1121.000; -916.000
393.850;  -47.325; -188.000;  -61.000
393.979; -166.975; -926.000; -805.000
394.107;  -86.000; -517.000; -537.000
394.236;  -44.125; -570.000; -507.000
394.364;  164.375;  383.000;  206.000
394.493;  274.900; -911.000; -767.000
394.621;  -30.450; -955.000; -916.000
394.750;  732.500; -873.000; -923.000
394.878; 3047.100; -247.000; -149.000
395.007; 4179.125; -721.000; -807.000
395.135;  301.550; -790.000; -721.000
395.263;  -92.150;-1038.000;-1040.000
395.392;    0.375;  -25.000; -107.000
395.520; -160.275; -818.000; -679.000
395.648; -107.500; -865.000; -915.000
395.777;  -43.575; -366.000; -405.000
395.905;  -59.500; -449.000; -564.000
396.033;   -3.800;  217.000;  172.000
396.162;  451.425; -399.000; -453.000
396.290;  418.125;  -17.000;   -2.000
396.418;   50.450; -555.000; -514.000
396.546;  -94.975; -571.000; -466.000
396.674; -111.250; -850.000; -878.000
396.803;   -7.550;  -72.000;  -23.000
396.931;   52.075; -179.000; -199.000
397.059;   -0.225;-1026.000; -989.000
397.187; -121.025;-1026.000; -975.000
397.315; -137.225; -884.000; -649.000
397.443; -105.250; -592.000; -443.000
397.572; -101.650; -578.000; -424.000
397.700;  -41.475; -607.000; -614.000
397.828;   -4.950;  120.000;  -90.000
397.956;  -58.625; -508.000; -478.000
398.084;  -68.375; -767.000; -626.000
398.212;   17.625;  137.000;  124.000
398.340;   -1.300;  -56.000;  159.000
398.468;    1.425; -390.000; -169.000
398.596; -146.625; -993.000; -953.000
398.724; -127.400; -762.000; -767.000
398.852; -171.025;-1024.000; -976.000
398.980;  -67.425; -560.000; -560.000
399.108;  -79.700; -982.000; -735.000
399.236;    4.675;   13.000;    8.000
399.363;   -9.475;  222.000;  196.000
399.491;  -82.100; -404.000; -398.000
399.619; -153.175; -829.000; -800.000
399.747; -104.275; -859.000; -771.000
399.875;   48.900;  220.000;  234.000
400.003;  -61.200; -359.000; -284.000
400.130; -105.275; -421.000; -341.000
400.258;  -34.200;  -83.000;   38.000
400.386;  -74.250; -352.000; -168.000
400.514;  -61.075; -526.000; -587.000
400.641; -106.775; -928.000; -802.000
400.769; -133.950; -979.000; -888.000
400.897; -136.075; -838.000; -793.000
401.025;  -26.550; -166.000; -152.000
401.152;  -24.050;  220.000;   38.000
401.280;  -90.225; -430.000; -429.000
401.408; -131.275; -712.000; -576.000
401.535; -108.175; -735.000; -758.000
401.663; -206.625;-1134.000;-1054.000
401.790;  -85.725; -514.000; -525.000
401.918;   19.625;  436.000;  405.000
402.046;  -24.825;  134.000;  122.000
402.173;  -54.225;  -18.000;    7.000
402.301;  -89.075; -519.000; -397.000
402.428;   28.575;  528.000;  383.000
402.556; -169.675;-1188.000; -913.000
402.683;  -36.525;  -20.000;   -1.000
402.811;  -30.950;  -37.000; -206.000
402.938;  -32.725;   20.000;   27.000
403.066;  142.575; -574.000; -558.000
403.193;  276.375;  299.000;  239.000
403.321;  206.225; -396.000; -574.000
403.448;  270.350;   83.000;   27.000
403.575;  129.525;  -90.000;  -46.000
403.703; -105.475; -732.000; -557.000
403.830;  -65.800; -531.000; -496.000
403.957; -154.925;-1117.000;-1023.000
404.085;    6.175;  -61.000; -172.000
404.212;   68.950;  -50.000;   63.000
404.339;  262.350; -566.000; -306.000
404.467; 5966.475; -612.000; -524.000
404.594; 3849.125; -287.000; -227.000
404.721;  822.775; -869.000; -764.000
404.848;   81.025; -113.000; -202.000
404.976; -125.675; -856.000; -783.000
405.103;   -2.825;  -14.000;  -82.000
405.230;  -18.425;  190.000;  226.000
405.357;   24.525;  117.000;   44.000
405.484;  268.825;  -49.000;    5.000
405.612;   50.400; -548.000; -563.000
405.739;  -76.275; -488.000; -243.000
405.866;   72.525;  669.000;  385.000
405.993;  -47.550; -398.000; -102.000
406.120; -146.575; -801.000; -887.000
406.247;  -67.350; -323.000; -342.000
406.374;  351.575;  540.000;  629.000
406.501;   50.025; -632.000; -702.000
406.628;  -84.575; -621.000; -589.000
406.755; -113.325; -803.000; -620.000
406.882;  -42.425; -228.000; -277.000
407.009; -113.675; -719.000; -628.000
407.136;    9.550; -480.000; -401.000
407.263;   62.525; -939.000; -829.000
407.390;  -87.200; -692.000; -614.000
407.517; -192.900;-1139.000;-1187.000
407.644;  -63.275; -332.000; -256.000
407.771;  -79.125; -249.000; -287.000
407.898;    9.675;  168.000;  328.000
408.025;  -82.575; -421.000; -313.000
408.151;  -21.225;   82.000;  153.000
408.278;  -86.625; -267.000; -216.000
408.405; -130.600; -931.000; -899.000
408.532;  -86.575; -549.000; -542.000
408.659; -127.425; -677.000; -648.000
408.785; -208.375;-1298.000;-1170.000
408.912;  -81.025; -412.000; -296.000
409.039; -112.850; -610.000; -686.000
409.166; -115.000; -591.000; -555.000
409.292; -111.825; -571.000; -534.000
409.419; -120.600; -665.000; -649.000
409.546; -107.025; -431.000; -192.000
409.672; -120.475; -713.000; -545.000
409.799;  -24.125;  -36.000;   34.000
409.926;  -52.950; -180.000; -179.000
410.052; -185.125;-1127.000;-1091.000
410.179;  -72.700; -368.000; -392.000
410.305;  -92.675; -375.000; -493.000
410.432;  -51.125; -220.000; -333.000
410.558;  -97.450; -305.000; -380.000
410.685; -110.150; -688.000; -431.000
410.812; -109.975; -409.000; -588.000
410.938; -145.275; -964.000; -808.000
411.065; -118.575; -671.000; -645.000
411.191;  -43.150; -189.000; -174.000
411.317; -122.525; -823.000; -742.000
411.444;  -82.425; -317.000; -246.000
411.570;  -91.100; -339.000; -294.000
411.697; -142.675; -758.000; -752.000
411.823; -182.250; -989.000; -999.000
411.949;  -46.700;  -56.000;   17.000
412.076; -117.475; -539.000; -519.000
412.202; -134.175; -758.000; -757.000
412.329; -151.400; -798.000; -752.000
412.455; -123.825; -821.000; -657.000
412.581;  -28.300;  -15.000;  172.000
412.707;  -79.850; -540.000; -457.000
412.834;    9.775;  156.000;  219.000
412.960;  -87.300; -785.000; -784.000
413.086; -122.150; -743.000; -701.000
413.212;  115.125;  604.000;  578.000
413.339;  -82.625; -685.000; -701.000
413.465;  -23.200; -364.000; -310.000
413.591; -101.975; -757.000; -474.000
413.717;  -75.400; -358.000; -366.000
413.843; -171.200; -839.000; -861.000
413.969;  -61.550;  -47.000; -292.000
414.096;  -99.675; -679.000; -679.000
414.222;  -13.825;  -33.000;   85.000
414.348;  -46.475; -652.000; -385.000
414.474;   61.175;   38.000;  -52.000
414.600;  -18.100; -126.000; -144.000
414.726;  -30.375;  -96.000;  -55.000
414.852;  -67.375; -365.000; -342.000
414.978;   28.600;  104.000;  -18.000
415.104;   42.225;   38.000;   80.000
415.230;    7.575; -329.000; -330.000
415.356;   18.000; -409.000; -514.000
415.482;  187.675;   13.000;  -35.000
415.608;  272.725; -247.000; -323.000
415.734;  966.325;   67.000;   38.000
415.860;20226.875; -875.000; -767.000
415.986;14981.875; -685.000; -607.000
416.111; 1291.050; -798.000; -652.000
416.237;  276.975; -424.000; -571.000
416.363; 1136.925; -765.000; -733.000
416.489; 4449.300; -324.000; -251.000
416.615;  495.475; -707.000; -742.000
416.741;  -20.400; -677.000; -784.000
416.866; -100.800; -673.000; -736.000
416.992; -120.000; -801.000; -818.000
417.118;  -42.400;  -41.000;  -80.000
417.244;  -80.875; -798.000; -531.000
417.369;  -93.850; -801.000; -612.000
417.495;  -19.475; -325.000; -254.000
417.621; -107.275;-1015.000; -803.000
417.746;  -12.375; -579.000; -572.000
417.872;   33.875; -254.000; -144.000
417.998;   44.425; -515.000; -530.000
418.123; 1056.175;-1073.000; -845.000
418.249; 5641.175; -512.000; -601.000
418.374;  813.325; -916.000; -824.000
418.500;  105.000; -383.000; -482.000
418.626;  115.475;   70.000;  -59.000
418.751;  122.925; -549.000; -448.000
418.877;  199.100; -637.000; -643.000
419.002; 1829.725; -688.000; -560.000
419.128;13096.625; -930.000; -721.000
419.253; 3275.325; -967.000; -837.000
419.379;  431.375; -391.000; -338.000
419.504;  385.150;  325.000;  415.000
419.629;  535.625; -393.000; -212.000
419.755; 3731.450; -317.000; -254.000
419.880;22388.575;  -98.000;   67.000
420.006;11935.400; -280.000; -221.000
420.131;30604.175; -662.000; -775.000
420.256; 4485.050; -315.000; -316.000
420.382;  574.425; -665.000; -687.000
420.507;   60.900; -649.000; -778.000
420.632;   93.625; -337.000; -339.000
420.758;  165.375; -251.000; -425.000
420.883; -120.075; -876.000; -672.000
421.008; -114.975; -775.000; -619.000
421.133;  -96.825; -509.000; -467.000
421.259;  -47.450; -325.000; -259.000
421.384; -125.325; -834.000; -693.000
421.509;  -76.025;-1052.000; -862.000
421.634;  878.575; -936.000; -820.000
421.759;  386.875; -359.000; -327.000
421.885;  -75.775; -717.000; -656.000
422.010;  -92.500; -673.000; -542.000
422.135; -153.025; -695.000; -727.000
422.260;    6.750;  340.000;  280.000
422.385;  -55.825;   12.000;  -98.000
422.510;   -8.800;  151.000;  -26.000
422.635;    3.800;  -87.000;  -43.000
422.760;   70.500; -766.000; -791.000
422.885;   49.150;  -57.000;  -80.000
423.010;  -29.400; -112.000; -169.000
423.135; -111.550; -481.000; -561.000
423.260;  -31.700; -150.000; -245.000
423.385;   51.450;  476.000;  222.000
423.510;   20.925;   71.000;  -22.000
423.635;   57.700;  133.000;   45.000
423.760;   40.175;  383.000;  328.000
423.885;   30.925;  336.000;  391.000
424.010;   -5.250;  -68.000;  -13.000
424.135;  -37.325;    5.000;  -33.000
424.259;  -99.975; -654.000; -457.000
424.384;  -66.550; -279.000; -272.000
424.509;  -31.625; -260.000; -186.000
424.634; -102.675; -761.000; -623.000
424.759;  -38.100; -688.000; -544.000
424.883;  -29.175; -506.000; -527.000
425.008;  160.150; -502.000; -410.000
425.133; 2035.400; -679.000; -653.000
425.258;  999.400; -517.000; -381.000
425.382;  917.275; -867.000; -774.000
425.507; 2386.750; -487.000; -543.000
425.632;  426.625; -802.000; -663.000
425.756;  468.225; -256.000; -146.000
425.881; 6872.775; -831.000; -857.000
426.006;19232.875; -604.000; -355.000
426.130; 3005.075; -696.000; -508.000
426.255;  388.350; -611.000; -491.000
426.379;  158.975; -189.000; -577.000
426.504;  368.550;  660.000;  544.000
426.629; 4096.075; -519.000; -466.000
426.753; 2896.425;   64.000;  -46.000
426.878;  313.975; -252.000; -288.000
427.002;  138.575; -651.000; -668.000
427.127; 1586.125;  -35.000; -158.000
427.251;11883.725;  372.000;  401.000
427.375; 3450.725; -191.000; -173.000
427.500; 2087.975; -616.000; -610.000
427.624;  698.275; -234.000; -400.000
427.749;   68.200; -216.000; -225.000
427.873;  -60.225; -499.000; -412.000
427.997;  -53.100; -222.000; -230.000
428.122;   45.950;  795.000;  703.000
428.246;   60.875;  433.000;  434.000
428.371; -146.950; -869.000; -773.000
428.495; -106.075; -624.000; -646.000
428.619;  -47.900; -186.000; -117.000
428.743;   14.175;   65.000;  132.000
428.868;   -0.425; -732.000; -643.000
428.992; 1216.750; -219.000; -326.000
429.116;  455.875; -329.000; -357.000
429.240;  222.000;  419.000;  426.000
429.365;  -47.000; -454.000; -574.000
429.489;  -64.575; -638.000; -647.000
429.613;    9.150; -236.000; -177.000
429.737;   28.975; -563.000; -432.000
429.861;  260.925; -247.000; -133.000
429.985; 5708.475; -425.000; -305.000
430.109; 6469.875; -770.000; -908.000
430.234;  752.525;   76.000;  -50.000
430.358;   66.675; -250.000; -160.000
430.482;  -81.750; -672.000; -564.000
430.606;  -78.175; -655.000; -375.000
430.730;  -11.400; -437.000; -388.000
430.854;   69.525; -909.000; -835.000
430.978; -108.175; -795.000; -764.000
431.102;  -99.375; -499.000; -422.000
431.226; -138.550; -874.000; -815.000
431.350;    2.000;  345.000;  422.000
431.474;  -90.400; -661.000; -373.000
431.597; -166.425;-1060.000; -848.000
431.721;  -87.375; -276.000; -267.000
431.845; -138.275; -704.000; -472.000
431.969;  -99.850; -304.000; -349.000
432.093; -103.275; -395.000; -317.000
432.217;  -35.575;   32.000;   82.000
432.341; -106.325; -523.000; -518.000
432.464;    7.250;   96.000;   40.000
432.588;  123.875; -401.000; -329.000
432.712;   68.850;  -52.000;  -52.000
432.836;   34.025;  213.000;  263.000
432.959;  -30.925; -372.000; -311.000
433.083;   77.975;   11.000;    2.000
433.207;  395.000;  285.000;  930.000
433.330; 5230.375; -391.000; -200.000
433.454; 6593.500; -654.000; -638.000
433.578; 3755.050;  583.000;  278.000
433.701;  695.325; -623.000; -675.000
433.825;  116.850; -292.000; -299.000
433.949;  128.450;   28.000;  -72.000
434.072;   12.100; -410.000; -323.000
434.196;  -28.650; -309.000; -117.000
434.319; 3673.250;25482.000;25124.000
434.443;  693.450; -656.000; -603.000
434.566; 2798.650;  281.000;   62.000
434.690;  475.100; -637.000; -383.000
434.813;   42.725; -251.000; -173.000
434.937;  -87.575; -569.000; -696.000
435.060;  -63.150; -423.000; -332.000
435.184;  189.250; -492.000; -217.000
435.307;   94.775;  159.000;  102.000
435.431;  -15.300;  -40.000;   24.000
435.554;  -89.400; -399.000; -240.000
435.677; -106.225; -350.000; -258.000
435.801;  -52.750;  -25.000;   49.000
435.924;  -32.800;    1.000;  -67.000
436.048; -145.725;-1019.000; -732.000
436.171;  -93.350; -240.000;  -66.000
436.294;  -37.725; -248.000; -229.000
436.417;  100.625; -963.000; -849.000
436.541; -103.925; -814.000; -840.000
436.664;  -55.775; -242.000; -316.000
436.787;  -50.050;   13.000;  113.000
436.910; -129.425; -792.000; -422.000
437.034;   -1.525;  142.000;  143.000
437.157;   20.025;  -11.000;    0.000
437.280;  -80.375; -392.000; -292.000
437.403; -118.375; -982.000; -869.000
437.526;  427.400; -903.000; -865.000
437.649; 1731.100; -505.000; -332.000
437.772;  207.625; -692.000; -540.000
437.896;   93.600;  700.000;  544.000
438.019; -115.525; -758.000; -503.000
438.142; -103.475; -596.000; -506.000
438.265;  -43.025; -639.000; -670.000
438.388;  414.225; -520.000; -410.000
438.511;   41.775; -597.000; -394.000
438.634;  -71.925; -247.000; -125.000
438.757; -143.525; -693.000; -619.000
438.880;  -35.875;  -34.000;  -57.000
439.003;  -95.050; -417.000; -437.000
439.126;  -73.425; -287.000; -167.000
439.248;  -64.250;  -98.000; -139.000
439.371;  -61.525;    9.000;  -53.000
439.494;    5.900;  510.000;  439.000
439.617;  -58.625;   65.000;  -88.000
439.740; -188.025; -968.000; -816.000
439.863; -154.350; -755.000; -595.000
439.986; -132.325; -476.000; -431.000
440.108;  -57.425; -161.000; -112.000
440.231; -168.250; -950.000; -836.000
440.354;  -33.900;  -64.000; -150.000
440.477;  -22.125; -566.000; -542.000
440.599;  -26.125; -200.000; -225.000
440.722; -128.900; -709.000; -586.000
440.845;   53.625;  751.000;  928.000
440.968; -116.400; -415.000; -311.000
441.090;  -73.625; -199.000;  -33.000
441.213; -177.125;-1021.000; -825.000
441.336;  -57.125; -159.000;   -5.000
441.458;  -94.075; -549.000; -396.000
441.581;  -96.125; -628.000; -629.000
441.703;  -70.950; -152.000;   13.000
441.826; -105.925; -557.000; -400.000
441.948;  -68.050;   56.000;   51.000
442.071;   28.050;  555.000;  424.000
442.193; -127.550; -531.000; -485.000
442.316;  -10.700;  152.000;   97.000
442.438;   34.225; -233.000;  -10.000
442.561;   50.125;  272.000;  262.000
442.683;  366.875; -809.000; -522.000
442.806;  890.575;   -8.000;   74.000
442.928;  -20.725; -859.000; -604.000
443.051;  -80.900; -577.000; -373.000
443.173; -105.175; -341.000; -339.000
443.295;  -93.050; -263.000; -371.000
443.418;  -76.725; -321.000;  -29.000
443.540;  -24.875; -106.000;   -4.000
443.662; -131.700; -563.000; -465.000
443.785;  -28.950;  335.000;  199.000
443.907; -114.175; -362.000; -208.000
444.029; -133.900; -767.000; -494.000
444.152; -158.375; -644.000; -554.000
444.274;  -42.675;  -18.000;  -24.000
444.396; -125.000; -461.000; -221.000
444.518; -133.225; -691.000; -454.000
444.640;  -95.300; -268.000; -111.000
444.763;  -16.125;  388.000;  249.000
444.885; -140.650; -432.000; -392.000
445.007;  -35.025;   35.000;   86.000
445.129; -119.950; -610.000; -515.000
445.251; -113.250; -372.000; -439.000
445.373; -143.650; -537.000; -386.000
445.495;   -0.025;  242.000;  350.000
445.617;   35.375;  853.000;  753.000
445.739;  -74.050; -215.000;  -97.000
445.861;  -39.475; -245.000; -112.000
445.984;  -54.550; -267.000; -101.000
446.105;  135.450; -418.000; -251.000
446.227;  481.625; -176.000;  -19.000
446.349;  -41.825; -358.000; -249.000
446.471; -112.300; -615.000; -448.000
446.593;  -86.225; -316.000;   19.000
446.715;  -37.875;  -67.000;   41.000
446.837;   50.450;  697.000;  832.000
446.959; -111.275; -457.000; -478.000
447.081; -138.675; -628.000; -518.000
447.203;   42.325;  862.000;  834.000
447.325; -101.550; -270.000;   42.000
447.446;  -20.650;  286.000;  530.000
447.568; -174.400; -921.000; -803.000
447.690;  -96.750; -236.000; -245.000
447.812; -159.700; -798.000; -519.000
447.933;  -39.975;  155.000;  127.000
448.055;  -77.100; -306.000; -261.000
448.177;   84.900;   31.000;   79.000
448.299;   39.700; -935.000; -727.000
448.420;   12.975;  -25.000;  159.000
448.542;  -57.325;   -3.000;   33.000
448.664;  -24.650;  109.000;  322.000
448.785;  -48.575;  265.000;   83.000
448.907; -101.275; -614.000; -353.000
449.028;  -68.300; -771.000; -471.000
449.150;   44.375;  492.000;  589.000
449.272; -190.675;-1044.000; -913.000
449.393;   26.975;  612.000;  694.000
449.515; -159.875; -634.000; -581.000
449.636;  -78.825; -264.000; -155.000
449.758;   56.875;  763.000;  622.000
449.879; -102.450; -498.000; -396.000
450.001;  -96.800; -149.000;  -49.000
450.122;  -46.650;  -95.000;  162.000
450.244;  -35.450;   37.000;  364.000
450.365; -100.225; -495.000; -301.000
450.486;  -43.125;   80.000;  268.000
450.608;   29.350;  393.000;  326.000
450.729;   52.075;  578.000;  645.000
450.850;    7.025; -574.000; -466.000
450.972;  779.950; -552.000; -389.000
451.093; 5163.100;  190.000;  588.000
451.214; 2314.050; -516.000; -337.000
451.336;  423.375;  773.000;  579.000
451.457;   65.575;  264.000;  393.000
451.578;  -53.475; -118.000;  -74.000
451.699; -130.175; -546.000; -540.000
451.821;  -73.875; -284.000;  -50.000
451.942;   -8.425;  278.000;  285.000
452.063;   18.150;  228.000;  419.000
452.184;  549.725;  -54.000;  -49.000
452.305; 1165.775;  103.000;  170.000
452.427;  142.475; -549.000; -301.000
452.548;  -40.650;   23.000;   79.000
452.669;  -72.100; -257.000;  -89.000
452.790;  -67.000;    3.000;  -18.000
452.911;  -12.625;  195.000;  259.000
453.032;  -74.100; -289.000;  -60.000
453.153;  -59.150;  -29.000;   81.000
453.274;   49.125;  737.000;  868.000
453.395;  -60.275;  -51.000;  175.000
453.516;   95.725; 1317.000; 1388.000
453.637;  -87.725; -205.000; -150.000
453.758;  -63.350;   15.000;   69.000
453.879; -136.250; -462.000; -250.000
454.000;   55.200; 1086.000;  948.000
454.121; -130.950; -554.000; -326.000
454.242; -127.450; -599.000; -383.000
454.362;  -63.925;  -99.000;  114.000
454.483;  -52.325; -309.000; -229.000
454.604;   33.575;  512.000;  580.000
454.725; -125.800; -627.000; -555.000
454.846; -134.675; -474.000; -406.000
454.967;  -41.875;  230.000;  539.000
455.087;  -56.750;  179.000;  153.000
455.208;   11.000;  554.000;  856.000
455.329;  -56.700;  -22.000;   82.000
455.450;   22.650;  473.000;  633.000
455.570;  -83.500; -234.000; -211.000
455.691;  -44.125;  201.000;  407.000
455.812; -114.425; -270.000;  -92.000
455.932;  -55.375;  107.000;  -97.000
456.053;  -91.000;   36.000;   24.000
456.173; -109.250; -433.000; -355.000
456.294; -141.225; -476.000; -303.000
456.415;  -59.350;  -73.000;   70.000
456.535;  -48.250;  297.000;  273.000
456.656;  -58.300;  132.000;  240.000
456.776;  -82.025;    3.000;  298.000
456.897;  -14.775;  308.000;  513.000
457.017;  -81.900; -153.000;   -3.000
457.138; -121.150; -402.000; -249.000
457.258;  -40.550;  263.000;  224.000
457.379;  -15.000;  509.000;  521.000
457.499;  -32.475;  443.000;  432.000
457.620; -121.925; -407.000; -231.000
457.740;  -99.925; -132.000;  -11.000
457.860;  -64.150;   87.000;   44.000
457.981;  -52.300;  132.000;  124.000
458.101;  -90.375;  -89.000;   40.000
458.221;  -19.125;  336.000;  402.000
458.342;  -66.100;   -4.000;  -37.000
458.462;   18.400;  617.000;  352.000
458.582;  -31.400; -302.000; -294.000
458.703;   -0.400;  303.000;  154.000
458.823;  -30.600;   22.000;  163.000
458.943;   31.875;  341.000;  467.000
459.063;  -14.475; 1124.000;  192.000
459.183;  -33.025;  328.000;  313.000
459.304;    5.250;  315.000;  517.000
459.424;  -53.900; -246.000;  -89.000
459.544;  336.800;  388.000;  764.000
459.664;  861.825;  499.000;  506.000
459.784;  330.550; 1004.000; 1175.000
459.904;   43.000;  867.000;  744.000
460.024;   46.375;  867.000;  684.000
460.144;  -23.800;  449.000;  554.000
460.264;  -30.450;  515.000;  327.000
460.385;  -91.850; -145.000; -119.000
460.505;   27.250;  905.000;  858.000
460.625; -112.050;  -17.000;  -68.000
460.745;  -13.775;  396.000;  541.000
460.864;  -68.700;  153.000;  469.000
460.984;  -11.575;  499.000;  573.000
461.104;  139.550; 1656.000; 1775.000
461.224;   12.300;  657.000;  650.000
461.344;  -38.775;  431.000;  360.000
461.464;  -38.425;  258.000;  513.000
461.584;  -31.050;  283.000;  466.000
461.704;  -67.150;   58.000;  108.000
461.824;  -63.850;  238.000;  259.000
461.943;  -44.200;  191.000;  130.000
462.063;  -89.250;    2.000;  324.000
462.183;   12.350;  639.000;  717.000
462.303;   85.650; 1678.000; 1230.000
462.422;    9.175;  781.000;  840.000
462.542;  -42.275;  271.000;  391.000
462.662;   26.325;  353.000;  380.000
462.782;  224.675;  833.000;  572.000
462.901;  483.975;  545.000;  717.000
463.021;  292.250; 1702.000; 1638.000
463.141;   -9.725;  337.000;  770.000
463.260;  -30.975;  614.000;  474.000
463.380;    9.550;  902.000;  884.000
463.499;  -47.125;  342.000;  332.000
463.619;  -37.850;  581.000;  559.000
463.738;  105.450; 1644.000;  903.000
463.858;   -1.175;  657.000;  811.000
463.978;  -43.325;  542.000;  396.000
464.097;   44.050;  921.000; 1114.000
464.217;  115.825; 1196.000; 1143.000
464.336;  111.050; 1068.000; 1130.000
464.455;  -45.150;  328.000;  659.000
464.575;   27.475;  597.000;  602.000
464.694;  138.075; 1204.000; 1179.000
464.814;  126.825; 1190.000; 1138.000
464.933;   62.825; 1095.000; 1027.000
465.052;   92.100; 1412.000; 1054.000
465.172;   67.700;  922.000;  799.000
465.291;  116.200; 1376.000; 1320.000
465.410;    6.375;  462.000;  735.000
465.530;   84.575; 1355.000; 1310.000
465.649;   69.100; 1209.000; 1273.000
465.768;  135.225; 1673.000; 1508.000
465.888;   47.575;  941.000; 1174.000
466.007;   87.225; 1335.000; 1440.000
466.126;  -23.975;  721.000;  641.000
466.245;   40.550; 1176.000; 1187.000
466.364;   10.425;  950.000; 1060.000
466.484;   46.425; 1024.000; 1213.000
466.603;   31.750; 1101.000; 1222.000
466.722;  106.675; 1490.000; 1769.000
466.841;   58.975; 1151.000; 1401.000
466.960;   22.250; 1069.000;  972.000
467.079;  111.175; 1971.000; 1786.000
467.198;   41.175; 1238.000; 1181.000
467.317;   58.550; 1768.000; 1162.000
467.436;   66.100; 1709.000; 1261.000
467.555;  105.875; 1796.000; 1746.000
467.674;   61.350; 1227.000; 1329.000
467.793;   42.750; 1376.000; 1374.000
467.912;   88.850; 1658.000; 1539.000
468.031;  131.850; 2038.000; 1930.000
468.150;  137.700; 1842.000; 1837.000
468.269;  174.075; 2313.000; 2090.000
468.388;  200.325; 2168.000; 2339.000
468.507;  260.375; 2884.000; 2903.000
468.626;  267.550; 2555.000; 2541.000
468.744;  136.925; 2018.000; 2174.000
468.863;  194.000; 2312.000; 2523.000
468.982;   97.675; 1503.000; 1555.000
469.101;  210.925; 2788.000; 2692.000
469.220;  137.625; 2333.000; 2176.000
469.338;  242.125; 2935.000; 3051.000
469.457;  190.575; 2719.000; 2545.000
469.576;  335.425; 3953.000; 3784.000
469.695;  241.825; 2877.000; 3066.000
469.813;  428.725; 4148.000; 4192.000
469.932;  396.575; 4255.000; 4485.000
470.051;  419.000; 4075.000; 4161.000
470.169;  855.525; 4470.000; 4338.000
470.288; 1525.025; 4700.000; 4809.000
470.406;  876.875; 5059.000; 5194.000
470.525;  617.100; 6101.000; 5787.000
470.644;  653.925; 6847.000; 6794.000
470.762;  809.475; 8397.000; 7873.000
470.881;  901.400; 8651.000; 8464.000
470.999; 1043.000; 9685.000; 9151.000
471.118; 1092.550;11174.000;10711.000

