
Integration time [ms]: 200.000
Averaging Nr. [scans]: 10
Smoothing Nr. [pixels]: 0
Data measured with spectrometer [name]: 2101012U2
Wave   ;Sample   ;Dark     ;Reference
[nm]   ;[counts] ;[counts] ;[counts] 

197.733;  124.900;  516.000;  404.000
197.879; -184.100; -610.000; -634.000
198.025;  -70.900; -475.000; -420.000
198.171; -148.200; -602.000; -612.000
198.317;  -54.200; -401.000; -316.000
198.463; -108.700; -655.000; -404.000
198.609;   73.800;  181.000; -137.000
198.755; -176.400; -644.000; -410.000
198.901; -123.900; -505.000; -424.000
199.047; -130.300; -615.000; -488.000
199.193;  -49.200; -230.000; -468.000
199.339;  -65.600; -222.000; -369.000
199.485;   84.300;  330.000;  271.000
199.631;   46.400;  227.000;  310.000
199.777;  -72.100; -466.000; -398.000
199.923; -126.300; -610.000; -424.000
200.069;  -15.500; -141.000;  -58.000
200.215;  133.000;  128.000;  453.000
200.361;  108.500;  243.000;  477.000
200.507; -120.100; -600.000; -373.000
200.653;  -33.100; -371.000; -194.000
200.798;  -59.400; -215.000; -125.000
200.944;   -4.300; -146.000;  -41.000
201.090;   69.900;   61.000;  222.000
201.236;    9.900; -116.000; -158.000
201.382;  256.700;  874.000;  903.000
201.528;    6.400;  -58.000;  -48.000
201.674; -110.000; -386.000; -293.000
201.819; -129.500; -540.000; -439.000
201.965; -147.800; -699.000; -447.000
202.111;  -50.500; -273.000; -226.000
202.257;  -56.900; -250.000; -238.000
202.402;   53.500;   13.000;  -36.000
202.548;  -53.900; -169.000; -116.000
202.694;  168.500;  410.000; -183.000
202.840; -141.200; -603.000; -531.000
202.985; -149.600; -681.000; -639.000
203.131; -225.600; -832.000; -666.000
203.277;  -33.800; -199.000; -262.000
203.423; -127.900; -434.000; -520.000
203.568;  -87.500; -462.000; -237.000
203.714; -104.600; -535.000; -542.000
203.860; -155.800; -682.000; -641.000
204.005;   40.300;  112.000;  167.000
204.151;  166.100;  561.000;  556.000
204.296;  -70.400; -354.000; -221.000
204.442; -120.600; -600.000; -547.000
204.588; -174.200; -592.000; -579.000
204.733;   68.600;  178.000;  168.000
204.879; -296.100;-1018.000; -822.000
205.025;   11.100;  -99.000;  126.000
205.170;   -4.800;  -17.000;   94.000
205.316;  202.200;  438.000;  661.000
205.461; -167.800; -698.000; -554.000
205.607;  198.200;  609.000;  665.000
205.752; -185.800; -626.000; -551.000
205.898; -100.300; -501.000; -391.000
206.043; -113.100; -578.000; -506.000
206.189;  -80.200; -243.000; -285.000
206.334;  159.100;  554.000;  606.000
206.480;  177.700;  409.000;  239.000
206.625; -176.700; -529.000; -552.000
206.771;  -77.800; -451.000; -373.000
206.916;  -69.200; -210.000; -537.000
207.062; -123.200; -545.000; -591.000
207.207; -114.400; -546.000; -443.000
207.353;  105.400;  185.000;  460.000
207.498;   42.000;  196.000;   85.000
207.643; -114.400; -501.000; -370.000
207.789; -256.300;-1069.000; -910.000
207.934; -202.500; -665.000; -713.000
208.080;  -59.500; -154.000;   66.000
208.225;  -23.800;  -22.000;  -57.000
208.370; -171.600; -727.000; -619.000
208.516; -118.600; -741.000; -487.000
208.661;  -56.300; -127.000;  -69.000
208.806;   -3.100; -165.000; -171.000
208.952; -250.200;-1044.000; -731.000
209.097;  173.800;  378.000;  349.000
209.242;  -64.500; -307.000; -382.000
209.387;  103.700;  392.000;  350.000
209.533; -116.600; -321.000; -350.000
209.678;  187.300;  472.000;  543.000
209.823;  -77.500; -408.000; -310.000
209.969; -198.000; -860.000; -757.000
210.114; -229.700; -907.000; -719.000
210.259; -229.800; -939.000; -889.000
210.404;  -60.200; -171.000;  103.000
210.549;   48.100;  108.000;    3.000
210.695;  -32.800;   -3.000;  -95.000
210.840;   79.900;   94.000;   67.000
210.985; -130.700; -484.000; -303.000
211.130;  156.600;  268.000;  406.000
211.275;   59.100;  207.000;  199.000
211.420; -108.400; -300.000; -289.000
211.566; -141.700; -536.000; -489.000
211.711;   42.400;  218.000;  157.000
211.856; -117.500; -545.000; -519.000
212.001;   18.200;  151.000;   44.000
212.146;    8.600;  153.000;   49.000
212.291;  -23.600; -210.000; -186.000
212.436;  -50.200; -280.000;   -6.000
212.581; -167.000; -685.000; -653.000
212.726; -149.200; -487.000; -538.000
212.871; -103.900; -552.000; -217.000
213.016; -316.600;-1172.000;-1029.000
213.161;  158.700;  406.000;  291.000
213.306; -151.400; -435.000; -577.000
213.451; -171.000; -778.000; -689.000
213.596;  -86.200; -455.000; -347.000
213.741;  -87.300; -448.000; -538.000
213.886; -164.400; -498.000; -517.000
214.031;  -43.400; -294.000; -124.000
214.176; -102.400; -408.000; -341.000
214.321;  -20.700; -296.000; -157.000
214.466;  -24.200; -163.000;  -43.000
214.611;    4.800;  -61.000;  -10.000
214.756; -222.100; -948.000; -858.000
214.901;  -14.400; -388.000; -226.000
215.046; -239.100; -797.000; -825.000
215.191;   64.000;  128.000;   35.000
215.336;  -42.200; -157.000;  -19.000
215.480; -116.600; -684.000; -505.000
215.625;   17.800; -175.000;  -19.000
215.770; -171.500; -757.000; -662.000
215.915;  -16.200;   -5.000;  -97.000
216.060;  -16.600; -113.000;  -21.000
216.205; -240.200; -731.000; -779.000
216.349; -121.000; -470.000; -533.000
216.494; -270.900; -939.000; -867.000
216.639; -234.700; -823.000; -888.000
216.784; -160.100; -577.000; -525.000
216.929;  107.400;  392.000;  281.000
217.073;  -48.000; -244.000;  -31.000
217.218;   38.100;   78.000;  -47.000
217.363; -171.500; -656.000; -618.000
217.507; -132.800; -623.000; -588.000
217.652; -257.200; -845.000; -874.000
217.797; -156.500; -708.000; -659.000
217.942; -205.600; -856.000; -720.000
218.086;  169.100;  608.000;  539.000
218.231;  -63.700; -174.000;  -26.000
218.376;  -35.400; -337.000; -229.000
218.520;   12.800;  -41.000;   96.000
218.665;  -45.200; -338.000; -204.000
218.810;  -76.400; -275.000; -233.000
218.954;   70.800;  201.000;   35.000
219.099; -249.600; -713.000; -963.000
219.243; -100.900; -589.000; -554.000
219.388;  -58.700; -264.000; -136.000
219.532;  -12.300; -116.000; -116.000
219.677; -161.100; -564.000; -521.000
219.822;   36.800;   33.000;   89.000
219.966;    8.300;   17.000;  -99.000
220.111;  -61.400; -328.000;  -40.000
220.255; -213.500; -797.000; -750.000
220.400;  -22.700; -180.000; -146.000
220.544; -141.300; -516.000; -450.000
220.689;  -94.300; -422.000; -451.000
220.833;  -39.100; -123.000;  -58.000
220.978;  -66.100; -393.000; -563.000
221.122;   46.400;  319.000;  307.000
221.267; -222.400; -906.000; -837.000
221.411; -137.800; -478.000; -394.000
221.555;   -3.500; -104.000;  -23.000
221.700;  -87.100; -329.000; -222.000
221.844;   95.400;  255.000;  272.000
221.989;  -94.400; -328.000; -311.000
222.133;  -58.300; -289.000; -307.000
222.277;  -22.200;    5.000;   78.000
222.422;   60.000;  227.000;  113.000
222.566;  -85.900; -381.000; -214.000
222.711;  -89.000; -414.000; -479.000
222.855; -165.600; -643.000; -586.000
222.999; -174.000; -642.000; -717.000
223.144;  -40.800; -195.000; -194.000
223.288;  134.600;  423.000;  251.000
223.432;   62.100;  184.000;  230.000
223.576;   46.500;  152.000;  -21.000
223.721;   77.900;  364.000;  273.000
223.865;  -94.900; -472.000; -475.000
224.009;  466.800; 1673.000; 1631.000
224.153; -172.700; -660.000; -671.000
224.298; -117.100; -531.000; -489.000
224.442;  -18.200;  -74.000;  -33.000
224.586;  -23.300; -169.000; -106.000
224.730; -158.800; -858.000; -670.000
224.875; -194.300; -739.000; -688.000
225.019;   51.100;  102.000;  188.000
225.163;  137.100;  208.000;  341.000
225.307;   50.900;   97.000;  -91.000
225.451;   67.200;  360.000;  481.000
225.595;   67.300;  264.000;  176.000
225.739;  -54.000; -170.000;  -94.000
225.884;   47.300;   86.000;    5.000
226.028; -175.800; -760.000; -626.000
226.172;  -62.000; -260.000; -273.000
226.316; -242.400; -941.000; -902.000
226.460; -140.900; -645.000; -493.000
226.604;  -88.900; -406.000; -400.000
226.748; -191.800; -836.000; -733.000
226.892;  -76.900; -227.000; -181.000
227.036;  -88.100; -537.000; -447.000
227.180; -112.100; -551.000; -375.000
227.324; -115.100; -561.000; -580.000
227.468; -209.200; -819.000; -717.000
227.612;   47.900;  242.000;  -28.000
227.756; -214.800; -845.000; -698.000
227.900;  125.800;  342.000;  441.000
228.044; -115.500; -509.000; -290.000
228.188;  118.100;  448.000;  568.000
228.332; -150.700; -546.000; -472.000
228.476;  -49.300; -223.000; -149.000
228.620;  -38.500; -210.000; -150.000
228.764;  168.700;  431.000;  349.000
228.908;  -47.700; -155.000;   30.000
229.052; -120.200; -615.000; -528.000
229.195;  -12.500; -172.000;   13.000
229.339;  -31.100; -235.000; -305.000
229.483;  -52.300;    5.000; -162.000
229.627;   13.600; -156.000;  139.000
229.771;  -89.100; -218.000; -294.000
229.915;   55.900;  230.000;   79.000
230.059; -189.800; -648.000; -663.000
230.202;  -41.900; -370.000; -317.000
230.346;  -41.100; -107.000;  107.000
230.490; -128.300; -489.000; -521.000
230.634; -194.300; -736.000; -553.000
230.777;  178.300;  478.000;  509.000
230.921;  -67.100; -450.000; -359.000
231.065;  -53.700; -246.000; -286.000
231.209;   88.000;  261.000;  265.000
231.352;   48.000;   54.000;   40.000
231.496;   58.700;  568.000;  188.000
231.640; -140.700; -693.000; -621.000
231.783;  146.800;  546.000;  525.000
231.927;  -59.900; -294.000; -365.000
232.071; -245.600; -962.000; -736.000
232.214; -225.200; -980.000; -764.000
232.358; -211.000; -683.000; -599.000
232.502;   35.300;  -19.000;    7.000
232.645; -276.700;-1090.000; -927.000
232.789;  -34.400; -257.000; -218.000
232.933;  -89.600; -407.000; -224.000
233.076; -244.900;-1038.000; -897.000
233.220; -220.400; -752.000; -777.000
233.363; -153.900; -669.000; -477.000
233.507;  155.200;  371.000;  129.000
233.650; -191.600; -764.000; -834.000
233.794;  134.800;  438.000;  461.000
233.938;  -95.900; -530.000; -362.000
234.081;  -38.400;  -93.000;   31.000
234.225; -120.900; -631.000; -539.000
234.368; -203.100; -773.000; -723.000
234.512;  -71.800; -385.000; -299.000
234.655; -179.000; -582.000; -555.000
234.798; -125.800; -493.000; -466.000
234.942; -248.400; -884.000;-1002.000
235.085; -132.100; -651.000; -443.000
235.229; -136.700; -405.000; -410.000
235.372;  -72.500; -247.000; -191.000
235.516; -134.700; -397.000; -321.000
235.659;   56.800;   92.000;  121.000
235.802;  -18.900;  -38.000;  -22.000
235.946;   70.900;  335.000;  215.000
236.089;   64.300;  126.000;  250.000
236.233;  127.500;  275.000;  298.000
236.376;  -56.800; -235.000; -378.000
236.519;  -65.400; -297.000; -319.000
236.663;  -18.900; -215.000; -117.000
236.806; -239.100;-1029.000; -999.000
236.949;  123.100;  543.000;  431.000
237.092;  142.800;  412.000;  391.000
237.236; -150.600; -589.000; -502.000
237.379;  169.000;  352.000;  428.000
237.522; -239.600; -879.000; -768.000
237.666;   -6.100; -271.000;   18.000
237.809; -223.900; -851.000; -823.000
237.952;   98.600;  469.000;  271.000
238.095; -135.200; -447.000; -442.000
238.238;  200.000;  688.000;  700.000
238.382;   13.700;  166.000;  103.000
238.525; -130.800; -598.000; -511.000
238.668; -272.800;-1060.000; -985.000
238.811; -138.600; -638.000; -643.000
238.954;  -94.000; -483.000; -334.000
239.097;  216.900;  617.000;  664.000
239.241;   77.900;  394.000;  326.000
239.384;  -63.300; -254.000; -214.000
239.527; -114.900; -424.000; -224.000
239.670; -269.200; -994.000;-1091.000
239.813; -213.200; -696.000; -658.000
239.956;  171.800;  579.000;  473.000
240.099; -197.900; -778.000; -725.000
240.242;  143.400;  428.000;  432.000
240.385;   90.300;  466.000;  450.000
240.528; -120.600; -706.000; -473.000
240.671;    4.800;  189.000;  134.000
240.814;  -69.800; -441.000; -158.000
240.957; -193.300; -767.000; -578.000
241.100; -184.500; -779.000; -755.000
241.243; -260.500;-1234.000; -893.000
241.386; -104.400; -508.000; -379.000
241.529; -170.100; -735.000; -547.000
241.672; -106.300; -566.000; -495.000
241.815; -215.000; -832.000; -808.000
241.958;  -42.000; -125.000; -182.000
242.101; -142.600; -545.000; -390.000
242.244;  -62.400; -270.000; -325.000
242.387;  -29.300; -304.000; -246.000
242.530;  157.200;  470.000;  134.000
242.673;  -83.200; -381.000; -309.000
242.815; -236.000; -925.000; -899.000
242.958; -111.300; -482.000; -381.000
243.101;   63.000;  132.000;  187.000
243.244; -137.700; -564.000; -521.000
243.387;  -84.700; -313.000; -316.000
243.530; -202.100; -657.000; -674.000
243.672;   53.000;   43.000;  -92.000
243.815;  -90.800; -355.000; -283.000
243.958;   -4.600;   98.000;  -26.000
244.101;    0.700;   59.000;  -16.000
244.243;   15.000;  -47.000;  101.000
244.386; -204.700; -761.000; -630.000
244.529;  -16.000; -132.000; -139.000
244.672; -308.200;-1154.000; -951.000
244.814; -187.700; -621.000; -794.000
244.957; -123.800; -380.000; -304.000
245.100; -138.400; -489.000; -489.000
245.242; -112.700; -387.000; -374.000
245.385;   17.100;  -59.000;  -39.000
245.528; -246.700; -871.000; -705.000
245.670;  221.100;  612.000;  634.000
245.813; -138.200; -599.000; -547.000
245.956;  -53.200; -324.000; -275.000
246.098; -150.900; -508.000; -650.000
246.241;   53.700;  194.000;   48.000
246.383;  -20.900; -119.000;  -73.000
246.526; -143.700; -454.000; -525.000
246.669; -222.100; -889.000; -780.000
246.811;   61.600;  172.000;   -1.000
246.954; -134.700; -512.000; -426.000
247.096;  -40.200;  -84.000;   -6.000
247.239; -133.700; -482.000; -445.000
247.381; -122.500; -647.000; -488.000
247.524;  169.100;  645.000;  679.000
247.666;    7.000;   58.000;   11.000
247.809; -238.200; -887.000; -691.000
247.951;    6.900;  -75.000;  138.000
248.094;   52.400;  432.000;  308.000
248.236; -272.500;-1262.000;-1238.000
248.378;  -70.200; -356.000;  -81.000
248.521;  -61.600; -334.000; -337.000
248.663;  -65.100; -236.000; -267.000
248.806;  -42.100; -300.000; -266.000
248.948; -226.100; -886.000; -763.000
249.090;  -71.200; -428.000; -398.000
249.233; -131.000; -344.000; -381.000
249.375; -121.000; -474.000; -451.000
249.518;  -28.500;  -83.000; -133.000
249.660;    9.300; -103.000;    3.000
249.802; -334.800;-1303.000;-1189.000
249.945; -133.000; -612.000; -540.000
250.087; -233.400; -834.000; -768.000
250.229;  -80.200; -362.000; -480.000
250.371; -116.900; -494.000; -439.000
250.514;  -85.700; -310.000; -244.000
250.656;   -1.900;   69.000;  102.000
250.798; -208.800; -849.000; -800.000
250.940; -132.900; -322.000; -322.000
251.083;  -41.300; -335.000; -111.000
251.225;  146.000;  338.000;  310.000
251.367;  -67.400; -274.000; -373.000
251.509;  -64.900; -265.000; -210.000
251.651; -163.900; -731.000; -671.000
251.794;  133.600;  538.000;  632.000
251.936; -198.600; -821.000; -747.000
252.078; -152.500; -540.000; -461.000
252.220; -112.400; -645.000; -477.000
252.362;  122.100;  344.000;  462.000
252.504; -104.800; -677.000; -584.000
252.646; -217.500; -875.000; -722.000
252.788;   -4.000;   14.000; -128.000
252.931;  -76.600; -257.000; -253.000
253.073; -109.600; -376.000; -317.000
253.215;  -11.500;  141.000;  122.000
253.357;    6.100;   82.000; -153.000
253.499; -103.500; -374.000; -234.000
253.641; -141.800; -749.000; -594.000
253.783; -177.300; -609.000; -527.000
253.925; -167.400; -586.000; -591.000
254.067; -202.400; -744.000; -667.000
254.209;  -38.300; -391.000; -259.000
254.351; -296.400; -865.000; -883.000
254.493; -110.600; -441.000; -417.000
254.635; -221.200; -936.000; -818.000
254.777; -166.400; -752.000; -687.000
254.918; -171.000; -512.000; -430.000
255.060; -109.600; -551.000; -395.000
255.202;  -96.600; -473.000; -261.000
255.344; -145.300; -658.000; -455.000
255.486; -151.500; -471.000; -406.000
255.628; -204.800; -780.000; -781.000
255.770; -142.300; -676.000; -536.000
255.912; -110.000; -559.000; -468.000
256.053; -169.600; -730.000; -508.000
256.195;  306.400; 1008.000;  903.000
256.337; -182.900; -861.000; -595.000
256.479;  164.600;  532.000;  416.000
256.621;  -83.300; -394.000; -212.000
256.762; -181.400; -789.000; -742.000
256.904;  107.000;  485.000;  487.000
257.046;  -52.200; -381.000; -271.000
257.188;  -65.200; -351.000; -264.000
257.329; -136.500; -525.000; -464.000
257.471; -193.200; -939.000; -807.000
257.613; -109.100; -584.000; -498.000
257.755; -289.300;-1073.000; -982.000
257.896;  102.700;  286.000;  392.000
258.038; -147.400; -403.000; -352.000
258.180;  -64.100; -354.000; -279.000
258.321; -136.000; -581.000; -457.000
258.463;   18.600;  -71.000;  133.000
258.605; -147.900; -562.000; -570.000
258.746; -180.700; -886.000; -772.000
258.888; -303.800;-1026.000;-1020.000
259.029;   51.200;  121.000;   -8.000
259.171; -157.600; -614.000; -550.000
259.313;   40.800;  -49.000;  -47.000
259.454; -159.500; -536.000; -414.000
259.596;  -68.300; -483.000; -390.000
259.737; -159.500; -590.000; -474.000
259.879;   92.600;  217.000;  311.000
260.020;  187.400;  901.000;  636.000
260.162;  -55.000; -146.000; -253.000
260.303; -224.200; -768.000; -687.000
260.445; -151.000; -609.000; -613.000
260.586;   78.200;  392.000;  157.000
260.728;  -60.000; -360.000; -248.000
260.869; -144.400; -350.000; -343.000
261.011;  181.000;  706.000;  537.000
261.152; -104.500; -479.000; -319.000
261.293; -150.500; -576.000; -595.000
261.435;  -39.500; -219.000; -184.000
261.576;  -64.300; -455.000; -325.000
261.718;  136.800;  420.000;  470.000
261.859; -241.000; -940.000; -949.000
262.000; -252.200; -951.000;-1016.000
262.142;  -10.000;  -52.000;  -60.000
262.283; -235.100; -808.000; -691.000
262.424; -178.100; -666.000; -625.000
262.566; -313.100;-1161.000; -983.000
262.707; -217.000; -840.000; -830.000
262.848; -228.500; -769.000; -726.000
262.990;  -95.800; -362.000; -345.000
263.131;  187.900;  650.000;  681.000
263.272;   -0.200;  -61.000;  -41.000
263.413; -160.000; -589.000; -561.000
263.555; -108.500; -669.000; -143.000
263.696; -166.000; -550.000; -641.000
263.837;  -99.700; -449.000; -551.000
263.978;   14.800;   -5.000;  -77.000
264.119;  -74.700; -283.000; -264.000
264.261; -218.100; -847.000; -630.000
264.402;   25.800;   33.000;   40.000
264.543; -142.900; -509.000; -524.000
264.684;   17.900;   61.000;  -50.000
264.825; -151.300; -816.000; -538.000
264.966;  -20.400;  -84.000;  -67.000
265.107; -217.700; -646.000; -670.000
265.248; -207.700; -825.000; -812.000
265.390;  -11.700;  152.000;   -9.000
265.531;   -9.600; -238.000; -107.000
265.672; -171.300; -557.000; -630.000
265.813;  182.200;  563.000;  439.000
265.954; -253.600; -959.000; -940.000
266.095;  -21.600; -372.000; -322.000
266.236; -179.500; -686.000; -548.000
266.377;  -68.600; -243.000; -297.000
266.518; -135.800; -619.000; -547.000
266.659;  102.700;  170.000;  268.000
266.800;    3.200;   83.000;   85.000
266.941; -110.200; -487.000; -478.000
267.082;   36.100;  354.000;   99.000
267.223;  -69.600; -344.000; -273.000
267.364; -218.000; -892.000; -686.000
267.504;  -33.500;    3.000;  135.000
267.645;   14.000;  160.000;   67.000
267.786;  -71.900; -147.000;  -86.000
267.927; -134.300; -473.000; -379.000
268.068;   -8.000; -186.000;  -61.000
268.209;  -84.800; -175.000; -413.000
268.350;  -77.300; -388.000; -532.000
268.490; -143.700; -648.000; -521.000
268.631;   79.200;  127.000;  225.000
268.772; -203.800; -874.000; -647.000
268.913;  -59.400; -328.000; -476.000
269.054;  -17.800; -117.000;   12.000
269.194;  -46.000; -418.000; -402.000
269.335; -301.900;-1137.000;-1074.000
269.476;    9.700;   33.000;  -35.000
269.617;  -77.600; -347.000; -392.000
269.757; -157.700; -713.000; -646.000
269.898; -199.000; -856.000; -613.000
270.039; -118.900; -415.000; -405.000
270.180; -248.200; -952.000; -816.000
270.320;  -65.100; -190.000; -250.000
270.461;  -74.200; -277.000; -249.000
270.602;   -2.900; -186.000; -156.000
270.742; -238.000; -868.000; -943.000
270.883;  -84.600; -442.000; -390.000
271.023; -105.400; -358.000; -357.000
271.164; -137.900; -607.000; -528.000
271.305; -173.300; -666.000; -654.000
271.445; -142.100; -722.000; -683.000
271.586; -142.100; -462.000; -283.000
271.726;  -65.100; -397.000; -322.000
271.867; -119.300; -594.000; -534.000
272.008;   94.600; -473.000; -285.000
272.148;  173.000;  462.000;  468.000
272.289;  -20.500; -113.000; -181.000
272.429;   31.900;   19.000;  185.000
272.570; -151.200; -633.000; -737.000
272.710; -191.800; -825.000; -775.000
272.851;  -40.700;  113.000; -130.000
272.991; -339.300;-1173.000;-1077.000
273.131; -111.600; -419.000; -459.000
273.272; -192.500; -683.000; -723.000
273.412;    2.000; -143.000;  -31.000
273.553; -135.700; -488.000; -507.000
273.693;  278.600;  913.000;  858.000
273.834; -242.500; -894.000; -692.000
273.974; -131.300; -664.000; -615.000
274.114; -196.500; -772.000; -560.000
274.255;  164.400;  414.000;  373.000
274.395;  -39.300; -180.000; -125.000
274.535;   85.200;  199.000;  350.000
274.676;   79.000;  225.000;   94.000
274.816;    1.500;  110.000;   34.000
274.956; -151.000; -624.000; -690.000
275.097; -177.400;-1014.000; -922.000
275.237; -232.900; -913.000; -803.000
275.377; -148.500; -778.000; -689.000
275.517; -278.900; -878.000; -937.000
275.658; -110.300; -590.000; -555.000
275.798; -164.300; -606.000; -413.000
275.938;   55.300;  215.000;  323.000
276.078; -195.700; -626.000; -395.000
276.218;   33.300;   99.000;  104.000
276.359; -279.200;-1026.000;-1024.000
276.499; -132.400; -605.000; -446.000
276.639;  -44.100; -305.000; -151.000
276.779;  -53.800; -475.000; -357.000
276.919; -200.900; -783.000; -624.000
277.059;   -1.700; -261.000; -212.000
277.199;  -77.300; -357.000; -259.000
277.340;  130.600;  287.000;  175.000
277.480; -223.600; -840.000; -693.000
277.620;   87.000;  192.000;   16.000
277.760; -367.200;-1533.000;-1294.000
277.900;   49.500;  113.000;   33.000
278.040;   36.800;  137.000;  159.000
278.180;   55.900;  270.000;  170.000
278.320;   42.800;   21.000;   56.000
278.460; -141.200; -443.000; -469.000
278.600; -162.500; -708.000; -598.000
278.740;  125.100;  448.000;  224.000
278.880; -177.600; -768.000; -791.000
279.020;  -41.100; -194.000; -144.000
279.160; -159.800; -672.000; -595.000
279.300; -200.700; -926.000; -873.000
279.440; -175.700; -709.000; -622.000
279.579; -172.000;-1014.000; -929.000
279.719; -108.000; -410.000; -394.000
279.859;   79.100;   -4.000;   41.000
279.999;   -0.100; -208.000;  101.000
280.139;  -67.700; -435.000; -387.000
280.279; -187.700; -708.000; -745.000
280.419;   -4.800; -229.000; -147.000
280.559;  -45.500; -259.000; -180.000
280.698; -153.800; -790.000; -639.000
280.838; -195.800; -778.000; -800.000
280.978; -184.600; -846.000; -790.000
281.118; -211.200; -811.000; -704.000
281.257;   22.200;   24.000;    6.000
281.397; -276.900;-1094.000; -960.000
281.537; -185.100; -599.000; -712.000
281.677;   15.400; -150.000; -101.000
281.816; -158.800; -700.000; -630.000
281.956;  -35.800; -193.000; -257.000
282.096; -114.300; -539.000; -396.000
282.235; -143.500; -672.000; -638.000
282.375;   -3.000; -243.000;  -98.000
282.515; -217.000; -715.000; -707.000
282.654;   50.300;   29.000;  106.000
282.794;   89.300;  388.000;  244.000
282.934;  -54.900; -530.000; -491.000
283.073; -247.700;-1030.000; -857.000
283.213;  -72.800; -460.000; -467.000
283.353;  -56.200; -408.000; -349.000
283.492;  -31.000; -264.000; -296.000
283.632;  -72.800; -254.000; -168.000
283.771; -144.400; -859.000; -730.000
283.911; -117.600; -369.000; -260.000
284.050; -164.400; -794.000; -748.000
284.190; -341.800;-1229.000;-1096.000
284.329; -271.700;-1055.000; -964.000
284.469; -176.100; -516.000; -591.000
284.608; -108.200; -559.000; -598.000
284.748; -154.800; -614.000; -570.000
284.887;  -12.000;  -87.000;  -20.000
285.027; -249.900; -844.000; -892.000
285.166;  -22.200; -192.000; -249.000
285.306;  -14.700; -116.000;  -33.000
285.445;  -83.700; -229.000; -343.000
285.584; -190.900; -630.000; -494.000
285.724;  -52.500; -282.000; -322.000
285.863; -188.900; -857.000; -507.000
286.002;  -42.200; -366.000; -276.000
286.142; -200.000; -715.000; -622.000
286.281;  -95.000; -525.000; -493.000
286.420; -183.700; -554.000; -417.000
286.560;  241.800;  653.000;  623.000
286.699; -263.400; -958.000; -912.000
286.838; -137.100; -590.000; -591.000
286.978; -142.000; -533.000; -537.000
287.117; -247.500;-1085.000; -950.000
287.256;  -51.200; -228.000; -211.000
287.395;  -69.400; -197.000; -378.000
287.535; -102.300; -370.000; -298.000
287.674; -118.300; -509.000; -484.000
287.813;  132.300;  661.000;  533.000
287.952; -249.800;-1010.000; -871.000
288.091; -284.100;-1049.000; -915.000
288.231;   18.100;   13.000;   15.000
288.370; -305.900;-1217.000;-1200.000
288.509; -145.300; -728.000; -645.000
288.648; -174.300; -770.000; -548.000
288.787;  -29.100; -243.000;  -87.000
288.926; -107.800; -454.000; -475.000
289.065;  259.800;  859.000;  672.000
289.204;  -97.500; -377.000; -217.000
289.344; -169.600; -791.000; -690.000
289.483;   40.900;  416.000;  304.000
289.622;  -33.900; -291.000; -149.000
289.761;  -30.800; -309.000; -166.000
289.900; -169.700; -785.000; -626.000
290.039;  -21.800;  -12.000;  -95.000
290.178;  -40.800; -274.000; -180.000
290.317; -139.100; -618.000; -479.000
290.456; -120.900; -463.000; -451.000
290.595; -279.200; -961.000; -833.000
290.734; -268.200; -904.000; -891.000
290.873; -147.900; -456.000; -420.000
291.011; -178.800; -833.000; -843.000
291.150; -204.400; -770.000; -682.000
291.289;  -52.100; -343.000; -110.000
291.428; -164.900; -599.000; -480.000
291.567; -116.900; -370.000; -442.000
291.706;   11.600;  109.000;  154.000
291.845; -170.900; -597.000; -505.000
291.984; -292.900;-1234.000;-1061.000
292.122;  186.000;  602.000;  582.000
292.261;  109.800;  620.000;  463.000
292.400;   46.300; -144.000;  211.000
292.539; -215.700; -959.000; -813.000
292.678;  -50.900; -325.000; -300.000
292.816; -290.800;-1136.000; -965.000
292.955; -181.700; -844.000; -684.000
293.094;  -20.500; -173.000; -337.000
293.233;  -62.900; -556.000; -400.000
293.371;  -72.000; -225.000;  -84.000
293.510; -175.200; -866.000; -780.000
293.649; -272.200; -959.000; -924.000
293.787; -222.600;-1083.000;-1012.000
293.926;   -5.000; -113.000;  -32.000
294.065;  -65.500; -379.000; -290.000
294.203;   80.200;  298.000;  406.000
294.342;   46.300;   74.000;  156.000
294.481;11642.100;51180.000; -836.000
294.619;  -43.400; -425.000; -582.000
294.758; -301.100;-1230.000;-1137.000
294.896;   35.900; -125.000;    5.000
295.035; -266.800;-1040.000;-1006.000
295.174; -225.100;-1082.000; -954.000
295.312;  -75.900; -323.000; -203.000
295.451;  -64.700; -307.000; -428.000
295.589; -115.900; -389.000; -518.000
295.728;   29.000; -292.000; -165.000
295.866;    2.100;  -36.000;  -51.000
296.005; -116.900; -584.000; -341.000
296.143; -139.200; -558.000; -596.000
296.282; -216.000; -957.000; -881.000
296.420; -176.100; -657.000; -557.000
296.559; -152.000; -892.000; -633.000
296.697;  -95.100; -847.000; -665.000
296.835; -120.700;-1141.000;-1002.000
296.974;  104.000;  -23.000;   39.000
297.112;  -32.400; -443.000; -504.000
297.251; -144.600; -815.000; -755.000
297.389;    2.800; -576.000; -438.000
297.527;   52.400; -145.000;  -83.000
297.666; -117.700; -486.000; -438.000
297.804;  -91.000; -404.000; -264.000
297.942;   16.300; -136.000; -161.000
298.081;  -15.800; -183.000;   63.000
298.219;   46.500;  -17.000;  -19.000
298.357;   -5.800; -144.000;  -71.000
298.495;  -93.000; -810.000; -812.000
298.634;   79.600;  245.000;  219.000
298.772;    6.800; -220.000; -338.000
298.910;  -91.800; -309.000; -182.000
299.048;   -2.900; -130.000; -153.000
299.187;  -68.000; -350.000; -250.000
299.325;   64.200;   52.000;  122.000
299.463;  -38.600; -389.000; -299.000
299.601;   49.500; -327.000; -271.000
299.739; -244.300; -908.000; -883.000
299.877; -142.300; -791.000; -703.000
300.016; -203.000;-1095.000; -935.000
300.154;  134.000;  -19.000; -161.000
300.292;  -38.300; -428.000; -348.000
300.430;  -37.700; -408.000; -291.000
300.568; -230.000; -940.000; -874.000
300.706; -102.400; -366.000; -469.000
300.844; -248.200;-1108.000; -979.000
300.982;  192.800;  246.000;  282.000
301.120; -260.100; -965.000; -866.000
301.258; -158.400; -812.000; -705.000
301.396;   50.900;  104.000;  -41.000
301.534;   41.300; -218.000; -293.000
301.672; -117.100; -664.000; -521.000
301.810;  -80.300; -613.000; -545.000
301.948;  125.000;   53.000;  149.000
302.086;  404.800; -250.000;  -32.000
302.224;  573.600; -610.000; -585.000
302.362;  -80.100; -558.000; -622.000
302.500; -144.100; -923.000; -893.000
302.638;  140.800;  128.000;  245.000
302.776;  -24.300; -352.000; -408.000
302.913;  125.000;  447.000;  236.000
303.051;  -28.500;  -86.000;  -23.000
303.189;   65.000;   90.000;  118.000
303.327;  -69.200; -341.000; -256.000
303.465; -163.200; -832.000; -588.000
303.603; -180.400; -805.000; -604.000
303.740;  157.800;  417.000;  241.000
303.878; -126.500; -800.000; -759.000
304.016; -174.300; -915.000; -790.000
304.154; -286.500;-1123.000;-1152.000
304.291;  -91.700; -505.000; -554.000
304.429;   42.700;  102.000;   74.000
304.567; -231.900; -908.000; -893.000
304.705; -145.700; -408.000; -515.000
304.842;  -31.300; -616.000; -540.000
304.980;   54.300;  215.000;   35.000
305.118;  -12.600; -367.000; -365.000
305.255; -235.100; -945.000; -927.000
305.393;  117.200;  178.000;  239.000
305.531; -251.700;-1173.000; -956.000
305.668; -146.100; -663.000; -582.000
305.806;  -16.200; -358.000; -439.000
305.943;  -20.800; -629.000; -637.000
306.081;    5.900; -378.000; -267.000
306.219; -205.200; -863.000; -748.000
306.356;   33.800;  158.000;   27.000
306.494;  337.000;  981.000;  761.000
306.631;   76.600;  -11.000;  -55.000
306.769;   12.700; -613.000; -485.000
306.906;   32.700; -284.000; -258.000
307.044;  -39.200; -473.000; -488.000
307.181;  -53.300; -410.000; -332.000
307.319;  151.700;  112.000;   87.000
307.456; -300.200;-1191.000;-1153.000
307.594; -164.900; -980.000; -727.000
307.731;  -32.400; -371.000; -164.000
307.868;   55.500;  -15.000;   20.000
308.006; -242.400; -961.000; -847.000
308.143;  -89.800; -618.000; -330.000
308.281;   73.000;  -37.000; -254.000
308.418;  -70.000; -748.000; -640.000
308.555; -109.300; -400.000; -250.000
308.693;  -92.700; -577.000; -573.000
308.830; -151.000; -712.000; -657.000
308.967;   25.200; -215.000;  -95.000
309.105;   16.200; -507.000; -396.000
309.242;   49.700; -468.000; -367.000
309.379;  189.800; -577.000; -655.000
309.517; -117.800; -936.000; -948.000
309.654; -126.000; -910.000; -734.000
309.791;  -71.000; -662.000; -580.000
309.928; -178.100; -977.000; -914.000
310.065;  349.700;  819.000;  697.000
310.203; -139.400; -825.000; -850.000
310.340;   23.300; -465.000; -321.000
310.477; -123.200; -412.000; -516.000
310.614;  -55.900; -383.000; -473.000
310.751;  -84.100; -427.000; -518.000
310.889;   -2.600;    1.000;   11.000
311.026; -241.500;-1161.000; -939.000
311.163;  -28.900; -386.000; -380.000
311.300; -107.700; -512.000; -479.000
311.437;  -82.500; -658.000; -619.000
311.574; -266.500;-1226.000; -985.000
311.711;  -81.000; -595.000; -433.000
311.848;  -33.200; -380.000; -388.000
311.985;   50.200;  270.000;   93.000
312.122; -216.100; -932.000; -762.000
312.259; -150.200; -941.000; -994.000
312.396;  -48.600; -508.000; -551.000
312.533;  -91.700; -812.000; -790.000
312.670; -239.500;-1070.000; -898.000
312.807;   11.500; -352.000; -367.000
312.944;  -83.900; -513.000; -611.000
313.081;  -28.400; -150.000; -415.000
313.218; -214.200;-1111.000; -867.000
313.355;    5.900; -531.000; -449.000
313.492;  -11.300; -455.000; -292.000
313.629;  253.600;  815.000;  735.000
313.766; -295.600;-1176.000;-1008.000
313.902;   35.300; -186.000;   21.000
314.039;  -71.200; -372.000; -289.000
314.176;  110.500;  286.000;  192.000
314.313; -142.100; -569.000; -473.000
314.450; -138.500; -788.000; -684.000
314.587;  -87.000; -468.000; -480.000
314.723;   91.800;  -78.000;  130.000
314.860;  105.900;  318.000;  332.000
314.997;   94.200;  223.000;  142.000
315.134;  -43.100; -385.000; -368.000
315.270;  -70.900; -480.000; -496.000
315.407; -224.400;-1094.000; -967.000
315.544;  -87.300; -657.000; -538.000
315.681; -117.300; -681.000; -565.000
315.817;   29.400; -133.000; -176.000
315.954;  -47.200; -613.000; -392.000
316.091; -257.800;-1045.000;-1023.000
316.227;  -12.700;  -71.000; -179.000
316.364;   63.700;   23.000;    6.000
316.500;   -5.100; -113.000; -300.000
316.637;   -1.900; -181.000; -302.000
316.774; -154.100; -625.000; -358.000
316.910; -162.300; -598.000; -629.000
317.047; -122.000; -487.000; -351.000
317.183; -101.000; -435.000; -566.000
317.320;  -70.800; -367.000; -321.000
317.456; -143.200; -733.000; -805.000
317.593; -158.300; -598.000; -641.000
317.729;   36.200;  168.000;  -67.000
317.866; -389.800;-1434.000;-1285.000
318.002; -145.500; -708.000; -948.000
318.139; -202.300; -883.000; -867.000
318.275; -213.900;-1003.000; -738.000
318.412; -102.200; -517.000; -336.000
318.548; -118.500; -751.000; -720.000
318.685; -208.600; -985.000; -888.000
318.821; -148.100; -762.000; -735.000
318.957;  -34.500;   34.000;  -23.000
319.094;  131.000;  297.000;  154.000
319.230; -158.500; -756.000; -742.000
319.367;   43.000; -471.000; -520.000
319.503;   18.100; -538.000; -436.000
319.639; -172.700; -877.000; -793.000
319.775; -155.600; -750.000; -685.000
319.912;  -96.100; -424.000; -519.000
320.048; -261.900;-1184.000;-1184.000
320.184;  121.600;   59.000;   70.000
320.321;  -86.900; -497.000; -467.000
320.457;  139.900;  475.000;  662.000
320.593; -117.900; -375.000; -382.000
320.729; -178.300; -732.000; -734.000
320.866; -148.400; -577.000; -635.000
321.002; -150.700; -759.000; -809.000
321.138;  -63.100; -135.000; -211.000
321.274;   23.800; -148.000; -115.000
321.410;  -81.100; -585.000; -353.000
321.546; -198.100;-1011.000; -911.000
321.683;   91.900;  400.000;  185.000
321.819;   31.600;  -48.000; -117.000
321.955; -268.600; -743.000; -722.000
322.091;  -88.900; -585.000; -540.000
322.227;  -63.000; -382.000; -202.000
322.363;  -47.800; -320.000; -215.000
322.499;  -71.900; -343.000; -331.000
322.635;  236.500;  636.000;  443.000
322.771;   21.200; -139.000;   12.000
322.907;  151.100;  129.000;  327.000
323.043;  -75.400; -115.000; -206.000
323.179;  -74.700; -394.000; -363.000
323.315;  -69.800; -401.000; -371.000
323.451;   51.900; -328.000; -236.000
323.587;   26.700;  -60.000;  -77.000
323.723;  -66.100; -682.000; -601.000
323.859;  -32.300; -258.000;  -76.000
323.995;  -69.300; -467.000; -409.000
324.131; -242.000; -967.000; -892.000
324.267;  -25.300; -254.000; -276.000
324.402; -273.000; -960.000; -983.000
324.538;  -27.500; -279.000; -104.000
324.674;   25.700;  164.000;   77.000
324.810;  152.400;  226.000;  308.000
324.946;  -48.500; -810.000; -658.000
325.082; -110.300; -568.000; -475.000
325.217;  -21.800;  -62.000;   16.000
325.353; -183.500; -764.000; -659.000
325.489; -160.600; -540.000; -506.000
325.625; -132.200; -579.000; -525.000
325.760;   89.800;  517.000;  376.000
325.896;  -81.300; -515.000; -702.000
326.032;  -81.100; -403.000; -352.000
326.168;  -90.400; -462.000; -369.000
326.303; -101.900; -352.000; -461.000
326.439;  -33.800; -336.000; -276.000
326.575;  -21.200; -190.000;  -29.000
326.710;  -17.200; -156.000;  -30.000
326.846;   -0.600;  146.000;  103.000
326.982; -158.300; -530.000; -548.000
327.117; -153.700; -481.000; -442.000
327.253; -147.700; -745.000; -742.000
327.388; -232.500;-1137.000;-1153.000
327.524; -101.000; -811.000; -578.000
327.659;  -14.800;  -58.000;  -22.000
327.795;   22.700;   69.000;   45.000
327.931; -129.200; -723.000; -499.000
328.066;  -34.100; -417.000; -276.000
328.202;  -18.400;   12.000; -129.000
328.337;  233.100;  957.000;  713.000
328.473;  -20.300;  -12.000;  -74.000
328.608;  -55.700; -256.000; -267.000
328.743; -186.300; -799.000; -664.000
328.879;   48.200;  214.000;  114.000
329.014;  -87.100; -102.000; -122.000
329.150; -114.700; -358.000; -483.000
329.285; -163.200; -465.000; -466.000
329.421;  -63.400; -548.000; -246.000
329.556;    7.000;  -36.000;   85.000
329.691; -179.200; -633.000; -615.000
329.827; -128.800; -626.000; -480.000
329.962;  -23.800;  131.000; -301.000
330.097; -168.100; -673.000; -585.000
330.233;  -44.000; -410.000; -223.000
330.368; -231.400; -839.000; -628.000
330.503;   18.600;    3.000;   98.000
330.638;   -1.100;  -93.000; -125.000
330.774; -164.900; -609.000; -530.000
330.909;  -76.200; -434.000; -244.000
331.044; -147.800; -714.000; -708.000
331.179; -339.900;-1217.000;-1109.000
331.315;   51.000;   77.000;   20.000
331.450;   43.400;  157.000;  285.000
331.585; -156.400; -805.000; -706.000
331.720; -138.800; -510.000; -460.000
331.855;  -11.000;  -35.000; -102.000
331.990;  186.200;   62.000;  138.000
332.126;  114.300; -110.000;   71.000
332.261;  -63.000; -379.000; -265.000
332.396;  -23.600; -135.000; -242.000
332.531; -252.300;-1074.000;-1031.000
332.666;  -11.900; -519.000; -363.000
332.801; -214.800; -726.000; -807.000
332.936;  -15.900; -192.000; -122.000
333.071; -280.500; -870.000; -817.000
333.206;   78.100;  307.000;  379.000
333.341;   95.400;  344.000;  418.000
333.476; -178.800; -627.000; -623.000
333.611;  -78.700; -251.000; -173.000
333.746;  -21.400; -381.000; -464.000
333.881; -227.600; -973.000; -935.000
334.016; -237.200; -936.000; -917.000
334.151; -230.200; -746.000; -702.000
334.286;   57.300;  152.000;  186.000
334.421;  -18.000; -125.000; -178.000
334.556; -114.200; -611.000; -567.000
334.690; -183.400; -631.000; -577.000
334.825;  120.100;  381.000;   83.000
334.960; -136.600; -285.000; -413.000
335.095;    4.800;  135.000;  -91.000
335.230; -194.200; -722.000; -738.000
335.365; -253.900;-1084.000; -990.000
335.499; -288.600;-1108.000;-1037.000
335.634;   35.800;    9.000;  534.000
335.769; -201.600; -755.000; -720.000
335.904; -140.300; -603.000; -561.000
336.038; -181.800; -735.000; -657.000
336.173; -277.000;-1206.000;-1194.000
336.308;  -95.900; -116.000; -189.000
336.443;  -42.000; -544.000; -634.000
336.577; -220.400; -936.000; -787.000
336.712;   67.700;   -4.000;  -12.000
336.847; -169.200; -724.000; -607.000
336.981;    7.400; -272.000; -208.000
337.116;  228.400;  615.000;  501.000
337.250;   31.800; -434.000; -421.000
337.385;  149.000; -297.000; -208.000
337.520;  -49.500; -632.000; -603.000
337.654;  -79.700; -215.000; -126.000
337.789; -235.000; -989.000; -933.000
337.923;  -39.200; -104.000; -205.000
338.058; -151.300; -673.000; -738.000
338.192; -109.500; -611.000; -488.000
338.327;   19.200;  -18.000; -155.000
338.461; -122.000; -299.000; -469.000
338.596; -152.900; -780.000; -638.000
338.730; -217.700; -767.000; -803.000
338.865;  100.400;  -46.000; -140.000
338.999; -188.600; -846.000; -702.000
339.134; -140.300; -634.000; -536.000
339.268;  -99.600; -741.000; -603.000
339.403;  106.100; -740.000; -775.000
339.537;  -54.800; -894.000; -820.000
339.671; -218.500; -829.000; -813.000
339.806; -125.600; -556.000; -512.000
339.940;   17.700; -261.000; -235.000
340.074; -198.700; -685.000; -510.000
340.209;  -55.700; -351.000; -230.000
340.343; -189.200; -517.000; -573.000
340.477;  327.800;  998.000; 1036.000
340.612; -183.700;-1033.000; -900.000
340.746;   76.500; -199.000; -243.000
340.880; -206.300; -924.000; -785.000
341.014;  -24.100;  -45.000; -154.000
341.149; -190.700; -756.000; -718.000
341.283; -192.300; -839.000; -754.000
341.417; -237.300;-1124.000; -938.000
341.551;   -2.700; -768.000; -708.000
341.685; -132.700; -633.000; -611.000
341.820; -148.100; -562.000; -493.000
341.954;  -91.500; -218.000; -349.000
342.088; -265.100;-1102.000;-1019.000
342.222;  108.800;  565.000;  618.000
342.356; -120.000; -395.000; -335.000
342.490; -215.300; -880.000; -841.000
342.624;  -41.200; -339.000; -242.000
342.758;  -53.100; -364.000; -312.000
342.892; -114.800; -710.000; -585.000
343.026;  -44.800;  -58.000; -116.000
343.160;  -60.000; -426.000; -376.000
343.294; -169.100; -474.000; -337.000
343.428;  -78.600; -488.000; -448.000
343.562;  -63.000; -172.000;  -23.000
343.696;  -63.800; -385.000; -314.000
343.830;  -55.900; -362.000; -356.000
343.964;   -6.900; -231.000; -168.000
344.098;  704.400;  199.000;   70.000
344.232;  552.900; -266.000; -127.000
344.366;  -49.400; -567.000; -453.000
344.500;  -36.100; -665.000; -744.000
344.634;  -46.800; -324.000; -164.000
344.768;  -87.300; -531.000; -341.000
344.902;   35.200;  278.000;  256.000
345.035; -116.500; -556.000; -496.000
345.169; -247.300; -933.000; -656.000
345.303;  -70.200; -308.000; -482.000
345.437; -188.200; -826.000; -717.000
345.571; -174.900; -675.000; -594.000
345.704; -123.100; -309.000; -532.000
345.838;  -23.600; -331.000; -284.000
345.972; -132.400; -543.000; -495.000
346.106;  108.600; -179.000; -190.000
346.239;  262.500; -312.000; -243.000
346.373;  -20.100; -343.000; -302.000
346.507; -297.200; -950.000; -962.000
346.640;  121.800;  -30.000;   13.000
346.774; -165.300; -650.000; -797.000
346.908;    9.400; -138.000;  -11.000
347.041; -179.200; -646.000; -593.000
347.175;   42.700;  259.000;   27.000
347.309; -168.900; -698.000; -628.000
347.442; -197.800; -883.000; -732.000
347.576;  331.700;  670.000;  668.000
347.709;  162.000; -123.000;  -52.000
347.843; -199.900; -933.000; -825.000
347.976;  114.600;  235.000;  294.000
348.110; -320.200;-1268.000;-1186.000
348.243; -158.500; -679.000; -772.000
348.377;   23.100;  -26.000;   60.000
348.510;  125.900;  403.000;  540.000
348.644;  -60.700;  -37.000; -159.000
348.777;   53.900;  180.000;  191.000
348.911;  -46.500; -142.000; -112.000
349.044;  218.200;  471.000;  448.000
349.178;  -60.300;-1069.000;-1006.000
349.311;  176.400;  141.000;  255.000
349.444; -153.200; -927.000; -813.000
349.578;  -33.800; -347.000; -200.000
349.711; -214.000; -959.000; -862.000
349.845; -112.900; -661.000; -591.000
349.978; -296.600;-1224.000;-1137.000
350.111; -133.700; -546.000; -612.000
350.244; -155.500; -596.000; -700.000
350.378;  -13.100; -392.000; -393.000
350.511; -107.200; -393.000; -426.000
350.644; -164.200; -808.000; -806.000
350.778;   22.500;  168.000;  104.000
350.911;   66.400;  134.000;  140.000
351.044; -174.200; -685.000; -615.000
351.177;  -55.300; -321.000; -281.000
351.310;  -30.300;    3.000; -131.000
351.444; -166.600; -888.000; -788.000
351.577;   62.200;  140.000;   90.000
351.710;  229.500;  593.000;  417.000
351.843;  -20.400; -165.000;  -77.000
351.976;   64.400;  149.000;  -79.000
352.109; -178.600; -621.000; -612.000
352.242; -101.600; -464.000; -419.000
352.376; -146.800; -580.000; -636.000
352.509;   25.000; -437.000; -356.000
352.642; -171.200; -654.000; -604.000
352.775;   31.800; -141.000;  -98.000
352.908; -271.600; -933.000; -904.000
353.041; -213.000; -814.000; -824.000
353.174; -111.400; -551.000; -424.000
353.307; -161.200; -753.000; -764.000
353.440;  149.500;  541.000;  453.000
353.573; -215.800; -957.000;-1008.000
353.706; -181.800; -384.000; -558.000
353.839;  -51.300; -264.000; -220.000
353.971; -188.600; -657.000; -512.000
354.104; -218.100; -896.000; -835.000
354.237; -161.900; -627.000; -662.000
354.370; -185.700; -846.000; -879.000
354.503; -342.900;-1231.000;-1308.000
354.636;  -83.500; -529.000; -348.000
354.769; -260.800; -937.000; -860.000
354.902;  -54.100; -230.000; -139.000
355.034;  -60.300; -164.000; -220.000
355.167;  -43.100; -262.000; -162.000
355.300; -230.000;-1061.000; -880.000
355.433;  644.900;  -71.000;  -14.000
355.565;  913.200; -402.000; -384.000
355.698;  188.500; -356.000; -296.000
355.831; -174.600; -882.000; -801.000
355.964;   33.700; -285.000; -170.000
356.096; -227.000; -856.000; -843.000
356.229;  -81.900; -523.000; -530.000
356.362;  182.100; -373.000; -266.000
356.494;  386.500; -229.000; -162.000
356.627;  365.800;  269.000;  377.000
356.760;  436.900;  120.000;   53.000
356.892;  540.200; -286.000; -601.000
357.025;  517.000;  403.000;  389.000
357.157;  345.400; -167.000; -179.000
357.290;  377.000; -856.000; -713.000
357.423;   32.000; -667.000; -556.000
357.555;   66.900; -217.000; -228.000
357.688;    6.100; -483.000; -364.000
357.820;  184.300; -870.000; -877.000
357.953; 2326.000; -563.000; -589.000
358.085;  419.400; -632.000; -612.000
358.218;  495.100;-1131.000; -932.000
358.350;  152.100;  -58.000;  312.000
358.483; -299.500;-1300.000;-1187.000
358.615; -186.600;-1182.000;-1078.000
358.747; -234.300;-1187.000;-1058.000
358.880;  -72.600; -810.000; -744.000
359.012;  -81.900; -376.000; -202.000
359.145;  -95.800; -480.000; -511.000
359.277; -136.600; -962.000; -913.000
359.409; 2101.400;  536.000;  231.000
359.542;  355.900; -738.000; -688.000
359.674;   73.700;   46.000;   13.000
359.806; -123.700; -565.000; -438.000
359.939;  -90.700; -617.000; -516.000
360.071; -121.700; -583.000; -579.000
360.203;  -28.500; -411.000; -364.000
360.335;   64.800;  164.000;  -16.000
360.468;  135.400; -249.000; -307.000
360.600; 1501.300; -547.000; -454.000
360.732; 1765.400; -546.000; -423.000
360.864;   19.300;-1216.000;-1044.000
360.996;  126.800; -516.000; -554.000
361.129;  -56.400; -389.000; -598.000
361.261;   33.800;  110.000; -113.000
361.393;  -53.700; -252.000; -214.000
361.525;   56.200;   94.000;  244.000
361.657; -127.200; -821.000; -703.000
361.789;   43.800; -139.000; -155.000
361.921;   77.500; -642.000; -593.000
362.053;  288.600;  524.000;  541.000
362.185;   55.000;  288.000;   72.000
362.318; -181.400; -709.000; -705.000
362.450;  109.500;  294.000;  444.000
362.582;  -82.800; -913.000; -870.000
362.714;  -62.900; -353.000; -332.000
362.846; -164.900; -606.000; -490.000
362.978; -246.000; -941.000; -811.000
363.109;    1.100; -161.000; -260.000
363.241;  138.300; -739.000; -749.000
363.373;  161.000; -649.000; -564.000
363.505;  456.400; -186.000;  -91.000
363.637;    4.900; -787.000; -601.000
363.769; -304.300;-1067.000;-1080.000
363.901; -131.400; -596.000; -654.000
364.033; -287.600;-1103.000;-1062.000
364.165;  -30.400; -283.000; -283.000
364.296;    2.900; -316.000; -177.000
364.428; -162.300;-1344.000;-1220.000
364.560; -154.200; -679.000; -661.000
364.692; -155.200; -738.000; -835.000
364.824;   45.900; -588.000; -456.000
364.955;  229.300; -402.000; -564.000
365.087;  402.200;-1097.000; -852.000
365.219;  -99.400; -686.000; -816.000
365.351; -182.300; -526.000; -572.000
365.482;  101.500;  300.000;  240.000
365.614;  -88.500; -402.000; -314.000
365.746; -178.100; -729.000; -752.000
365.877; -166.200; -706.000; -672.000
366.009;  182.900;  -35.000;  -62.000
366.141; -282.200;-1249.000;-1134.000
366.272; -181.100; -803.000; -719.000
366.404; -238.500;-1005.000; -874.000
366.535;  -25.700; -139.000;  -12.000
366.667; -174.700; -644.000; -649.000
366.799;   96.700;  353.000;  203.000
366.930; -246.500; -862.000; -996.000
367.062;   15.400; -639.000; -613.000
367.193;  -19.500; -872.000; -842.000
367.325;  -98.600; -580.000; -684.000
367.456;   -7.200; -246.000;   31.000
367.588;   82.200; -371.000; -318.000
367.719;    7.200;  -44.000;  -45.000
367.851;  -34.600; -222.000; -241.000
367.982; -171.800; -875.000; -732.000
368.113;   54.000; -475.000; -358.000
368.245; -233.800; -960.000; -841.000
368.376;  -27.800; -254.000; -302.000
368.508;  -36.300; -188.000; -263.000
368.639; -278.300;-1166.000;-1034.000
368.770; -136.100; -670.000; -589.000
368.902; -161.300; -836.000; -926.000
369.033; -225.100; -906.000; -855.000
369.164; -111.000; -720.000; -653.000
369.296; -174.800; -452.000; -601.000
369.427;  -15.400; -209.000; -144.000
369.558;  -99.800; -593.000; -377.000
369.689; -157.500; -721.000; -569.000
369.821; -263.200; -951.000; -845.000
369.952;   19.200;   42.000; -108.000
370.083;  -88.600; -229.000; -108.000
370.214; -163.600; -735.000; -650.000
370.345;   10.400;   65.000;   81.000
370.477; -177.600; -810.000; -790.000
370.608;  145.800; -328.000; -264.000
370.739; -194.100;-1233.000;-1292.000
370.870; -212.600;-1102.000; -923.000
371.001;    2.500; -378.000; -467.000
371.132; -163.000; -754.000; -735.000
371.263;    7.300;  -42.000; -148.000
371.394; -235.900; -841.000; -748.000
371.525;   98.000;  345.000;  225.000
371.657; -190.900; -808.000; -670.000
371.788;  138.100;  103.000;  199.000
371.919;   25.000; -384.000; -304.000
372.050; 2803.600;  -91.000; -156.000
372.181;  758.900; -188.000; -294.000
372.311;  326.000;   42.000; -127.000
372.442;  -61.800; -457.000; -451.000
372.573;  -43.000; -444.000; -340.000
372.704; -244.000;-1008.000; -980.000
372.835;   19.300; -228.000; -289.000
372.966; -157.300; -646.000; -554.000
373.097; -170.700; -575.000; -711.000
373.228; -167.000; -717.000; -542.000
373.359;  -18.300; -824.000; -536.000
373.490;  464.200; -881.000; -727.000
373.620;  616.600;-1001.000; -803.000
373.751; 1221.800; -332.000; -396.000
373.882;  475.000; -663.000; -733.000
374.013;   23.700; -449.000; -262.000
374.143; -139.400; -581.000; -659.000
374.274; -245.200; -987.000; -908.000
374.405;   68.700; -388.000; -276.000
374.536;  249.800; -526.000; -387.000
374.666;  656.100; -759.000; -807.000
374.797;   26.400; -817.000; -868.000
374.928;  491.800; -710.000; -560.000
375.058;  453.000; -535.000; -500.000
375.189;   48.900;  -59.000;  -93.000
375.320; -260.000; -928.000;-1034.000
375.450; -129.600; -625.000; -616.000
375.581; -140.800; -526.000; -436.000
375.712;  -69.600; -574.000; -250.000
375.842;   97.100; -438.000; -415.000
375.973;   23.400; -554.000; -513.000
376.103; -167.500; -665.000; -648.000
376.234; -121.500; -531.000; -552.000
376.364; -203.900; -944.000; -867.000
376.495;  415.300;  925.000;  529.000
376.625;  -98.300; -472.000; -485.000
376.756;  -73.300; -709.000; -678.000
376.886; -250.500;-1178.000;-1026.000
377.017; -130.700;-1048.000;-1061.000
377.147;   91.200; -786.000; -782.000
377.278;   92.300;  174.000;  228.000
377.408; -201.800; -801.000; -815.000
377.538; -196.800; -707.000; -693.000
377.669; -179.700; -537.000; -613.000
377.799; -148.500; -645.000; -635.000
377.929; -104.900; -610.000; -428.000
378.060; -220.000; -781.000; -847.000
378.190; -155.400; -726.000; -531.000
378.320;  -83.700; -401.000; -406.000
378.451;   18.700; -131.000;  -22.000
378.581;   14.900;  -67.000; -110.000
378.711;  284.300; 1035.000;  866.000
378.841;  -62.900; -533.000; -675.000
378.972; -186.500; -871.000; -751.000
379.102;  -85.100; -652.000; -579.000
379.232;  -47.300; -126.000;  -73.000
379.362; -250.500;-1001.000; -885.000
379.492;  -91.400; -373.000; -424.000
379.623;  156.900;    0.000;  111.000
379.753; -238.400;-1107.000; -974.000
379.883;  219.300;   59.000;  156.000
380.013; -203.500;-1081.000;-1017.000
380.143; -247.100;-1097.000;-1056.000
380.273; -248.500; -985.000; -861.000
380.403;  -31.100; -344.000; -257.000
380.533; -148.600; -651.000; -664.000
380.663;  105.000;  173.000;  128.000
380.793; -260.700;-1027.000;-1074.000
380.923;   -7.800; -103.000;  -34.000
381.053; -160.300; -613.000; -623.000
381.183;  -45.100; -106.000; -248.000
381.313;  -79.700; -656.000; -470.000
381.443;  -41.600; -692.000; -473.000
381.573;   75.800; -402.000; -409.000
381.703;  -36.700;-1249.000;-1095.000
381.833; -297.200;-1454.000;-1336.000
381.963;  114.500; -134.000;  -87.000
382.093;  783.600; -925.000; -909.000
382.223;  191.700; -713.000; -602.000
382.353; -156.900; -801.000; -608.000
382.482;  143.300;-1091.000; -964.000
382.612;  415.900; -872.000; -644.000
382.742;  204.400; -695.000; -622.000
382.872;   73.400; -565.000; -551.000
383.002;  106.800;  347.000; -132.000
383.131;  -54.800; -226.000; -160.000
383.261; -159.500; -706.000; -768.000
383.391;  147.700; -552.000; -377.000
383.521; 2181.000;  451.000;  263.000
383.650;  308.400; -947.000; -904.000
383.780; -100.300; -783.000; -656.000
383.910;  236.500;  880.000;  802.000
384.039; -127.300; -794.000; -656.000
384.169;  -66.900;-1205.000;-1017.000
384.299; -120.400; -650.000; -662.000
384.428; -196.300; -764.000; -680.000
384.558;  -45.900; -308.000; -275.000
384.687; -118.200; -414.000; -334.000
384.817;   57.200;   75.000;   -2.000
384.947;  -17.500; -234.000; -141.000
385.076;  399.600;  982.000;  912.000
385.206;  142.200;  369.000;  480.000
385.335;  -77.600; -549.000; -417.000
385.465; -193.800; -655.000; -663.000
385.594;  137.800;  -53.000;  -44.000
385.724;  182.300; -868.000; -838.000
385.853;   73.800; -296.000; -270.000
385.982;  950.400; -743.000; -787.000
386.112; 1454.600;-1052.000; -871.000
386.241;   25.500; -307.000; -312.000
386.371;   -6.100; -174.000;  -87.000
386.500; -127.900; -825.000; -789.000
386.629; -111.100; -874.000; -817.000
386.759;   52.300;  -43.000;   68.000
386.888;    3.600; -170.000; -250.000
387.017; -166.000; -648.000; -620.000
387.147; -159.000; -771.000; -798.000
387.276;  -99.800; -410.000; -397.000
387.405;  -28.300; -398.000; -342.000
387.535; -124.000; -452.000; -361.000
387.664; -148.400; -692.000; -620.000
387.793;    5.600; -198.000; -113.000
387.922;  436.500;  255.000;  200.000
388.052;  -84.800; -576.000; -423.000
388.181;  -10.400; -342.000; -472.000
388.310; -113.800; -889.000; -710.000
388.439; -155.900; -749.000; -742.000
388.568;  180.900;  365.000;  244.000
388.697;  710.300; -756.000; -653.000
388.826;   43.200; -768.000; -666.000
388.956;   11.600; -285.000; -307.000
389.085;  -60.700; -347.000; -287.000
389.214; -218.600; -842.000; -872.000
389.343; -156.700; -645.000; -413.000
389.472;  328.100;  126.000;  149.000
389.601;  418.400;   91.000;    0.000
389.730;  -28.400; -568.000; -687.000
389.859;  120.100;  226.000;   46.000
389.988;  119.400; -423.000; -408.000
390.117;  103.000; -168.000; -146.000
390.246;  -25.000; -331.000; -320.000
390.375;  -15.800; -673.000; -626.000
390.504; -116.500; -703.000; -621.000
390.633; -177.700; -672.000; -726.000
390.761; -120.200; -732.000; -645.000
390.890;   10.600;   -4.000; -130.000
391.019;  -72.900; -421.000; -441.000
391.148; -210.500; -826.000; -855.000
391.277; -113.000; -576.000; -493.000
391.406; -170.100; -821.000; -805.000
391.534;   63.800;  574.000; -301.000
391.663; -125.100; -583.000; -645.000
391.792; -138.200; -673.000; -701.000
391.921;   58.600;   -3.000;   15.000
392.050;   87.900; -287.000; -228.000
392.178; -198.300;-1206.000;-1061.000
392.307;   31.300; -758.000; -712.000
392.436;  -55.600; -427.000; -641.000
392.564;   49.600;  166.000;   -6.000
392.693; -191.800; -860.000; -682.000
392.822;   92.300; -529.000; -534.000
392.950;  -42.000; -880.000; -714.000
393.079;  231.800; -188.000; -328.000
393.208;  -46.000; -488.000; -511.000
393.336;    3.800; -170.000; -145.000
393.465;  -70.900; -317.000; -199.000
393.593;   43.700;   62.000;   79.000
393.722; -245.300;-1121.000; -916.000
393.850;    4.700; -188.000;  -61.000
393.979; -235.100; -926.000; -805.000
394.107;  -97.500; -517.000; -537.000
394.236;  -77.200; -570.000; -507.000
394.364;  235.800;  383.000;  206.000
394.493;   99.100; -911.000; -767.000
394.621; -163.800; -955.000; -916.000
394.750;  310.000; -873.000; -923.000
394.878; 1900.900; -247.000; -149.000
395.007; 2291.900; -721.000; -807.000
395.135;   87.800; -790.000; -721.000
395.263; -269.300;-1038.000;-1040.000
395.392;   16.400;  -25.000; -107.000
395.520; -124.700; -818.000; -679.000
395.648; -219.000; -865.000; -915.000
395.777;  -72.400; -366.000; -405.000
395.905; -100.500; -449.000; -564.000
396.033;   21.300;  217.000;  172.000
396.162;  418.700; -399.000; -453.000
396.290;  348.100;  -17.000;   -2.000
396.418;  -36.200; -555.000; -514.000
396.546; -206.700; -571.000; -466.000
396.674; -220.900; -850.000; -878.000
396.803;   29.000;  -72.000;  -23.000
396.931;   28.100; -179.000; -199.000
397.059; -175.500;-1026.000; -989.000
397.187; -232.800;-1026.000; -975.000
397.315; -235.400; -884.000; -649.000
397.443; -139.500; -592.000; -443.000
397.572; -147.800; -578.000; -424.000
397.700; -132.500; -607.000; -614.000
397.828;   20.500;  120.000;  -90.000
397.956; -126.900; -508.000; -478.000
398.084; -176.400; -767.000; -626.000
398.212;   48.200;  137.000;  124.000
398.340;   33.100;  -56.000;  159.000
398.468;  -28.800; -390.000; -169.000
398.596; -279.200; -993.000; -953.000
398.724; -220.900; -762.000; -767.000
398.852; -310.900;-1024.000; -976.000
398.980; -136.400; -560.000; -560.000
399.108; -143.400; -982.000; -735.000
399.236;   16.600;   13.000;    8.000
399.363;   37.400;  222.000;  196.000
399.491; -101.500; -404.000; -398.000
399.619; -229.200; -829.000; -800.000
399.747; -208.100; -859.000; -771.000
399.875;  125.800;  220.000;  234.000
400.003;  -88.300; -359.000; -284.000
400.130; -177.900; -421.000; -341.000
400.258;    1.700;  -83.000;   38.000
400.386;  -94.400; -352.000; -168.000
400.514; -113.600; -526.000; -587.000
400.641; -233.200; -928.000; -802.000
400.769; -245.400; -979.000; -888.000
400.897; -191.700; -838.000; -793.000
401.025;  -10.000; -166.000; -152.000
401.152;   54.800;  220.000;   38.000
401.280;  -77.900; -430.000; -429.000
401.408; -207.600; -712.000; -576.000
401.535; -143.300; -735.000; -758.000
401.663; -341.500;-1134.000;-1054.000
401.790; -134.500; -514.000; -525.000
401.918;  109.100;  436.000;  405.000
402.046;   42.800;  134.000;  122.000
402.173;  -40.600;  -18.000;    7.000
402.301;  -92.600; -519.000; -397.000
402.428;  110.000;  528.000;  383.000
402.556; -237.400;-1188.000; -913.000
402.683;  -40.300;  -20.000;   -1.000
402.811;    6.600;  -37.000; -206.000
402.938;   30.000;   20.000;   27.000
403.066;   86.800; -574.000; -558.000
403.193;  234.500;  299.000;  239.000
403.321;  125.400; -396.000; -574.000
403.448;  275.100;   83.000;   27.000
403.575;  138.100;  -90.000;  -46.000
403.703; -160.500; -732.000; -557.000
403.830;  -70.300; -531.000; -496.000
403.957; -271.400;-1117.000;-1023.000
404.085;    1.500;  -61.000; -172.000
404.212;   75.600;  -50.000;   63.000
404.339;  148.600; -566.000; -306.000
404.467; 3622.600; -612.000; -524.000
404.594; 2224.800; -287.000; -227.000
404.721;  459.800; -869.000; -764.000
404.848;   72.000; -113.000; -202.000
404.976; -206.300; -856.000; -783.000
405.103;   27.400;  -14.000;  -82.000
405.230;   25.400;  190.000;  226.000
405.357;   80.300;  117.000;   44.000
405.484;  188.300;  -49.000;    5.000
405.612;  -35.700; -548.000; -563.000
405.739;  -97.600; -488.000; -243.000
405.866;  187.800;  669.000;  385.000
405.993;  -81.100; -398.000; -102.000
406.120; -211.900; -801.000; -887.000
406.247;  -75.100; -323.000; -342.000
406.374;  401.100;  540.000;  629.000
406.501;  -61.700; -632.000; -702.000
406.628; -107.700; -621.000; -589.000
406.755; -174.300; -803.000; -620.000
406.882;  -61.500; -228.000; -277.000
407.009; -193.500; -719.000; -628.000
407.136;  -14.300; -480.000; -401.000
407.263;  -88.700; -939.000; -829.000
407.390; -137.700; -692.000; -614.000
407.517; -300.400;-1139.000;-1187.000
407.644; -101.300; -332.000; -256.000
407.771; -103.100; -249.000; -287.000
407.898;   77.900;  168.000;  328.000
408.025; -133.800; -421.000; -313.000
408.151;    6.900;   82.000;  153.000
408.278;  -80.300; -267.000; -216.000
408.405; -228.600; -931.000; -899.000
408.532; -127.700; -549.000; -542.000
408.659; -183.800; -677.000; -648.000
408.785; -333.800;-1298.000;-1170.000
408.912; -100.000; -412.000; -296.000
409.039; -167.900; -610.000; -686.000
409.166; -146.100; -591.000; -555.000
409.292; -166.400; -571.000; -534.000
409.419; -171.300; -665.000; -649.000
409.546; -129.400; -431.000; -192.000
409.672; -161.300; -713.000; -545.000
409.799;  -29.400;  -36.000;   34.000
409.926;  -12.100; -180.000; -179.000
410.052; -321.800;-1127.000;-1091.000
410.179;  -82.500; -368.000; -392.000
410.305; -114.900; -375.000; -493.000
410.432;  -91.500; -220.000; -333.000
410.558; -132.600; -305.000; -380.000
410.685; -172.800; -688.000; -431.000
410.812; -153.300; -409.000; -588.000
410.938; -244.700; -964.000; -808.000
411.065; -165.200; -671.000; -645.000
411.191;  -16.900; -189.000; -174.000
411.317; -196.600; -823.000; -742.000
411.444;  -65.800; -317.000; -246.000
411.570;  -87.200; -339.000; -294.000
411.697; -204.200; -758.000; -752.000
411.823; -330.300; -989.000; -999.000
411.949;  -43.400;  -56.000;   17.000
412.076; -182.400; -539.000; -519.000
412.202; -164.100; -758.000; -757.000
412.329; -221.700; -798.000; -752.000
412.455; -200.000; -821.000; -657.000
412.581;  -20.500;  -15.000;  172.000
412.707; -117.800; -540.000; -457.000
412.834;   51.700;  156.000;  219.000
412.960; -157.800; -785.000; -784.000
413.086; -208.800; -743.000; -701.000
413.212;  200.400;  604.000;  578.000
413.339; -164.900; -685.000; -701.000
413.465;  -44.600; -364.000; -310.000
413.591; -203.800; -757.000; -474.000
413.717;  -54.600; -358.000; -366.000
413.843; -289.000; -839.000; -861.000
413.969;  -82.700;  -47.000; -292.000
414.096; -170.900; -679.000; -679.000
414.222;   -1.700;  -33.000;   85.000
414.348; -115.100; -652.000; -385.000
414.474;   71.700;   38.000;  -52.000
414.600;  -22.500; -126.000; -144.000
414.726;   12.100;  -96.000;  -55.000
414.852; -100.600; -365.000; -342.000
414.978;   50.700;  104.000;  -18.000
415.104;   40.500;   38.000;   80.000
415.230;  -39.900; -329.000; -330.000
415.356;  -63.600; -409.000; -514.000
415.482;  104.800;   13.000;  -35.000
415.608;  110.500; -247.000; -323.000
415.734;  705.200;   67.000;   38.000
415.860;13661.400; -875.000; -767.000
415.986; 9095.400; -685.000; -607.000
416.111;  646.700; -798.000; -652.000
416.237;   93.100; -424.000; -571.000
416.363;  685.400; -765.000; -733.000
416.489; 2701.200; -324.000; -251.000
416.615;   93.600; -707.000; -742.000
416.741; -135.800; -677.000; -784.000
416.866; -211.300; -673.000; -736.000
416.992; -198.200; -801.000; -818.000
417.118;  -53.200;  -41.000;  -80.000
417.244; -150.300; -798.000; -531.000
417.369; -178.000; -801.000; -612.000
417.495;  -22.300; -325.000; -254.000
417.621; -233.100;-1015.000; -803.000
417.746;  -70.500; -579.000; -572.000
417.872;   49.600; -254.000; -144.000
417.998;  -29.000; -515.000; -530.000
418.123;  564.300;-1073.000; -845.000
418.249; 3271.000; -512.000; -601.000
418.374;  253.400; -916.000; -824.000
418.500;    6.300; -383.000; -482.000
418.626;  126.800;   70.000;  -59.000
418.751;   35.000; -549.000; -448.000
418.877;    4.900; -637.000; -643.000
419.002; 1227.600; -688.000; -560.000
419.128; 7947.800; -930.000; -721.000
419.253; 1623.200; -967.000; -837.000
419.379;  139.900; -391.000; -338.000
419.504;  342.900;  325.000;  415.000
419.629;  308.300; -393.000; -212.000
419.755; 2415.500; -317.000; -254.000
419.880;13167.600;  -98.000;   67.000
420.006; 7554.100; -280.000; -221.000
420.131;19162.200; -662.000; -775.000
420.256; 2546.600; -315.000; -316.000
420.382;  219.200; -665.000; -687.000
420.507;  -53.400; -649.000; -778.000
420.632;   92.300; -337.000; -339.000
420.758;  166.200; -251.000; -425.000
420.883; -177.800; -876.000; -672.000
421.008; -148.900; -775.000; -619.000
421.133; -220.600; -509.000; -467.000
421.259;  -50.500; -325.000; -259.000
421.384; -204.800; -834.000; -693.000
421.509; -159.700;-1052.000; -862.000
421.634;  770.400; -936.000; -820.000
421.759;  317.500; -359.000; -327.000
421.885; -109.200; -717.000; -656.000
422.010; -131.400; -673.000; -542.000
422.135; -274.500; -695.000; -727.000
422.260;  131.000;  340.000;  280.000
422.385;  -25.700;   12.000;  -98.000
422.510;   46.100;  151.000;  -26.000
422.635;    2.100;  -87.000;  -43.000
422.760;    2.900; -766.000; -791.000
422.885;   62.500;  -57.000;  -80.000
423.010;   -0.700; -112.000; -169.000
423.135; -137.500; -481.000; -561.000
423.260;  -23.500; -150.000; -245.000
423.385;   86.500;  476.000;  222.000
423.510;   66.700;   71.000;  -22.000
423.635;   82.600;  133.000;   45.000
423.760;  166.700;  383.000;  328.000
423.885;   93.000;  336.000;  391.000
424.010;   37.400;  -68.000;  -13.000
424.135;  -41.300;    5.000;  -33.000
424.259; -111.800; -654.000; -457.000
424.384;  -83.300; -279.000; -272.000
424.509;  -15.800; -260.000; -186.000
424.634; -186.700; -761.000; -623.000
424.759;  -80.100; -688.000; -544.000
424.883;  -63.000; -506.000; -527.000
425.008;   58.900; -502.000; -410.000
425.133; 1237.100; -679.000; -653.000
425.258;  464.900; -517.000; -381.000
425.382;  639.700; -867.000; -774.000
425.507; 1679.300; -487.000; -543.000
425.632;  168.800; -802.000; -663.000
425.756;  265.500; -256.000; -146.000
425.881; 4258.200; -831.000; -857.000
426.006;10550.700; -604.000; -355.000
426.130; 1461.600; -696.000; -508.000
426.255;  154.100; -611.000; -491.000
426.379;   65.300; -189.000; -577.000
426.504;  383.700;  660.000;  544.000
426.629; 2608.300; -519.000; -466.000
426.753; 1696.900;   64.000;  -46.000
426.878;  126.800; -252.000; -288.000
427.002;  -32.300; -651.000; -668.000
427.127; 1137.100;  -35.000; -158.000
427.251; 7919.400;  372.000;  401.000
427.375; 1986.500; -191.000; -173.000
427.500; 1535.500; -616.000; -610.000
427.624;  403.200; -234.000; -400.000
427.749;   28.500; -216.000; -225.000
427.873; -137.600; -499.000; -412.000
427.997;  -43.800; -222.000; -230.000
428.122;  192.400;  795.000;  703.000
428.246;  127.500;  433.000;  434.000
428.371; -222.500; -869.000; -773.000
428.495; -156.700; -624.000; -646.000
428.619;  -18.500; -186.000; -117.000
428.743;   71.800;   65.000;  132.000
428.868;  -95.700; -732.000; -643.000
428.992;  935.400; -219.000; -326.000
429.116;  325.600; -329.000; -357.000
429.240;  285.400;  419.000;  426.000
429.365; -104.200; -454.000; -574.000
429.489;  -84.900; -638.000; -647.000
429.613;    0.100; -236.000; -177.000
429.737;  -23.500; -563.000; -432.000
429.861;  152.400; -247.000; -133.000
429.985; 3840.100; -425.000; -305.000
430.109; 3563.600; -770.000; -908.000
430.234;  459.900;   76.000;  -50.000
430.358;   26.200; -250.000; -160.000
430.482; -127.300; -672.000; -564.000
430.606; -101.100; -655.000; -375.000
430.730;  -17.700; -437.000; -388.000
430.854;  -44.300; -909.000; -835.000
430.978; -130.800; -795.000; -764.000
431.102; -127.100; -499.000; -422.000
431.226; -153.600; -874.000; -815.000
431.350;  117.000;  345.000;  422.000
431.474; -126.600; -661.000; -373.000
431.597; -281.600;-1060.000; -848.000
431.721; -107.600; -276.000; -267.000
431.845; -218.000; -704.000; -472.000
431.969;  -85.000; -304.000; -349.000
432.093; -101.400; -395.000; -317.000
432.217;   61.200;   32.000;   82.000
432.341; -152.500; -523.000; -518.000
432.464;   27.800;   96.000;   40.000
432.588;   42.100; -401.000; -329.000
432.712;   45.700;  -52.000;  -52.000
432.836;   86.900;  213.000;  263.000
432.959;  -81.800; -372.000; -311.000
433.083;   76.300;   11.000;    2.000
433.207;  365.000;  285.000;  930.000
433.330; 3269.000; -391.000; -200.000
433.454; 3663.200; -654.000; -638.000
433.578; 2348.800;  583.000;  278.000
433.701;  254.600; -623.000; -675.000
433.825;   22.800; -292.000; -299.000
433.949;  158.600;   28.000;  -72.000
434.072;  -24.400; -410.000; -323.000
434.196;    6.800; -309.000; -117.000
434.319; 7530.800;25482.000;25124.000
434.443;  415.300; -656.000; -603.000
434.566; 1671.400;  281.000;   62.000
434.690;  170.900; -637.000; -383.000
434.813;   -7.200; -251.000; -173.000
434.937; -144.100; -569.000; -696.000
435.060; -101.700; -423.000; -332.000
435.184;  128.900; -492.000; -217.000
435.307;  142.300;  159.000;  102.000
435.431;  -15.100;  -40.000;   24.000
435.554; -115.900; -399.000; -240.000
435.677; -122.000; -350.000; -258.000
435.801;  -15.400;  -25.000;   49.000
435.924;   48.800;    1.000;  -67.000
436.048; -224.000;-1019.000; -732.000
436.171;  -85.800; -240.000;  -66.000
436.294;  -67.000; -248.000; -229.000
436.417;  -99.900; -963.000; -849.000
436.541; -177.200; -814.000; -840.000
436.664;  -20.900; -242.000; -316.000
436.787;   17.600;   13.000;  113.000
436.910; -182.700; -792.000; -422.000
437.034;   66.800;  142.000;  143.000
437.157;  112.600;  -11.000;    0.000
437.280;  -97.000; -392.000; -292.000
437.403; -182.000; -982.000; -869.000
437.526;  393.300; -903.000; -865.000
437.649; 1688.200; -505.000; -332.000
437.772;  131.000; -692.000; -540.000
437.896;  238.400;  700.000;  544.000
438.019; -157.000; -758.000; -503.000
438.142; -125.900; -596.000; -506.000
438.265; -121.200; -639.000; -670.000
438.388;  317.400; -520.000; -410.000
438.511;  -38.900; -597.000; -394.000
438.634;  -78.000; -247.000; -125.000
438.757; -200.200; -693.000; -619.000
438.880;  -18.300;  -34.000;  -57.000
439.003; -103.200; -417.000; -437.000
439.126;  -66.400; -287.000; -167.000
439.248;  -57.800;  -98.000; -139.000
439.371;    4.200;    9.000;  -53.000
439.494;  123.500;  510.000;  439.000
439.617;  -43.600;   65.000;  -88.000
439.740; -285.700; -968.000; -816.000
439.863; -226.500; -755.000; -595.000
439.986; -171.100; -476.000; -431.000
440.108;  -51.500; -161.000; -112.000
440.231; -295.300; -950.000; -836.000
440.354;  -60.100;  -64.000; -150.000
440.477;  -88.000; -566.000; -542.000
440.599;  -55.000; -200.000; -225.000
440.722; -209.600; -709.000; -586.000
440.845;  185.600;  751.000;  928.000
440.968; -142.800; -415.000; -311.000
441.090;  -66.900; -199.000;  -33.000
441.213; -251.600;-1021.000; -825.000
441.336;  -34.500; -159.000;   -5.000
441.458; -113.200; -549.000; -396.000
441.581; -164.100; -628.000; -629.000
441.703; -118.600; -152.000;   13.000
441.826; -158.700; -557.000; -400.000
441.948;  -29.300;   56.000;   51.000
442.071;  129.500;  555.000;  424.000
442.193; -173.900; -531.000; -485.000
442.316;   43.500;  152.000;   97.000
442.438;  -22.900; -233.000;  -10.000
442.561;  116.300;  272.000;  262.000
442.683;  335.100; -809.000; -522.000
442.806;  880.500;   -8.000;   74.000
442.928; -125.600; -859.000; -604.000
443.051; -142.100; -577.000; -373.000
443.173; -131.900; -341.000; -339.000
443.295; -122.800; -263.000; -371.000
443.418;  -89.300; -321.000;  -29.000
443.540;   -9.300; -106.000;   -4.000
443.662; -197.000; -563.000; -465.000
443.785;   30.800;  335.000;  199.000
443.907; -180.400; -362.000; -208.000
444.029; -196.200; -767.000; -494.000
444.152; -210.100; -644.000; -554.000
444.274;    9.000;  -18.000;  -24.000
444.396; -140.300; -461.000; -221.000
444.518; -169.200; -691.000; -454.000
444.640; -133.800; -268.000; -111.000
444.763;   36.600;  388.000;  249.000
444.885; -193.000; -432.000; -392.000
445.007;    2.700;   35.000;   86.000
445.129; -221.000; -610.000; -515.000
445.251; -143.900; -372.000; -439.000
445.373; -195.400; -537.000; -386.000
445.495;   62.100;  242.000;  350.000
445.617;  135.300;  853.000;  753.000
445.739;  -92.100; -215.000;  -97.000
445.861;  -38.000; -245.000; -112.000
445.984;  -59.300; -267.000; -101.000
446.105;  117.600; -418.000; -251.000
446.227;  448.100; -176.000;  -19.000
446.349; -118.200; -358.000; -249.000
446.471; -164.600; -615.000; -448.000
446.593;  -88.700; -316.000;   19.000
446.715;   15.700;  -67.000;   41.000
446.837;  139.700;  697.000;  832.000
446.959; -143.500; -457.000; -478.000
447.081; -250.700; -628.000; -518.000
447.203;  220.400;  862.000;  834.000
447.325; -107.600; -270.000;   42.000
447.446;   32.200;  286.000;  530.000
447.568; -274.800; -921.000; -803.000
447.690;  -95.600; -236.000; -245.000
447.812; -228.600; -798.000; -519.000
447.933;   14.000;  155.000;  127.000
448.055; -109.500; -306.000; -261.000
448.177;  184.600;   31.000;   79.000
448.299; -106.200; -935.000; -727.000
448.420;   68.600;  -25.000;  159.000
448.542;  -48.300;   -3.000;   33.000
448.664;   33.300;  109.000;  322.000
448.785;  -23.700;  265.000;   83.000
448.907; -101.400; -614.000; -353.000
449.028;  -92.300; -771.000; -471.000
449.150;  169.300;  492.000;  589.000
449.272; -301.000;-1044.000; -913.000
449.393;  122.800;  612.000;  694.000
449.515; -233.100; -634.000; -581.000
449.636;  -79.900; -264.000; -155.000
449.758;  205.400;  763.000;  622.000
449.879; -126.200; -498.000; -396.000
450.001;  -83.500; -149.000;  -49.000
450.122;  -10.600;  -95.000;  162.000
450.244;  -10.000;   37.000;  364.000
450.365; -146.100; -495.000; -301.000
450.486;  -44.200;   80.000;  268.000
450.608;  112.100;  393.000;  326.000
450.729;  134.100;  578.000;  645.000
450.850;  -76.900; -574.000; -466.000
450.972;  410.200; -552.000; -389.000
451.093; 3230.200;  190.000;  588.000
451.214; 1110.300; -516.000; -337.000
451.336;  375.000;  773.000;  579.000
451.457;  103.700;  264.000;  393.000
451.578;  -17.000; -118.000;  -74.000
451.699; -205.600; -546.000; -540.000
451.821;  -87.100; -284.000;  -50.000
451.942;   20.400;  278.000;  285.000
452.063;   91.400;  228.000;  419.000
452.184;  354.200;  -54.000;  -49.000
452.305;  744.600;  103.000;  170.000
452.427;  -32.200; -549.000; -301.000
452.548;  -38.000;   23.000;   79.000
452.669;  -54.000; -257.000;  -89.000
452.790;  -32.900;    3.000;  -18.000
452.911;   20.200;  195.000;  259.000
453.032;  -82.900; -289.000;  -60.000
453.153;  -36.400;  -29.000;   81.000
453.274;  222.000;  737.000;  868.000
453.395;  -53.200;  -51.000;  175.000
453.516;  304.600; 1317.000; 1388.000
453.637;  -99.500; -205.000; -150.000
453.758;  -49.600;   15.000;   69.000
453.879; -187.600; -462.000; -250.000
454.000;  263.700; 1086.000;  948.000
454.121; -213.700; -554.000; -326.000
454.242; -173.400; -599.000; -383.000
454.362;  -65.600;  -99.000;  114.000
454.483;  -46.300; -309.000; -229.000
454.604;  118.600;  512.000;  580.000
454.725; -161.500; -627.000; -555.000
454.846; -210.300; -474.000; -406.000
454.967;    3.100;  230.000;  539.000
455.087;  -22.000;  179.000;  153.000
455.208;  136.700;  554.000;  856.000
455.329;  -52.600;  -22.000;   82.000
455.450;  152.400;  473.000;  633.000
455.570; -118.400; -234.000; -211.000
455.691;   16.000;  201.000;  407.000
455.812; -177.100; -270.000;  -92.000
455.932;  -48.300;  107.000;  -97.000
456.053;  -96.900;   36.000;   24.000
456.173; -128.500; -433.000; -355.000
456.294; -186.100; -476.000; -303.000
456.415;  -46.500;  -73.000;   70.000
456.535;   -3.600;  297.000;  273.000
456.656;  -17.900;  132.000;  240.000
456.776;  -53.900;    3.000;  298.000
456.897;   61.100;  308.000;  513.000
457.017;  -80.100; -153.000;   -3.000
457.138; -158.900; -402.000; -249.000
457.258;   13.800;  263.000;  224.000
457.379;   55.800;  509.000;  521.000
457.499;   18.800;  443.000;  432.000
457.620; -198.800; -407.000; -231.000
457.740;  -93.700; -132.000;  -11.000
457.860;  -55.100;   87.000;   44.000
457.981;  -63.500;  132.000;  124.000
458.101;  -69.100;  -89.000;   40.000
458.221;   40.700;  336.000;  402.000
458.342;  -30.500;   -4.000;  -37.000
458.462;   59.900;  617.000;  352.000
458.582;  -81.400; -302.000; -294.000
458.703;   22.500;  303.000;  154.000
458.823;   -0.700;   22.000;  163.000
458.943;   38.400;  341.000;  467.000
459.063;  -14.900; 1124.000;  192.000
459.183;  -11.900;  328.000;  313.000
459.304;   76.500;  315.000;  517.000
459.424;  -97.200; -246.000;  -89.000
459.544;  343.800;  388.000;  764.000
459.664;  630.600;  499.000;  506.000
459.784;  354.900; 1004.000; 1175.000
459.904;  135.300;  867.000;  744.000
460.024;  165.600;  867.000;  684.000
460.144;   34.900;  449.000;  554.000
460.264;   66.500;  515.000;  327.000
460.385; -128.100; -145.000; -119.000
460.505;  150.000;  905.000;  858.000
460.625; -117.300;  -17.000;  -68.000
460.745;   45.300;  396.000;  541.000
460.864;  -19.600;  153.000;  469.000
460.984;  121.500;  499.000;  573.000
461.104;  317.600; 1656.000; 1775.000
461.224;  120.800;  657.000;  650.000
461.344;   -0.600;  431.000;  360.000
461.464;   -7.100;  258.000;  513.000
461.584;   24.800;  283.000;  466.000
461.704;  -34.500;   58.000;  108.000
461.824;  -57.000;  238.000;  259.000
461.943;    3.400;  191.000;  130.000
462.063;  -80.700;    2.000;  324.000
462.183;  108.600;  639.000;  717.000
462.303;  275.100; 1678.000; 1230.000
462.422;  137.800;  781.000;  840.000
462.542;  -46.900;  271.000;  391.000
462.662;   85.500;  353.000;  380.000
462.782;  242.400;  833.000;  572.000
462.901;  398.700;  545.000;  717.000
463.021;  417.300; 1702.000; 1638.000
463.141;    9.800;  337.000;  770.000
463.260;   34.400;  614.000;  474.000
463.380;  113.100;  902.000;  884.000
463.499;   -6.800;  342.000;  332.000
463.619;   38.100;  581.000;  559.000
463.738;  285.700; 1644.000;  903.000
463.858;   89.700;  657.000;  811.000
463.978;   -3.700;  542.000;  396.000
464.097;  185.200;  921.000; 1114.000
464.217;  254.400; 1196.000; 1143.000
464.336;  227.800; 1068.000; 1130.000
464.455;  -22.700;  328.000;  659.000
464.575;  103.300;  597.000;  602.000
464.694;  298.400; 1204.000; 1179.000
464.814;  239.300; 1190.000; 1138.000
464.933;  197.100; 1095.000; 1027.000
465.052;  261.000; 1412.000; 1054.000
465.172;  173.500;  922.000;  799.000
465.291;  289.100; 1376.000; 1320.000
465.410;   73.600;  462.000;  735.000
465.530;  253.300; 1355.000; 1310.000
465.649;  184.800; 1209.000; 1273.000
465.768;  343.100; 1673.000; 1508.000
465.888;  160.700;  941.000; 1174.000
466.007;  276.500; 1335.000; 1440.000
466.126;   50.200;  721.000;  641.000
466.245;  209.200; 1176.000; 1187.000
466.364;  116.400;  950.000; 1060.000
466.484;  184.200; 1024.000; 1213.000
466.603;  145.600; 1101.000; 1222.000
466.722;  338.600; 1490.000; 1769.000
466.841;  212.900; 1151.000; 1401.000
466.960;  136.200; 1069.000;  972.000
467.079;  335.300; 1971.000; 1786.000
467.198;  230.000; 1238.000; 1181.000
467.317;  242.000; 1768.000; 1162.000
467.436;  262.900; 1709.000; 1261.000
467.555;  374.800; 1796.000; 1746.000
467.674;  205.100; 1227.000; 1329.000
467.793;  206.800; 1376.000; 1374.000
467.912;  292.500; 1658.000; 1539.000
468.031;  351.400; 2038.000; 1930.000
468.150;  375.900; 1842.000; 1837.000
468.269;  455.700; 2313.000; 2090.000
468.388;  461.000; 2168.000; 2339.000
468.507;  620.600; 2884.000; 2903.000
468.626;  610.600; 2555.000; 2541.000
468.744;  382.500; 2018.000; 2174.000
468.863;  464.600; 2312.000; 2523.000
468.982;  239.100; 1503.000; 1555.000
469.101;  548.700; 2788.000; 2692.000
469.220;  356.600; 2333.000; 2176.000
469.338;  602.500; 2935.000; 3051.000
469.457;  481.700; 2719.000; 2545.000
469.576;  760.900; 3953.000; 3784.000
469.695;  548.900; 2877.000; 3066.000
469.813;  976.200; 4148.000; 4192.000
469.932;  852.600; 4255.000; 4485.000
470.051;  858.900; 4075.000; 4161.000
470.169; 1133.800; 4470.000; 4338.000
470.288; 1613.000; 4700.000; 4809.000
470.406; 1243.900; 5059.000; 5194.000
470.525; 1252.000; 6101.000; 5787.000
470.644; 1376.900; 6847.000; 6794.000
470.762; 1711.200; 8397.000; 7873.000
470.881; 1836.800; 8651.000; 8464.000
470.999; 2040.700; 9685.000; 9151.000
471.118; 2326.900;11174.000;10711.000

