
Integration time [ms]: 200.000
Averaging Nr. [scans]: 10
Smoothing Nr. [pixels]: 0
Data measured with spectrometer [name]: 2101012U2
Wave   ;Sample   ;Dark     ;Reference
[nm]   ;[counts] ;[counts] ;[counts] 

197.733;  127.000;  516.000;  404.000
197.879; -188.300; -610.000; -634.000
198.025; -100.300; -475.000; -420.000
198.171; -125.300; -602.000; -612.000
198.317;  -60.200; -401.000; -316.000
198.463; -119.300; -655.000; -404.000
198.609;   86.300;  181.000; -137.000
198.755; -172.300; -644.000; -410.000
198.901; -130.200; -505.000; -424.000
199.047; -109.500; -615.000; -488.000
199.193;  -81.600; -230.000; -468.000
199.339;  -86.100; -222.000; -369.000
199.485;   74.000;  330.000;  271.000
199.631;   84.200;  227.000;  310.000
199.777;  -94.100; -466.000; -398.000
199.923; -149.700; -610.000; -424.000
200.069;   13.600; -141.000;  -58.000
200.215;  122.000;  128.000;  453.000
200.361;   87.300;  243.000;  477.000
200.507; -147.500; -600.000; -373.000
200.653;  -48.100; -371.000; -194.000
200.798;  -74.000; -215.000; -125.000
200.944;   -7.800; -146.000;  -41.000
201.090;   90.800;   61.000;  222.000
201.236;    0.800; -116.000; -158.000
201.382;  298.200;  874.000;  903.000
201.528;   -6.700;  -58.000;  -48.000
201.674; -112.100; -386.000; -293.000
201.819; -128.600; -540.000; -439.000
201.965; -176.000; -699.000; -447.000
202.111;  -66.100; -273.000; -226.000
202.257;  -94.700; -250.000; -238.000
202.402;   20.500;   13.000;  -36.000
202.548;  -76.000; -169.000; -116.000
202.694;  172.900;  410.000; -183.000
202.840; -180.100; -603.000; -531.000
202.985; -154.600; -681.000; -639.000
203.131; -233.400; -832.000; -666.000
203.277;  -21.800; -199.000; -262.000
203.423; -109.800; -434.000; -520.000
203.568;  -72.800; -462.000; -237.000
203.714; -163.800; -535.000; -542.000
203.860; -178.700; -682.000; -641.000
204.005;   33.200;  112.000;  167.000
204.151;  180.700;  561.000;  556.000
204.296;  -90.000; -354.000; -221.000
204.442; -148.200; -600.000; -547.000
204.588; -174.500; -592.000; -579.000
204.733;   40.700;  178.000;  168.000
204.879; -296.400;-1018.000; -822.000
205.025;   22.600;  -99.000;  126.000
205.170;   28.600;  -17.000;   94.000
205.316;  173.400;  438.000;  661.000
205.461; -179.800; -698.000; -554.000
205.607;  178.500;  609.000;  665.000
205.752; -147.200; -626.000; -551.000
205.898; -121.000; -501.000; -391.000
206.043; -106.500; -578.000; -506.000
206.189; -107.800; -243.000; -285.000
206.334;  140.600;  554.000;  606.000
206.480;  184.300;  409.000;  239.000
206.625; -186.500; -529.000; -552.000
206.771; -116.800; -451.000; -373.000
206.916;  -51.300; -210.000; -537.000
207.062; -127.100; -545.000; -591.000
207.207; -140.100; -546.000; -443.000
207.353;  123.700;  185.000;  460.000
207.498;    5.800;  196.000;   85.000
207.643; -129.800; -501.000; -370.000
207.789; -249.300;-1069.000; -910.000
207.934; -235.900; -665.000; -713.000
208.080;  -81.500; -154.000;   66.000
208.225;  -20.300;  -22.000;  -57.000
208.370; -181.800; -727.000; -619.000
208.516; -163.600; -741.000; -487.000
208.661;  -89.900; -127.000;  -69.000
208.806;  -54.900; -165.000; -171.000
208.952; -272.700;-1044.000; -731.000
209.097;  192.800;  378.000;  349.000
209.242;  -63.500; -307.000; -382.000
209.387;  115.400;  392.000;  350.000
209.533;  -91.900; -321.000; -350.000
209.678;  169.800;  472.000;  543.000
209.823;  -96.600; -408.000; -310.000
209.969; -224.800; -860.000; -757.000
210.114; -220.100; -907.000; -719.000
210.259; -247.800; -939.000; -889.000
210.404;  -11.600; -171.000;  103.000
210.549;   32.800;  108.000;    3.000
210.695;  -27.600;   -3.000;  -95.000
210.840;   72.900;   94.000;   67.000
210.985; -128.100; -484.000; -303.000
211.130;  147.300;  268.000;  406.000
211.275;   47.800;  207.000;  199.000
211.420; -104.200; -300.000; -289.000
211.566; -150.200; -536.000; -489.000
211.711;   76.700;  218.000;  157.000
211.856; -146.300; -545.000; -519.000
212.001;   27.300;  151.000;   44.000
212.146;   12.000;  153.000;   49.000
212.291;  -51.900; -210.000; -186.000
212.436;  -76.900; -280.000;   -6.000
212.581; -174.500; -685.000; -653.000
212.726; -157.200; -487.000; -538.000
212.871; -127.100; -552.000; -217.000
213.016; -319.300;-1172.000;-1029.000
213.161;  137.900;  406.000;  291.000
213.306; -186.200; -435.000; -577.000
213.451; -181.400; -778.000; -689.000
213.596; -112.300; -455.000; -347.000
213.741;  -91.700; -448.000; -538.000
213.886; -152.500; -498.000; -517.000
214.031;  -25.100; -294.000; -124.000
214.176;  -86.800; -408.000; -341.000
214.321;  -61.300; -296.000; -157.000
214.466;  -57.400; -163.000;  -43.000
214.611;  -12.900;  -61.000;  -10.000
214.756; -242.000; -948.000; -858.000
214.901;  -35.100; -388.000; -226.000
215.046; -227.400; -797.000; -825.000
215.191;   76.100;  128.000;   35.000
215.336;  -25.600; -157.000;  -19.000
215.480; -116.600; -684.000; -505.000
215.625;    0.300; -175.000;  -19.000
215.770; -182.300; -757.000; -662.000
215.915;  -12.000;   -5.000;  -97.000
216.060;   35.600; -113.000;  -21.000
216.205; -233.700; -731.000; -779.000
216.349; -141.700; -470.000; -533.000
216.494; -290.600; -939.000; -867.000
216.639; -251.900; -823.000; -888.000
216.784; -202.900; -577.000; -525.000
216.929;  103.500;  392.000;  281.000
217.073;   -3.800; -244.000;  -31.000
217.218;   13.000;   78.000;  -47.000
217.363; -209.600; -656.000; -618.000
217.507; -158.400; -623.000; -588.000
217.652; -239.800; -845.000; -874.000
217.797; -203.700; -708.000; -659.000
217.942; -233.600; -856.000; -720.000
218.086;  134.100;  608.000;  539.000
218.231;  -64.400; -174.000;  -26.000
218.376;  -80.100; -337.000; -229.000
218.520;   37.000;  -41.000;   96.000
218.665;  -62.800; -338.000; -204.000
218.810;  -47.700; -275.000; -233.000
218.954;   30.300;  201.000;   35.000
219.099; -244.900; -713.000; -963.000
219.243; -134.100; -589.000; -554.000
219.388;  -53.300; -264.000; -136.000
219.532;  -17.500; -116.000; -116.000
219.677; -159.100; -564.000; -521.000
219.822;   26.800;   33.000;   89.000
219.966;    5.900;   17.000;  -99.000
220.111;  -33.300; -328.000;  -40.000
220.255; -188.200; -797.000; -750.000
220.400;  -55.900; -180.000; -146.000
220.544; -133.200; -516.000; -450.000
220.689; -129.000; -422.000; -451.000
220.833;  -48.900; -123.000;  -58.000
220.978;  -99.900; -393.000; -563.000
221.122;   34.300;  319.000;  307.000
221.267; -220.100; -906.000; -837.000
221.411; -148.600; -478.000; -394.000
221.555;   -7.500; -104.000;  -23.000
221.700;  -58.800; -329.000; -222.000
221.844;   80.000;  255.000;  272.000
221.989; -113.900; -328.000; -311.000
222.133;  -72.300; -289.000; -307.000
222.277;  -18.600;    5.000;   78.000
222.422;   45.600;  227.000;  113.000
222.566;  -69.300; -381.000; -214.000
222.711; -103.000; -414.000; -479.000
222.855; -150.900; -643.000; -586.000
222.999; -161.100; -642.000; -717.000
223.144;  -45.500; -195.000; -194.000
223.288;  108.800;  423.000;  251.000
223.432;   64.500;  184.000;  230.000
223.576;   54.400;  152.000;  -21.000
223.721;   62.200;  364.000;  273.000
223.865; -105.800; -472.000; -475.000
224.009;  556.300; 1673.000; 1631.000
224.153; -163.900; -660.000; -671.000
224.298; -128.200; -531.000; -489.000
224.442;  -35.400;  -74.000;  -33.000
224.586;   -0.200; -169.000; -106.000
224.730; -209.000; -858.000; -670.000
224.875; -230.000; -739.000; -688.000
225.019;   27.800;  102.000;  188.000
225.163;  115.100;  208.000;  341.000
225.307;   62.100;   97.000;  -91.000
225.451;  118.100;  360.000;  481.000
225.595;   81.500;  264.000;  176.000
225.739;  -51.100; -170.000;  -94.000
225.884;   13.200;   86.000;    5.000
226.028; -179.800; -760.000; -626.000
226.172;  -79.800; -260.000; -273.000
226.316; -236.600; -941.000; -902.000
226.460; -155.500; -645.000; -493.000
226.604;  -77.500; -406.000; -400.000
226.748; -203.500; -836.000; -733.000
226.892;  -58.100; -227.000; -181.000
227.036;  -86.900; -537.000; -447.000
227.180; -112.600; -551.000; -375.000
227.324; -137.100; -561.000; -580.000
227.468; -216.500; -819.000; -717.000
227.612;   37.700;  242.000;  -28.000
227.756; -182.600; -845.000; -698.000
227.900;  128.200;  342.000;  441.000
228.044; -118.100; -509.000; -290.000
228.188;  114.800;  448.000;  568.000
228.332; -174.400; -546.000; -472.000
228.476;  -68.700; -223.000; -149.000
228.620;  -38.200; -210.000; -150.000
228.764;  170.800;  431.000;  349.000
228.908;  -20.100; -155.000;   30.000
229.052; -122.100; -615.000; -528.000
229.195;   -9.800; -172.000;   13.000
229.339;  -80.300; -235.000; -305.000
229.483;  -25.500;    5.000; -162.000
229.627;   24.500; -156.000;  139.000
229.771;  -87.400; -218.000; -294.000
229.915;   49.500;  230.000;   79.000
230.059; -187.500; -648.000; -663.000
230.202;  -57.200; -370.000; -317.000
230.346;  -12.000; -107.000;  107.000
230.490; -150.400; -489.000; -521.000
230.634; -213.900; -736.000; -553.000
230.777;  159.300;  478.000;  509.000
230.921; -113.600; -450.000; -359.000
231.065;  -87.100; -246.000; -286.000
231.209;   51.500;  261.000;  265.000
231.352;   20.600;   54.000;   40.000
231.496;   75.700;  568.000;  188.000
231.640; -156.800; -693.000; -621.000
231.783;  149.900;  546.000;  525.000
231.927;  -74.200; -294.000; -365.000
232.071; -259.900; -962.000; -736.000
232.214; -218.700; -980.000; -764.000
232.358; -200.900; -683.000; -599.000
232.502;    5.400;  -19.000;    7.000
232.645; -270.300;-1090.000; -927.000
232.789;  -14.700; -257.000; -218.000
232.933;  -74.400; -407.000; -224.000
233.076; -239.200;-1038.000; -897.000
233.220; -216.300; -752.000; -777.000
233.363; -137.600; -669.000; -477.000
233.507;  133.400;  371.000;  129.000
233.650; -207.900; -764.000; -834.000
233.794;  100.000;  438.000;  461.000
233.938; -136.500; -530.000; -362.000
234.081;  -23.300;  -93.000;   31.000
234.225; -154.600; -631.000; -539.000
234.368; -223.100; -773.000; -723.000
234.512;  -81.800; -385.000; -299.000
234.655; -179.300; -582.000; -555.000
234.798; -132.300; -493.000; -466.000
234.942; -241.200; -884.000;-1002.000
235.085; -149.500; -651.000; -443.000
235.229; -180.600; -405.000; -410.000
235.372; -118.000; -247.000; -191.000
235.516; -123.800; -397.000; -321.000
235.659;   53.500;   92.000;  121.000
235.802;  -31.900;  -38.000;  -22.000
235.946;   66.400;  335.000;  215.000
236.089;   68.900;  126.000;  250.000
236.233;   96.300;  275.000;  298.000
236.376; -102.500; -235.000; -378.000
236.519; -108.800; -297.000; -319.000
236.663;  -31.100; -215.000; -117.000
236.806; -283.800;-1029.000; -999.000
236.949;  126.900;  543.000;  431.000
237.092;  112.500;  412.000;  391.000
237.236; -171.900; -589.000; -502.000
237.379;  169.200;  352.000;  428.000
237.522; -226.300; -879.000; -768.000
237.666;   -5.100; -271.000;   18.000
237.809; -247.000; -851.000; -823.000
237.952;  107.400;  469.000;  271.000
238.095; -132.700; -447.000; -442.000
238.238;  205.400;  688.000;  700.000
238.382;    5.800;  166.000;  103.000
238.525; -128.000; -598.000; -511.000
238.668; -292.200;-1060.000; -985.000
238.811; -159.500; -638.000; -643.000
238.954; -147.400; -483.000; -334.000
239.097;  230.800;  617.000;  664.000
239.241;   64.500;  394.000;  326.000
239.384;  -52.000; -254.000; -214.000
239.527; -104.000; -424.000; -224.000
239.670; -306.300; -994.000;-1091.000
239.813; -223.500; -696.000; -658.000
239.956;  172.300;  579.000;  473.000
240.099; -243.000; -778.000; -725.000
240.242;  124.200;  428.000;  432.000
240.385;  106.800;  466.000;  450.000
240.528; -148.900; -706.000; -473.000
240.671;   55.100;  189.000;  134.000
240.814;  -77.400; -441.000; -158.000
240.957; -203.100; -767.000; -578.000
241.100; -228.300; -779.000; -755.000
241.243; -301.900;-1234.000; -893.000
241.386; -160.200; -508.000; -379.000
241.529; -184.500; -735.000; -547.000
241.672; -102.300; -566.000; -495.000
241.815; -237.500; -832.000; -808.000
241.958;  -53.500; -125.000; -182.000
242.101; -125.700; -545.000; -390.000
242.244;  -94.400; -270.000; -325.000
242.387;  -67.100; -304.000; -246.000
242.530;  119.800;  470.000;  134.000
242.673; -100.500; -381.000; -309.000
242.815; -241.800; -925.000; -899.000
242.958; -132.000; -482.000; -381.000
243.101;    2.300;  132.000;  187.000
243.244; -164.600; -564.000; -521.000
243.387; -105.700; -313.000; -316.000
243.530; -185.000; -657.000; -674.000
243.672;   -6.900;   43.000;  -92.000
243.815;  -90.800; -355.000; -283.000
243.958;   23.000;   98.000;  -26.000
244.101;   28.900;   59.000;  -16.000
244.243;   -7.000;  -47.000;  101.000
244.386; -232.600; -761.000; -630.000
244.529;  -31.500; -132.000; -139.000
244.672; -311.300;-1154.000; -951.000
244.814; -200.000; -621.000; -794.000
244.957; -117.400; -380.000; -304.000
245.100; -131.000; -489.000; -489.000
245.242; -120.300; -387.000; -374.000
245.385;   16.700;  -59.000;  -39.000
245.528; -247.900; -871.000; -705.000
245.670;  169.500;  612.000;  634.000
245.813; -157.200; -599.000; -547.000
245.956;  -70.900; -324.000; -275.000
246.098; -148.900; -508.000; -650.000
246.241;   45.000;  194.000;   48.000
246.383;  -28.900; -119.000;  -73.000
246.526; -168.900; -454.000; -525.000
246.669; -259.800; -889.000; -780.000
246.811;   83.300;  172.000;   -1.000
246.954; -109.600; -512.000; -426.000
247.096;  -48.800;  -84.000;   -6.000
247.239; -111.900; -482.000; -445.000
247.381; -157.400; -647.000; -488.000
247.524;  205.100;  645.000;  679.000
247.666;    6.600;   58.000;   11.000
247.809; -211.400; -887.000; -691.000
247.951;    8.200;  -75.000;  138.000
248.094;   87.600;  432.000;  308.000
248.236; -330.300;-1262.000;-1238.000
248.378;   19.000; -356.000;  -81.000
248.521;  -18.100; -334.000; -337.000
248.663;  -75.800; -236.000; -267.000
248.806;  -41.000; -300.000; -266.000
248.948; -187.400; -886.000; -763.000
249.090; -107.200; -428.000; -398.000
249.233; -145.900; -344.000; -381.000
249.375; -152.600; -474.000; -451.000
249.518;    2.700;  -83.000; -133.000
249.660;   -6.400; -103.000;    3.000
249.802; -368.700;-1303.000;-1189.000
249.945; -184.200; -612.000; -540.000
250.087; -241.400; -834.000; -768.000
250.229; -104.800; -362.000; -480.000
250.371; -147.100; -494.000; -439.000
250.514; -107.600; -310.000; -244.000
250.656;  -20.000;   69.000;  102.000
250.798; -227.500; -849.000; -800.000
250.940; -135.900; -322.000; -322.000
251.083;  -28.900; -335.000; -111.000
251.225;  114.100;  338.000;  310.000
251.367;  -74.900; -274.000; -373.000
251.509;  -41.100; -265.000; -210.000
251.651; -213.700; -731.000; -671.000
251.794;  139.000;  538.000;  632.000
251.936; -233.000; -821.000; -747.000
252.078; -135.400; -540.000; -461.000
252.220; -101.200; -645.000; -477.000
252.362;  155.200;  344.000;  462.000
252.504; -120.400; -677.000; -584.000
252.646; -216.600; -875.000; -722.000
252.788;   -8.900;   14.000; -128.000
252.931;  -77.200; -257.000; -253.000
253.073;  -87.700; -376.000; -317.000
253.215;   -9.500;  141.000;  122.000
253.357;  -27.300;   82.000; -153.000
253.499; -116.600; -374.000; -234.000
253.641; -178.800; -749.000; -594.000
253.783; -165.900; -609.000; -527.000
253.925; -171.000; -586.000; -591.000
254.067; -222.600; -744.000; -667.000
254.209;  -62.300; -391.000; -259.000
254.351; -289.700; -865.000; -883.000
254.493; -120.000; -441.000; -417.000
254.635; -210.900; -936.000; -818.000
254.777; -184.000; -752.000; -687.000
254.918; -141.000; -512.000; -430.000
255.060;  -99.900; -551.000; -395.000
255.202; -129.200; -473.000; -261.000
255.344; -138.400; -658.000; -455.000
255.486; -139.100; -471.000; -406.000
255.628; -229.200; -780.000; -781.000
255.770; -180.500; -676.000; -536.000
255.912; -109.900; -559.000; -468.000
256.053; -191.900; -730.000; -508.000
256.195;  348.500; 1008.000;  903.000
256.337; -210.700; -861.000; -595.000
256.479;  162.100;  532.000;  416.000
256.621;  -85.600; -394.000; -212.000
256.762; -196.700; -789.000; -742.000
256.904;  153.900;  485.000;  487.000
257.046;  -98.800; -381.000; -271.000
257.188;  -89.900; -351.000; -264.000
257.329; -142.200; -525.000; -464.000
257.471; -207.200; -939.000; -807.000
257.613; -109.400; -584.000; -498.000
257.755; -285.900;-1073.000; -982.000
257.896;   80.700;  286.000;  392.000
258.038; -129.900; -403.000; -352.000
258.180;  -78.200; -354.000; -279.000
258.321; -187.100; -581.000; -457.000
258.463;   10.400;  -71.000;  133.000
258.605; -167.300; -562.000; -570.000
258.746; -212.400; -886.000; -772.000
258.888; -302.200;-1026.000;-1020.000
259.029;   44.800;  121.000;   -8.000
259.171; -171.600; -614.000; -550.000
259.313;   -1.800;  -49.000;  -47.000
259.454; -135.700; -536.000; -414.000
259.596; -103.800; -483.000; -390.000
259.737; -149.200; -590.000; -474.000
259.879;   97.200;  217.000;  311.000
260.020;  265.900;  901.000;  636.000
260.162;  -60.200; -146.000; -253.000
260.303; -212.900; -768.000; -687.000
260.445; -172.900; -609.000; -613.000
260.586;   58.700;  392.000;  157.000
260.728;  -75.700; -360.000; -248.000
260.869; -151.200; -350.000; -343.000
261.011;  190.700;  706.000;  537.000
261.152;  -99.800; -479.000; -319.000
261.293; -166.900; -576.000; -595.000
261.435;  -62.700; -219.000; -184.000
261.576; -107.100; -455.000; -325.000
261.718;  155.600;  420.000;  470.000
261.859; -249.300; -940.000; -949.000
262.000; -263.700; -951.000;-1016.000
262.142;  -13.100;  -52.000;  -60.000
262.283; -211.900; -808.000; -691.000
262.424; -201.200; -666.000; -625.000
262.566; -297.600;-1161.000; -983.000
262.707; -209.800; -840.000; -830.000
262.848; -233.300; -769.000; -726.000
262.990;  -83.300; -362.000; -345.000
263.131;  217.200;  650.000;  681.000
263.272;  -14.800;  -61.000;  -41.000
263.413; -153.400; -589.000; -561.000
263.555; -125.200; -669.000; -143.000
263.696; -150.600; -550.000; -641.000
263.837;  -98.600; -449.000; -551.000
263.978;   36.400;   -5.000;  -77.000
264.119;  -76.400; -283.000; -264.000
264.261; -212.400; -847.000; -630.000
264.402;   -7.100;   33.000;   40.000
264.543; -137.300; -509.000; -524.000
264.684;   66.700;   61.000;  -50.000
264.825; -130.400; -816.000; -538.000
264.966;  -17.800;  -84.000;  -67.000
265.107; -228.900; -646.000; -670.000
265.248; -243.900; -825.000; -812.000
265.390;   20.300;  152.000;   -9.000
265.531;  -63.700; -238.000; -107.000
265.672; -168.600; -557.000; -630.000
265.813;  129.900;  563.000;  439.000
265.954; -295.200; -959.000; -940.000
266.095;    4.300; -372.000; -322.000
266.236; -155.900; -686.000; -548.000
266.377;  -57.900; -243.000; -297.000
266.518; -115.200; -619.000; -547.000
266.659;   49.200;  170.000;  268.000
266.800;   34.700;   83.000;   85.000
266.941; -143.200; -487.000; -478.000
267.082;   21.100;  354.000;   99.000
267.223; -115.000; -344.000; -273.000
267.364; -235.500; -892.000; -686.000
267.504;  -11.300;    3.000;  135.000
267.645;   22.600;  160.000;   67.000
267.786;  -56.500; -147.000;  -86.000
267.927; -119.000; -473.000; -379.000
268.068;    4.100; -186.000;  -61.000
268.209;  -94.300; -175.000; -413.000
268.350; -101.100; -388.000; -532.000
268.490; -162.200; -648.000; -521.000
268.631;   84.800;  127.000;  225.000
268.772; -216.200; -874.000; -647.000
268.913;  -81.000; -328.000; -476.000
269.054;  -16.200; -117.000;   12.000
269.194;  -65.100; -418.000; -402.000
269.335; -306.300;-1137.000;-1074.000
269.476;  -26.300;   33.000;  -35.000
269.617;  -98.200; -347.000; -392.000
269.757; -174.500; -713.000; -646.000
269.898; -189.300; -856.000; -613.000
270.039; -109.200; -415.000; -405.000
270.180; -279.200; -952.000; -816.000
270.320;  -12.300; -190.000; -250.000
270.461;  -62.400; -277.000; -249.000
270.602;   10.400; -186.000; -156.000
270.742; -246.700; -868.000; -943.000
270.883; -128.000; -442.000; -390.000
271.023; -101.400; -358.000; -357.000
271.164; -120.100; -607.000; -528.000
271.305; -193.100; -666.000; -654.000
271.445; -167.700; -722.000; -683.000
271.586; -131.400; -462.000; -283.000
271.726;  -53.900; -397.000; -322.000
271.867; -124.800; -594.000; -534.000
272.008;  316.400; -473.000; -285.000
272.148;  248.500;  462.000;  468.000
272.289;   29.700; -113.000; -181.000
272.429;   53.000;   19.000;  185.000
272.570; -207.300; -633.000; -737.000
272.710; -216.400; -825.000; -775.000
272.851;   -3.400;  113.000; -130.000
272.991; -322.900;-1173.000;-1077.000
273.131; -128.800; -419.000; -459.000
273.272; -174.200; -683.000; -723.000
273.412;   27.800; -143.000;  -31.000
273.553; -138.700; -488.000; -507.000
273.693;  282.000;  913.000;  858.000
273.834; -191.500; -894.000; -692.000
273.974; -157.200; -664.000; -615.000
274.114; -173.700; -772.000; -560.000
274.255;  165.200;  414.000;  373.000
274.395;   18.000; -180.000; -125.000
274.535;  100.700;  199.000;  350.000
274.676;   70.200;  225.000;   94.000
274.816;   34.200;  110.000;   34.000
274.956; -181.200; -624.000; -690.000
275.097; -130.200;-1014.000; -922.000
275.237; -231.300; -913.000; -803.000
275.377; -195.300; -778.000; -689.000
275.517; -314.500; -878.000; -937.000
275.658; -132.200; -590.000; -555.000
275.798; -137.600; -606.000; -413.000
275.938;   57.600;  215.000;  323.000
276.078; -138.300; -626.000; -395.000
276.218;   56.400;   99.000;  104.000
276.359; -295.900;-1026.000;-1024.000
276.499; -171.700; -605.000; -446.000
276.639;  -21.000; -305.000; -151.000
276.779; -108.800; -475.000; -357.000
276.919; -211.200; -783.000; -624.000
277.059;  -22.300; -261.000; -212.000
277.199;  -68.000; -357.000; -259.000
277.340;  132.100;  287.000;  175.000
277.480; -200.100; -840.000; -693.000
277.620;   58.800;  192.000;   16.000
277.760; -414.700;-1533.000;-1294.000
277.900;   67.000;  113.000;   33.000
278.040;   79.200;  137.000;  159.000
278.180;  113.400;  270.000;  170.000
278.320;   43.600;   21.000;   56.000
278.460; -127.300; -443.000; -469.000
278.600; -177.200; -708.000; -598.000
278.740;  110.900;  448.000;  224.000
278.880; -175.400; -768.000; -791.000
279.020;   34.500; -194.000; -144.000
279.160; -156.000; -672.000; -595.000
279.300; -209.400; -926.000; -873.000
279.440; -197.200; -709.000; -622.000
279.579;  -80.600;-1014.000; -929.000
279.719; -107.900; -410.000; -394.000
279.859;  101.100;   -4.000;   41.000
279.999;   51.400; -208.000;  101.000
280.139;  -43.700; -435.000; -387.000
280.279; -149.900; -708.000; -745.000
280.419;  -54.500; -229.000; -147.000
280.559;  -74.300; -259.000; -180.000
280.698; -167.600; -790.000; -639.000
280.838; -200.900; -778.000; -800.000
280.978; -179.900; -846.000; -790.000
281.118; -196.100; -811.000; -704.000
281.257;   32.500;   24.000;    6.000
281.397; -253.900;-1094.000; -960.000
281.537; -175.900; -599.000; -712.000
281.677;  -22.500; -150.000; -101.000
281.816; -160.100; -700.000; -630.000
281.956;  -49.600; -193.000; -257.000
282.096; -115.900; -539.000; -396.000
282.235; -193.400; -672.000; -638.000
282.375;  -39.000; -243.000;  -98.000
282.515; -214.200; -715.000; -707.000
282.654;   84.400;   29.000;  106.000
282.794;   90.400;  388.000;  244.000
282.934; -100.900; -530.000; -491.000
283.073; -269.700;-1030.000; -857.000
283.213; -101.000; -460.000; -467.000
283.353;  -57.500; -408.000; -349.000
283.492;  -37.100; -264.000; -296.000
283.632;  -63.700; -254.000; -168.000
283.771; -195.700; -859.000; -730.000
283.911;  -74.900; -369.000; -260.000
284.050; -235.200; -794.000; -748.000
284.190; -341.600;-1229.000;-1096.000
284.329; -258.200;-1055.000; -964.000
284.469; -134.900; -516.000; -591.000
284.608;  -96.200; -559.000; -598.000
284.748; -137.300; -614.000; -570.000
284.887;   14.400;  -87.000;  -20.000
285.027; -216.800; -844.000; -892.000
285.166;  -45.000; -192.000; -249.000
285.306;   57.400; -116.000;  -33.000
285.445;  -89.200; -229.000; -343.000
285.584; -158.600; -630.000; -494.000
285.724;  -69.200; -282.000; -322.000
285.863; -226.900; -857.000; -507.000
286.002; -103.300; -366.000; -276.000
286.142; -189.200; -715.000; -622.000
286.281; -139.200; -525.000; -493.000
286.420; -138.500; -554.000; -417.000
286.560;  234.200;  653.000;  623.000
286.699; -266.400; -958.000; -912.000
286.838; -145.200; -590.000; -591.000
286.978; -150.100; -533.000; -537.000
287.117; -270.500;-1085.000; -950.000
287.256;  -42.800; -228.000; -211.000
287.395;  -95.500; -197.000; -378.000
287.535; -100.600; -370.000; -298.000
287.674; -162.200; -509.000; -484.000
287.813;  139.400;  661.000;  533.000
287.952; -247.700;-1010.000; -871.000
288.091; -277.500;-1049.000; -915.000
288.231;   23.500;   13.000;   15.000
288.370; -337.700;-1217.000;-1200.000
288.509; -165.600; -728.000; -645.000
288.648; -153.300; -770.000; -548.000
288.787;   -6.200; -243.000;  -87.000
288.926; -130.800; -454.000; -475.000
289.065;  257.100;  859.000;  672.000
289.204;  -92.500; -377.000; -217.000
289.344; -195.500; -791.000; -690.000
289.483;   85.700;  416.000;  304.000
289.622;  -17.000; -291.000; -149.000
289.761;  -25.700; -309.000; -166.000
289.900; -211.900; -785.000; -626.000
290.039;  -28.400;  -12.000;  -95.000
290.178;  -47.300; -274.000; -180.000
290.317; -139.900; -618.000; -479.000
290.456; -119.600; -463.000; -451.000
290.595; -282.400; -961.000; -833.000
290.734; -267.000; -904.000; -891.000
290.873; -111.400; -456.000; -420.000
291.011; -220.100; -833.000; -843.000
291.150; -207.200; -770.000; -682.000
291.289;  -27.300; -343.000; -110.000
291.428; -150.300; -599.000; -480.000
291.567; -101.900; -370.000; -442.000
291.706;   40.900;  109.000;  154.000
291.845; -183.900; -597.000; -505.000
291.984; -350.900;-1234.000;-1061.000
292.122;  176.600;  602.000;  582.000
292.261;  139.400;  620.000;  463.000
292.400;    0.900; -144.000;  211.000
292.539; -242.700; -959.000; -813.000
292.678;  -34.700; -325.000; -300.000
292.816; -287.100;-1136.000; -965.000
292.955; -198.400; -844.000; -684.000
293.094;  -34.100; -173.000; -337.000
293.233;  -67.000; -556.000; -400.000
293.371;  -28.500; -225.000;  -84.000
293.510; -199.800; -866.000; -780.000
293.649; -251.600; -959.000; -924.000
293.787; -149.300;-1083.000;-1012.000
293.926;   -7.500; -113.000;  -32.000
294.065;  -74.700; -379.000; -290.000
294.203;  107.900;  298.000;  406.000
294.342;   77.500;   74.000;  156.000
294.481;11263.300;51180.000; -836.000
294.619;  -35.700; -425.000; -582.000
294.758; -272.300;-1230.000;-1137.000
294.896;   94.800; -125.000;    5.000
295.035; -245.700;-1040.000;-1006.000
295.174; -241.700;-1082.000; -954.000
295.312;  -46.400; -323.000; -203.000
295.451;   -4.600; -307.000; -428.000
295.589;  -94.600; -389.000; -518.000
295.728;   92.100; -292.000; -165.000
295.866;   30.300;  -36.000;  -51.000
296.005; -126.700; -584.000; -341.000
296.143; -113.300; -558.000; -596.000
296.282; -201.500; -957.000; -881.000
296.420; -159.000; -657.000; -557.000
296.559; -164.700; -892.000; -633.000
296.697;  -29.900; -847.000; -665.000
296.835;   38.800;-1141.000;-1002.000
296.974;  130.400;  -23.000;   39.000
297.112;   -1.700; -443.000; -504.000
297.251; -156.700; -815.000; -755.000
297.389;   85.800; -576.000; -438.000
297.527;   93.700; -145.000;  -83.000
297.666; -122.400; -486.000; -438.000
297.804;  -53.300; -404.000; -264.000
297.942;   -2.300; -136.000; -161.000
298.081;   -3.900; -183.000;   63.000
298.219;   95.800;  -17.000;  -19.000
298.357;   55.500; -144.000;  -71.000
298.495;   -3.100; -810.000; -812.000
298.634;  116.600;  245.000;  219.000
298.772;   67.500; -220.000; -338.000
298.910;  -82.800; -309.000; -182.000
299.048;   -0.500; -130.000; -153.000
299.187;  -48.900; -350.000; -250.000
299.325;   45.400;   52.000;  122.000
299.463;   56.000; -389.000; -299.000
299.601;  181.000; -327.000; -271.000
299.739; -190.100; -908.000; -883.000
299.877; -148.600; -791.000; -703.000
300.016; -123.000;-1095.000; -935.000
300.154;  266.000;  -19.000; -161.000
300.292;   43.800; -428.000; -348.000
300.430;   20.000; -408.000; -291.000
300.568; -210.100; -940.000; -874.000
300.706;  -99.500; -366.000; -469.000
300.844; -215.400;-1108.000; -979.000
300.982;  208.600;  246.000;  282.000
301.120; -212.600; -965.000; -866.000
301.258; -149.900; -812.000; -705.000
301.396;   60.900;  104.000;  -41.000
301.534;  115.400; -218.000; -293.000
301.672;  -26.900; -664.000; -521.000
301.810;   20.600; -613.000; -545.000
301.948;  249.200;   53.000;  149.000
302.086;  974.900; -250.000;  -32.000
302.224; 1464.700; -610.000; -585.000
302.362;   36.000; -558.000; -622.000
302.500; -110.600; -923.000; -893.000
302.638;  171.700;  128.000;  245.000
302.776;    0.600; -352.000; -408.000
302.913;  102.200;  447.000;  236.000
303.051;   12.500;  -86.000;  -23.000
303.189;  104.900;   90.000;  118.000
303.327;  -66.900; -341.000; -256.000
303.465; -134.600; -832.000; -588.000
303.603; -165.600; -805.000; -604.000
303.740;  198.500;  417.000;  241.000
303.878;  -14.900; -800.000; -759.000
304.016; -168.300; -915.000; -790.000
304.154; -247.000;-1123.000;-1152.000
304.291;  -64.100; -505.000; -554.000
304.429;   26.400;  102.000;   74.000
304.567; -233.200; -908.000; -893.000
304.705;  -90.700; -408.000; -515.000
304.842;  135.900; -616.000; -540.000
304.980;  115.300;  215.000;   35.000
305.118;   47.200; -367.000; -365.000
305.255; -157.200; -945.000; -927.000
305.393;  115.000;  178.000;  239.000
305.531; -206.600;-1173.000; -956.000
305.668; -130.800; -663.000; -582.000
305.806;  148.900; -358.000; -439.000
305.943;  149.800; -629.000; -637.000
306.081;   93.700; -378.000; -267.000
306.219; -199.100; -863.000; -748.000
306.356;   22.400;  158.000;   27.000
306.494;  294.300;  981.000;  761.000
306.631;   36.000;  -11.000;  -55.000
306.769;    1.400; -613.000; -485.000
306.906;  -11.400; -284.000; -258.000
307.044;  -91.700; -473.000; -488.000
307.181;  -75.000; -410.000; -332.000
307.319;  115.400;  112.000;   87.000
307.456; -355.400;-1191.000;-1153.000
307.594; -176.000; -980.000; -727.000
307.731;  -13.100; -371.000; -164.000
307.868;   26.100;  -15.000;   20.000
308.006; -238.400; -961.000; -847.000
308.143; -126.900; -618.000; -330.000
308.281;  327.800;  -37.000; -254.000
308.418;   14.700; -748.000; -640.000
308.555; -120.500; -400.000; -250.000
308.693; -132.000; -577.000; -573.000
308.830; -191.600; -712.000; -657.000
308.967;    4.200; -215.000;  -95.000
309.105;  -46.000; -507.000; -396.000
309.242;  106.200; -468.000; -367.000
309.379;  675.500; -577.000; -655.000
309.517;  -90.600; -936.000; -948.000
309.654; -176.400; -910.000; -734.000
309.791; -128.800; -662.000; -580.000
309.928; -210.000; -977.000; -914.000
310.065;  399.700;  819.000;  697.000
310.203;  -63.500; -825.000; -850.000
310.340;   -7.800; -465.000; -321.000
310.477; -154.000; -412.000; -516.000
310.614; -102.600; -383.000; -473.000
310.751; -137.600; -427.000; -518.000
310.889;  -29.700;    1.000;   11.000
311.026; -285.700;-1161.000; -939.000
311.163;  -75.000; -386.000; -380.000
311.300; -137.400; -512.000; -479.000
311.437; -148.900; -658.000; -619.000
311.574; -298.700;-1226.000; -985.000
311.711;  -78.200; -595.000; -433.000
311.848;  -49.000; -380.000; -388.000
311.985;   52.700;  270.000;   93.000
312.122; -240.900; -932.000; -762.000
312.259; -201.400; -941.000; -994.000
312.396; -123.800; -508.000; -551.000
312.533; -154.200; -812.000; -790.000
312.670; -224.900;-1070.000; -898.000
312.807;  -34.700; -352.000; -367.000
312.944; -134.300; -513.000; -611.000
313.081;  -49.900; -150.000; -415.000
313.218; -174.600;-1111.000; -867.000
313.355;   39.800; -531.000; -449.000
313.492;   21.200; -455.000; -292.000
313.629;  285.900;  815.000;  735.000
313.766; -280.300;-1176.000;-1008.000
313.902;   -5.300; -186.000;   21.000
314.039;  -90.200; -372.000; -289.000
314.176;   74.800;  286.000;  192.000
314.313; -139.400; -569.000; -473.000
314.450; -153.200; -788.000; -684.000
314.587;  -91.000; -468.000; -480.000
314.723;   35.200;  -78.000;  130.000
314.860;   93.800;  318.000;  332.000
314.997;  107.600;  223.000;  142.000
315.134;  -50.800; -385.000; -368.000
315.270;  -47.400; -480.000; -496.000
315.407; -259.800;-1094.000; -967.000
315.544;  -67.900; -657.000; -538.000
315.681; -144.600; -681.000; -565.000
315.817;   88.500; -133.000; -176.000
315.954;   38.400; -613.000; -392.000
316.091; -235.600;-1045.000;-1023.000
316.227;  -19.800;  -71.000; -179.000
316.364;   25.700;   23.000;    6.000
316.500;  -56.400; -113.000; -300.000
316.637;  -53.100; -181.000; -302.000
316.774; -160.000; -625.000; -358.000
316.910; -169.500; -598.000; -629.000
317.047; -100.200; -487.000; -351.000
317.183;  -72.300; -435.000; -566.000
317.320;   24.400; -367.000; -321.000
317.456; -110.200; -733.000; -805.000
317.593; -175.900; -598.000; -641.000
317.729;   19.400;  168.000;  -67.000
317.866; -372.700;-1434.000;-1285.000
318.002; -152.200; -708.000; -948.000
318.139; -179.900; -883.000; -867.000
318.275; -226.800;-1003.000; -738.000
318.412; -115.300; -517.000; -336.000
318.548;  -77.900; -751.000; -720.000
318.685; -143.300; -985.000; -888.000
318.821; -188.100; -762.000; -735.000
318.957;   -1.200;   34.000;  -23.000
319.094;  117.800;  297.000;  154.000
319.230; -125.200; -756.000; -742.000
319.367;  197.500; -471.000; -520.000
319.503;   87.500; -538.000; -436.000
319.639; -172.900; -877.000; -793.000
319.775; -115.600; -750.000; -685.000
319.912;  -78.900; -424.000; -519.000
320.048; -164.400;-1184.000;-1184.000
320.184;  202.100;   59.000;   70.000
320.321;  -95.000; -497.000; -467.000
320.457;  155.600;  475.000;  662.000
320.593; -124.700; -375.000; -382.000
320.729; -214.600; -732.000; -734.000
320.866; -116.600; -577.000; -635.000
321.002; -109.900; -759.000; -809.000
321.138;   -4.800; -135.000; -211.000
321.274;  123.500; -148.000; -115.000
321.410;  -58.600; -585.000; -353.000
321.546;  -71.000;-1011.000; -911.000
321.683;  130.600;  400.000;  185.000
321.819;   26.800;  -48.000; -117.000
321.955; -200.200; -743.000; -722.000
322.091;  -94.100; -585.000; -540.000
322.227;  -54.400; -382.000; -202.000
322.363;   20.100; -320.000; -215.000
322.499;  -79.400; -343.000; -331.000
322.635;  291.500;  636.000;  443.000
322.771;   48.200; -139.000;   12.000
322.907;  180.000;  129.000;  327.000
323.043;  -11.000; -115.000; -206.000
323.179;  -50.300; -394.000; -363.000
323.315;   20.800; -401.000; -371.000
323.451;  140.800; -328.000; -236.000
323.587;  125.500;  -60.000;  -77.000
323.723;    5.600; -682.000; -601.000
323.859;  -23.100; -258.000;  -76.000
323.995;  -64.800; -467.000; -409.000
324.131; -220.900; -967.000; -892.000
324.267;  -32.900; -254.000; -276.000
324.402; -252.400; -960.000; -983.000
324.538;   -8.000; -279.000; -104.000
324.674;   71.000;  164.000;   77.000
324.810;  258.200;  226.000;  308.000
324.946;  -13.100; -810.000; -658.000
325.082; -126.100; -568.000; -475.000
325.217;   -8.100;  -62.000;   16.000
325.353; -170.900; -764.000; -659.000
325.489; -152.600; -540.000; -506.000
325.625; -129.700; -579.000; -525.000
325.760;  162.400;  517.000;  376.000
325.896;  -21.600; -515.000; -702.000
326.032;  -91.600; -403.000; -352.000
326.168; -106.100; -462.000; -369.000
326.303; -103.100; -352.000; -461.000
326.439;   -6.600; -336.000; -276.000
326.575;   27.700; -190.000;  -29.000
326.710;   47.200; -156.000;  -30.000
326.846;   32.800;  146.000;  103.000
326.982; -146.100; -530.000; -548.000
327.117; -125.800; -481.000; -442.000
327.253; -141.400; -745.000; -742.000
327.388; -346.300;-1137.000;-1153.000
327.524;  -76.700; -811.000; -578.000
327.659;   -4.000;  -58.000;  -22.000
327.795;   -8.200;   69.000;   45.000
327.931; -154.800; -723.000; -499.000
328.066;  -25.100; -417.000; -276.000
328.202;   23.400;   12.000; -129.000
328.337;  246.200;  957.000;  713.000
328.473;   10.800;  -12.000;  -74.000
328.608;  -23.200; -256.000; -267.000
328.743; -139.400; -799.000; -664.000
328.879;   53.600;  214.000;  114.000
329.014;  -90.800; -102.000; -122.000
329.150; -144.100; -358.000; -483.000
329.285; -127.400; -465.000; -466.000
329.421;  -66.400; -548.000; -246.000
329.556;   -3.700;  -36.000;   85.000
329.691; -164.100; -633.000; -615.000
329.827; -171.100; -626.000; -480.000
329.962;  -45.200;  131.000; -301.000
330.097; -154.900; -673.000; -585.000
330.233;  -73.600; -410.000; -223.000
330.368; -245.300; -839.000; -628.000
330.503;   34.100;    3.000;   98.000
330.638;   27.300;  -93.000; -125.000
330.774; -132.300; -609.000; -530.000
330.909;  -69.000; -434.000; -244.000
331.044; -155.700; -714.000; -708.000
331.179; -339.500;-1217.000;-1109.000
331.315;   53.400;   77.000;   20.000
331.450;   66.200;  157.000;  285.000
331.585; -173.800; -805.000; -706.000
331.720; -127.900; -510.000; -460.000
331.855;   -4.000;  -35.000; -102.000
331.990;  586.100;   62.000;  138.000
332.126;  348.100; -110.000;   71.000
332.261;  -25.100; -379.000; -265.000
332.396;   28.800; -135.000; -242.000
332.531; -153.500;-1074.000;-1031.000
332.666;  106.500; -519.000; -363.000
332.801; -209.800; -726.000; -807.000
332.936;   22.100; -192.000; -122.000
333.071; -252.700; -870.000; -817.000
333.206;   82.900;  307.000;  379.000
333.341;  109.800;  344.000;  418.000
333.476; -137.400; -627.000; -623.000
333.611;  -64.800; -251.000; -173.000
333.746;  -62.000; -381.000; -464.000
333.881; -245.200; -973.000; -935.000
334.016; -231.400; -936.000; -917.000
334.151; -236.300; -746.000; -702.000
334.286;   43.400;  152.000;  186.000
334.421;  -16.800; -125.000; -178.000
334.556; -147.500; -611.000; -567.000
334.690; -153.400; -631.000; -577.000
334.825;  130.000;  381.000;   83.000
334.960;  -98.000; -285.000; -413.000
335.095;   38.400;  135.000;  -91.000
335.230; -197.400; -722.000; -738.000
335.365; -267.900;-1084.000; -990.000
335.499; -256.100;-1108.000;-1037.000
335.634;   43.600;    9.000;  534.000
335.769; -196.300; -755.000; -720.000
335.904; -137.800; -603.000; -561.000
336.038; -119.900; -735.000; -657.000
336.173; -239.700;-1206.000;-1194.000
336.308;   41.200; -116.000; -189.000
336.443;   47.700; -544.000; -634.000
336.577; -155.200; -936.000; -787.000
336.712;  103.800;   -4.000;  -12.000
336.847;  -84.700; -724.000; -607.000
336.981;  114.800; -272.000; -208.000
337.116;  501.600;  615.000;  501.000
337.250;  244.800; -434.000; -421.000
337.385;  574.700; -297.000; -208.000
337.520;  283.000; -632.000; -603.000
337.654;  -59.700; -215.000; -126.000
337.789; -239.000; -989.000; -933.000
337.923;    9.800; -104.000; -205.000
338.058; -182.800; -673.000; -738.000
338.192;  -65.700; -611.000; -488.000
338.327;   22.500;  -18.000; -155.000
338.461; -101.200; -299.000; -469.000
338.596; -169.800; -780.000; -638.000
338.730; -170.700; -767.000; -803.000
338.865;  226.300;  -46.000; -140.000
338.999;  -31.200; -846.000; -702.000
339.134;   -3.000; -634.000; -536.000
339.268;   71.300; -741.000; -603.000
339.403;  780.400; -740.000; -775.000
339.537;  332.600; -894.000; -820.000
339.671; -167.400; -829.000; -813.000
339.806;  -75.500; -556.000; -512.000
339.940;   79.400; -261.000; -235.000
340.074; -168.100; -685.000; -510.000
340.209;  -46.100; -351.000; -230.000
340.343; -145.200; -517.000; -573.000
340.477;  360.600;  998.000; 1036.000
340.612;  -59.200;-1033.000; -900.000
340.746;  329.100; -199.000; -243.000
340.880; -143.900; -924.000; -785.000
341.014;    9.500;  -45.000; -154.000
341.149; -205.200; -756.000; -718.000
341.283; -210.700; -839.000; -754.000
341.417; -217.700;-1124.000; -938.000
341.551;  146.100; -768.000; -708.000
341.685;  -64.100; -633.000; -611.000
341.820; -129.300; -562.000; -493.000
341.954;  -57.900; -218.000; -349.000
342.088; -272.700;-1102.000;-1019.000
342.222;  146.100;  565.000;  618.000
342.356;  -98.400; -395.000; -335.000
342.490; -192.500; -880.000; -841.000
342.624;  -69.900; -339.000; -242.000
342.758;   15.000; -364.000; -312.000
342.892; -129.200; -710.000; -585.000
343.026;  -36.200;  -58.000; -116.000
343.160;  -61.000; -426.000; -376.000
343.294; -171.700; -474.000; -337.000
343.428;  -57.100; -488.000; -448.000
343.562;    3.400; -172.000;  -23.000
343.696;  -30.700; -385.000; -314.000
343.830;  -32.800; -362.000; -356.000
343.964;   50.100; -231.000; -168.000
344.098; 1333.000;  199.000;   70.000
344.232; 1222.800; -266.000; -127.000
344.366;  162.100; -567.000; -453.000
344.500;   66.300; -665.000; -744.000
344.634;   24.500; -324.000; -164.000
344.768;  -38.800; -531.000; -341.000
344.902;   62.700;  278.000;  256.000
345.035; -131.000; -556.000; -496.000
345.169; -230.900; -933.000; -656.000
345.303;  -29.700; -308.000; -482.000
345.437; -125.100; -826.000; -717.000
345.571; -138.400; -675.000; -594.000
345.704;  -63.700; -309.000; -532.000
345.838;    0.300; -331.000; -284.000
345.972;  -82.200; -543.000; -495.000
346.106;  379.800; -179.000; -190.000
346.239;  832.000; -312.000; -243.000
346.373;   32.700; -343.000; -302.000
346.507; -269.900; -950.000; -962.000
346.640;  239.600;  -30.000;   13.000
346.774;  -83.400; -650.000; -797.000
346.908;  -12.500; -138.000;  -11.000
347.041; -190.800; -646.000; -593.000
347.175;   53.600;  259.000;   27.000
347.309; -136.700; -698.000; -628.000
347.442; -209.700; -883.000; -732.000
347.576;  489.600;  670.000;  668.000
347.709;  316.500; -123.000;  -52.000
347.843; -182.500; -933.000; -825.000
347.976;  130.100;  235.000;  294.000
348.110; -344.400;-1268.000;-1186.000
348.243; -170.400; -679.000; -772.000
348.377;  -20.400;  -26.000;   60.000
348.510;  161.700;  403.000;  540.000
348.644;  -42.100;  -37.000; -159.000
348.777;   66.200;  180.000;  191.000
348.911;  -58.700; -142.000; -112.000
349.044;  321.100;  471.000;  448.000
349.178;  152.800;-1069.000;-1006.000
349.311;  252.100;  141.000;  255.000
349.444;   10.000; -927.000; -813.000
349.578;  -32.000; -347.000; -200.000
349.711; -229.000; -959.000; -862.000
349.845;  -13.400; -661.000; -591.000
349.978; -308.900;-1224.000;-1137.000
350.111; -128.000; -546.000; -612.000
350.244; -149.500; -596.000; -700.000
350.378;   13.900; -392.000; -393.000
350.511; -144.300; -393.000; -426.000
350.644; -180.200; -808.000; -806.000
350.778;   37.100;  168.000;  104.000
350.911;   43.100;  134.000;  140.000
351.044; -144.400; -685.000; -615.000
351.177;  -14.100; -321.000; -281.000
351.310;   17.800;    3.000; -131.000
351.444; -172.700; -888.000; -788.000
351.577;  221.600;  140.000;   90.000
351.710;  240.600;  593.000;  417.000
351.843;  -32.900; -165.000;  -77.000
351.976;   26.200;  149.000;  -79.000
352.109; -173.500; -621.000; -612.000
352.242;  -29.000; -464.000; -419.000
352.376; -119.200; -580.000; -636.000
352.509;  263.600; -437.000; -356.000
352.642;  -28.600; -654.000; -604.000
352.775;  125.800; -141.000;  -98.000
352.908; -223.800; -933.000; -904.000
353.041; -188.400; -814.000; -824.000
353.174;  -93.800; -551.000; -424.000
353.307; -163.600; -753.000; -764.000
353.440;  204.000;  541.000;  453.000
353.573; -211.100; -957.000;-1008.000
353.706;  -92.300; -384.000; -558.000
353.839;    5.800; -264.000; -220.000
353.971; -139.300; -657.000; -512.000
354.104; -165.200; -896.000; -835.000
354.237;  -76.600; -627.000; -662.000
354.370; -175.100; -846.000; -879.000
354.503; -314.200;-1231.000;-1308.000
354.636;  -53.800; -529.000; -348.000
354.769; -230.300; -937.000; -860.000
354.902;  -18.000; -230.000; -139.000
355.034;    2.000; -164.000; -220.000
355.167;   31.100; -262.000; -162.000
355.300; -172.100;-1061.000; -880.000
355.433; 2073.300;  -71.000;  -14.000
355.565; 3144.900; -402.000; -384.000
355.698;  819.800; -356.000; -296.000
355.831;    3.500; -882.000; -801.000
355.964;  157.200; -285.000; -170.000
356.096; -187.700; -856.000; -843.000
356.229;  -19.000; -523.000; -530.000
356.362;  723.900; -373.000; -266.000
356.494; 1293.100; -229.000; -162.000
356.627;  832.800;  269.000;  377.000
356.760; 1383.200;  120.000;   53.000
356.892; 2063.700; -286.000; -601.000
357.025; 1091.500;  403.000;  389.000
357.157;  973.700; -167.000; -179.000
357.290; 1510.600; -856.000; -713.000
357.423;  451.500; -667.000; -556.000
357.555;  209.600; -217.000; -228.000
357.688;  222.500; -483.000; -364.000
357.820;  699.600; -870.000; -877.000
357.953; 5763.500; -563.000; -589.000
358.085; 1132.400; -632.000; -612.000
358.218; 1572.200;-1131.000; -932.000
358.350;  337.300;  -58.000;  312.000
358.483; -252.700;-1300.000;-1187.000
358.615;  -91.500;-1182.000;-1078.000
358.747; -165.100;-1187.000;-1058.000
358.880;   -7.300; -810.000; -744.000
359.012;    4.800; -376.000; -202.000
359.145;  -68.500; -480.000; -511.000
359.277;   49.400; -962.000; -913.000
359.409; 4788.600;  536.000;  231.000
359.542; 1124.300; -738.000; -688.000
359.674;  156.100;   46.000;   13.000
359.806;  -96.300; -565.000; -438.000
359.939;  -60.900; -617.000; -516.000
360.071;   34.200; -583.000; -579.000
360.203;  -35.100; -411.000; -364.000
360.335;  142.900;  164.000;  -16.000
360.468;  331.300; -249.000; -307.000
360.600; 4001.200; -547.000; -454.000
360.732; 5995.300; -546.000; -423.000
360.864;  810.200;-1216.000;-1044.000
360.996;  411.300; -516.000; -554.000
361.129;   40.300; -389.000; -598.000
361.261;   70.600;  110.000; -113.000
361.393;   15.000; -252.000; -214.000
361.525;   82.700;   94.000;  244.000
361.657;  -91.500; -821.000; -703.000
361.789;   49.800; -139.000; -155.000
361.921;  308.000; -642.000; -593.000
362.053;  465.400;  524.000;  541.000
362.185;  102.000;  288.000;   72.000
362.318; -149.200; -709.000; -705.000
362.450;  238.500;  294.000;  444.000
362.582;   61.700; -913.000; -870.000
362.714;  -46.800; -353.000; -332.000
362.846; -118.200; -606.000; -490.000
362.978; -259.800; -941.000; -811.000
363.109;   89.600; -161.000; -260.000
363.241;  639.300; -739.000; -749.000
363.373;  907.700; -649.000; -564.000
363.505; 1472.200; -186.000;  -91.000
363.637;  308.800; -787.000; -601.000
363.769; -262.200;-1067.000;-1080.000
363.901; -102.300; -596.000; -654.000
364.033; -253.700;-1103.000;-1062.000
364.165;    8.200; -283.000; -283.000
364.296;  234.600; -316.000; -177.000
364.428;  147.000;-1344.000;-1220.000
364.560; -123.200; -679.000; -661.000
364.692;  -97.400; -738.000; -835.000
364.824;  368.400; -588.000; -456.000
364.955;  920.900; -402.000; -564.000
365.087; 2163.500;-1097.000; -852.000
365.219;   95.400; -686.000; -816.000
365.351; -104.200; -526.000; -572.000
365.482;  158.900;  300.000;  240.000
365.614;  -62.900; -402.000; -314.000
365.746; -161.500; -729.000; -752.000
365.877; -159.200; -706.000; -672.000
366.009;  591.600;  -35.000;  -62.000
366.141; -112.000;-1249.000;-1134.000
366.272; -170.300; -803.000; -719.000
366.404; -205.500;-1005.000; -874.000
366.535;   34.700; -139.000;  -12.000
366.667; -183.400; -644.000; -649.000
366.799;  154.900;  353.000;  203.000
366.930; -207.600; -862.000; -996.000
367.062;  317.400; -639.000; -613.000
367.193;  364.400; -872.000; -842.000
367.325; -113.100; -580.000; -684.000
367.456;   75.900; -246.000;   31.000
367.588;  391.800; -371.000; -318.000
367.719;   75.700;  -44.000;  -45.000
367.851;  -17.100; -222.000; -241.000
367.982; -105.400; -875.000; -732.000
368.113;  162.200; -475.000; -358.000
368.245; -246.000; -960.000; -841.000
368.376;  -26.600; -254.000; -302.000
368.508;  -44.800; -188.000; -263.000
368.639; -255.500;-1166.000;-1034.000
368.770;  -37.400; -670.000; -589.000
368.902; -136.100; -836.000; -926.000
369.033; -195.000; -906.000; -855.000
369.164;  -69.900; -720.000; -653.000
369.296; -204.400; -452.000; -601.000
369.427;   -2.900; -209.000; -144.000
369.558;  -50.400; -593.000; -377.000
369.689; -150.200; -721.000; -569.000
369.821; -233.000; -951.000; -845.000
369.952;    2.200;   42.000; -108.000
370.083;  -48.400; -229.000; -108.000
370.214; -137.300; -735.000; -650.000
370.345;   32.000;   65.000;   81.000
370.477; -151.600; -810.000; -790.000
370.608;  366.100; -328.000; -264.000
370.739; -147.000;-1233.000;-1292.000
370.870; -113.700;-1102.000; -923.000
371.001;  130.900; -378.000; -467.000
371.132; -140.800; -754.000; -735.000
371.263;   -2.000;  -42.000; -148.000
371.394; -224.900; -841.000; -748.000
371.525;   95.500;  345.000;  225.000
371.657; -126.500; -808.000; -670.000
371.788;  163.300;  103.000;  199.000
371.919;  245.000; -384.000; -304.000
372.050; 5616.500;  -91.000; -156.000
372.181; 1583.400; -188.000; -294.000
372.311;  614.100;   42.000; -127.000
372.442;   46.600; -457.000; -451.000
372.573;  -10.800; -444.000; -340.000
372.704; -249.200;-1008.000; -980.000
372.835;  150.000; -228.000; -289.000
372.966;  -77.300; -646.000; -554.000
373.097; -143.700; -575.000; -711.000
373.228;  -53.700; -717.000; -542.000
373.359;  140.000; -824.000; -536.000
373.490; 1321.900; -881.000; -727.000
373.620; 1687.000;-1001.000; -803.000
373.751; 2604.800; -332.000; -396.000
373.882; 1108.600; -663.000; -733.000
374.013;   70.700; -449.000; -262.000
374.143;  -73.900; -581.000; -659.000
374.274; -188.900; -987.000; -908.000
374.405;  320.900; -388.000; -276.000
374.536;  644.800; -526.000; -387.000
374.666; 1618.200; -759.000; -807.000
374.797;  301.600; -817.000; -868.000
374.928; 1280.400; -710.000; -560.000
375.058; 1290.600; -535.000; -500.000
375.189;  128.500;  -59.000;  -93.000
375.320; -186.000; -928.000;-1034.000
375.450;  -54.400; -625.000; -616.000
375.581;  -61.200; -526.000; -436.000
375.712;  -37.400; -574.000; -250.000
375.842;  397.400; -438.000; -415.000
375.973;  297.700; -554.000; -513.000
376.103; -105.200; -665.000; -648.000
376.234; -152.700; -531.000; -552.000
376.364;  -85.300; -944.000; -867.000
376.495;  602.500;  925.000;  529.000
376.625;  -12.300; -472.000; -485.000
376.756;   81.500; -709.000; -678.000
376.886; -198.400;-1178.000;-1026.000
377.017;  158.700;-1048.000;-1061.000
377.147;  793.800; -786.000; -782.000
377.278;  164.000;  174.000;  228.000
377.408; -205.600; -801.000; -815.000
377.538; -175.900; -707.000; -693.000
377.669; -137.400; -537.000; -613.000
377.799; -154.600; -645.000; -635.000
377.929; -132.500; -610.000; -428.000
378.060; -210.300; -781.000; -847.000
378.190;  -64.700; -726.000; -531.000
378.320;  -53.400; -401.000; -406.000
378.451;   27.800; -131.000;  -22.000
378.581;   29.600;  -67.000; -110.000
378.711;  355.500; 1035.000;  866.000
378.841;  -25.900; -533.000; -675.000
378.972; -162.300; -871.000; -751.000
379.102;  -24.300; -652.000; -579.000
379.232;  -33.500; -126.000;  -73.000
379.362; -184.100;-1001.000; -885.000
379.492;  -28.100; -373.000; -424.000
379.623;  189.800;    0.000;  111.000
379.753; -209.200;-1107.000; -974.000
379.883;  356.600;   59.000;  156.000
380.013;  -53.400;-1081.000;-1017.000
380.143; -205.000;-1097.000;-1056.000
380.273; -185.000; -985.000; -861.000
380.403;   22.100; -344.000; -257.000
380.533;  -63.500; -651.000; -664.000
380.663;  171.200;  173.000;  128.000
380.793; -196.300;-1027.000;-1074.000
380.923;  -24.300; -103.000;  -34.000
381.053; -173.200; -613.000; -623.000
381.183;  -26.900; -106.000; -248.000
381.313;   55.000; -656.000; -470.000
381.443;   45.100; -692.000; -473.000
381.573;  297.000; -402.000; -409.000
381.703;  324.900;-1249.000;-1095.000
381.833; -258.200;-1454.000;-1336.000
381.963;  221.000; -134.000;  -87.000
382.093; 2232.500; -925.000; -909.000
382.223;  590.800; -713.000; -602.000
382.353;  -49.300; -801.000; -608.000
382.482;  471.900;-1091.000; -964.000
382.612; 1123.000; -872.000; -644.000
382.742;  606.700; -695.000; -622.000
382.872;  377.900; -565.000; -551.000
383.002;  178.200;  347.000; -132.000
383.131;   -3.900; -226.000; -160.000
383.261;  -56.700; -706.000; -768.000
383.391;  611.200; -552.000; -377.000
383.521; 7068.200;  451.000;  263.000
383.650; 1613.300; -947.000; -904.000
383.780;   22.400; -783.000; -656.000
383.910;  273.100;  880.000;  802.000
384.039;    3.400; -794.000; -656.000
384.169;  256.000;-1205.000;-1017.000
384.299;  -80.900; -650.000; -662.000
384.428; -145.400; -764.000; -680.000
384.558;  -48.900; -308.000; -275.000
384.687;  -51.200; -414.000; -334.000
384.817;   81.200;   75.000;   -2.000
384.947;  103.500; -234.000; -141.000
385.076;  511.200;  982.000;  912.000
385.206;  242.400;  369.000;  480.000
385.335;  -39.600; -549.000; -417.000
385.465; -156.500; -655.000; -663.000
385.594;  220.600;  -53.000;  -44.000
385.724;  536.700; -868.000; -838.000
385.853;  179.200; -296.000; -270.000
385.982; 2023.900; -743.000; -787.000
386.112; 3085.600;-1052.000; -871.000
386.241;  197.700; -307.000; -312.000
386.371;   55.900; -174.000;  -87.000
386.500;   -3.500; -825.000; -789.000
386.629;   63.400; -874.000; -817.000
386.759;  187.600;  -43.000;   68.000
386.888;  -13.900; -170.000; -250.000
387.017; -124.100; -648.000; -620.000
387.147; -156.600; -771.000; -798.000
387.276;   22.300; -410.000; -397.000
387.405;   10.700; -398.000; -342.000
387.535;  -77.200; -452.000; -361.000
387.664;  -91.800; -692.000; -620.000
387.793;   98.100; -198.000; -113.000
387.922;  796.200;  255.000;  200.000
388.052;   -8.900; -576.000; -423.000
388.181;   10.100; -342.000; -472.000
388.310;  -78.200; -889.000; -710.000
388.439; -122.000; -749.000; -742.000
388.568;  327.000;  365.000;  244.000
388.697; 1545.700; -756.000; -653.000
388.826;  277.200; -768.000; -666.000
388.956;   77.700; -285.000; -307.000
389.085;  -25.600; -347.000; -287.000
389.214; -182.400; -842.000; -872.000
389.343; -102.200; -645.000; -413.000
389.472;  931.900;  126.000;  149.000
389.601;  981.800;   91.000;    0.000
389.730;   14.000; -568.000; -687.000
389.859;  148.600;  226.000;   46.000
389.988;  294.600; -423.000; -408.000
390.117;  220.900; -168.000; -146.000
390.246;   14.200; -331.000; -320.000
390.375;  134.300; -673.000; -626.000
390.504;  -91.900; -703.000; -621.000
390.633; -185.700; -672.000; -726.000
390.761; -109.800; -732.000; -645.000
390.890;   41.800;   -4.000; -130.000
391.019;  -51.200; -421.000; -441.000
391.148; -225.900; -826.000; -855.000
391.277; -126.300; -576.000; -493.000
391.406; -145.800; -821.000; -805.000
391.534;   89.700;  574.000; -301.000
391.663; -114.300; -583.000; -645.000
391.792; -178.900; -673.000; -701.000
391.921;  172.600;   -3.000;   15.000
392.050;  260.600; -287.000; -228.000
392.178; -125.400;-1206.000;-1061.000
392.307;  210.700; -758.000; -712.000
392.436;   80.100; -427.000; -641.000
392.564;   73.600;  166.000;   -6.000
392.693; -170.800; -860.000; -682.000
392.822;  305.400; -529.000; -534.000
392.950;   82.600; -880.000; -714.000
393.079;  516.200; -188.000; -328.000
393.208;    0.800; -488.000; -511.000
393.336;   31.400; -170.000; -145.000
393.465;  -30.800; -317.000; -199.000
393.593;   37.500;   62.000;   79.000
393.722; -279.000;-1121.000; -916.000
393.850;    1.900; -188.000;  -61.000
393.979; -263.800; -926.000; -805.000
394.107;  -79.700; -517.000; -537.000
394.236;  -48.700; -570.000; -507.000
394.364;  523.000;  383.000;  206.000
394.493;  736.900; -911.000; -767.000
394.621;    4.100; -955.000; -916.000
394.750; 1698.400; -873.000; -923.000
394.878; 6671.500; -247.000; -149.000
395.007; 8575.200; -721.000; -807.000
395.135;  649.300; -790.000; -721.000
395.263; -162.400;-1038.000;-1040.000
395.392;   67.600;  -25.000; -107.000
395.520; -232.400; -818.000; -679.000
395.648; -182.300; -865.000; -915.000
395.777;  -13.500; -366.000; -405.000
395.905;  -68.000; -449.000; -564.000
396.033;   94.900;  217.000;  172.000
396.162; 1341.600; -399.000; -453.000
396.290; 1099.100;  -17.000;   -2.000
396.418;  180.100; -555.000; -514.000
396.546; -152.500; -571.000; -466.000
396.674; -194.100; -850.000; -878.000
396.803;   81.000;  -72.000;  -23.000
396.931;  180.900; -179.000; -199.000
397.059;   18.100;-1026.000; -989.000
397.187; -186.400;-1026.000; -975.000
397.315; -258.500; -884.000; -649.000
397.443; -140.200; -592.000; -443.000
397.572; -109.700; -578.000; -424.000
397.700;  -41.200; -607.000; -614.000
397.828;   45.200;  120.000;  -90.000
397.956;  -56.100; -508.000; -478.000
398.084;  -66.400; -767.000; -626.000
398.212;   97.200;  137.000;  124.000
398.340;   28.400;  -56.000;  159.000
398.468;   54.100; -390.000; -169.000
398.596; -243.600; -993.000; -953.000
398.724; -194.000; -762.000; -767.000
398.852; -303.700;-1024.000; -976.000
398.980;  -79.500; -560.000; -560.000
399.108; -113.000; -982.000; -735.000
399.236;   79.000;   13.000;    8.000
399.363;   48.600;  222.000;  196.000
399.491;  -40.400; -404.000; -398.000
399.619; -225.000; -829.000; -800.000
399.747; -157.600; -859.000; -771.000
399.875;  163.500;  220.000;  234.000
400.003;  -70.400; -359.000; -284.000
400.130; -131.100; -421.000; -341.000
400.258;    3.500;  -83.000;   38.000
400.386;  -87.600; -352.000; -168.000
400.514;  -75.100; -526.000; -587.000
400.641; -183.500; -928.000; -802.000
400.769; -265.600; -979.000; -888.000
400.897; -204.300; -838.000; -793.000
401.025;    1.400; -166.000; -152.000
401.152;   57.600;  220.000;   38.000
401.280; -136.100; -430.000; -429.000
401.408; -210.500; -712.000; -576.000
401.535; -154.200; -735.000; -758.000
401.663; -338.900;-1134.000;-1054.000
401.790; -135.900; -514.000; -525.000
401.918;  159.900;  436.000;  405.000
402.046;   13.900;  134.000;  122.000
402.173;   -3.400;  -18.000;    7.000
402.301; -107.600; -519.000; -397.000
402.428;  108.100;  528.000;  383.000
402.556; -268.800;-1188.000; -913.000
402.683;  -15.200;  -20.000;   -1.000
402.811;   -4.800;  -37.000; -206.000
402.938;   30.400;   20.000;   27.000
403.066;  313.600; -574.000; -558.000
403.193;  488.300;  299.000;  239.000
403.321;  396.400; -396.000; -574.000
403.448;  519.300;   83.000;   27.000
403.575;  239.000;  -90.000;  -46.000
403.703; -151.300; -732.000; -557.000
403.830;  -86.100; -531.000; -496.000
403.957; -242.900;-1117.000;-1023.000
404.085;   58.200;  -61.000; -172.000
404.212;  262.200;  -50.000;   63.000
404.339;  662.400; -566.000; -306.000
404.467;13120.300; -612.000; -524.000
404.594; 7516.200; -287.000; -227.000
404.721; 1587.200; -869.000; -764.000
404.848;  195.200; -113.000; -202.000
404.976; -175.200; -856.000; -783.000
405.103;   52.700;  -14.000;  -82.000
405.230;   41.900;  190.000;  226.000
405.357;   92.200;  117.000;   44.000
405.484;  638.700;  -49.000;    5.000
405.612;   89.700; -548.000; -563.000
405.739;  -59.100; -488.000; -243.000
405.866;  212.000;  669.000;  385.000
405.993;  -22.600; -398.000; -102.000
406.120; -237.400; -801.000; -887.000
406.247;  -70.800; -323.000; -342.000
406.374;  727.500;  540.000;  629.000
406.501;   97.200; -632.000; -702.000
406.628; -136.200; -621.000; -589.000
406.755; -149.000; -803.000; -620.000
406.882;  -51.300; -228.000; -277.000
407.009; -181.400; -719.000; -628.000
407.136;   66.300; -480.000; -401.000
407.263;  160.600; -939.000; -829.000
407.390; -116.200; -692.000; -614.000
407.517; -323.100;-1139.000;-1187.000
407.644;  -96.500; -332.000; -256.000
407.771;  -60.500; -249.000; -287.000
407.898;   78.100;  168.000;  328.000
408.025;  -95.600; -421.000; -313.000
408.151;   29.800;   82.000;  153.000
408.278;  -83.500; -267.000; -216.000
408.405; -193.600; -931.000; -899.000
408.532;  -99.200; -549.000; -542.000
408.659; -198.700; -677.000; -648.000
408.785; -362.800;-1298.000;-1170.000
408.912;  -93.300; -412.000; -296.000
409.039; -181.100; -610.000; -686.000
409.166; -144.300; -591.000; -555.000
409.292; -146.100; -571.000; -534.000
409.419; -180.000; -665.000; -649.000
409.546; -123.600; -431.000; -192.000
409.672; -172.100; -713.000; -545.000
409.799;   -1.900;  -36.000;   34.000
409.926;  -15.500; -180.000; -179.000
410.052; -316.800;-1127.000;-1091.000
410.179;  -76.200; -368.000; -392.000
410.305; -107.500; -375.000; -493.000
410.432;  -30.100; -220.000; -333.000
410.558; -123.000; -305.000; -380.000
410.685; -170.800; -688.000; -431.000
410.812; -161.200; -409.000; -588.000
410.938; -235.500; -964.000; -808.000
411.065; -169.300; -671.000; -645.000
411.191;  -20.200; -189.000; -174.000
411.317; -208.500; -823.000; -742.000
411.444;  -84.400; -317.000; -246.000
411.570; -115.500; -339.000; -294.000
411.697; -243.500; -758.000; -752.000
411.823; -311.900; -989.000; -999.000
411.949;  -26.100;  -56.000;   17.000
412.076; -209.100; -539.000; -519.000
412.202; -204.700; -758.000; -757.000
412.329; -211.600; -798.000; -752.000
412.455; -202.800; -821.000; -657.000
412.581;    6.200;  -15.000;  172.000
412.707; -126.700; -540.000; -457.000
412.834;   93.600;  156.000;  219.000
412.960; -170.700; -785.000; -784.000
413.086; -196.300; -743.000; -701.000
413.212;  314.100;  604.000;  578.000
413.339; -123.700; -685.000; -701.000
413.465;   30.700; -364.000; -310.000
413.591; -149.000; -757.000; -474.000
413.717;  -51.100; -358.000; -366.000
413.843; -275.400; -839.000; -861.000
413.969;  -70.600;  -47.000; -292.000
414.096; -172.700; -679.000; -679.000
414.222;   14.900;  -33.000;   85.000
414.348;  -43.000; -652.000; -385.000
414.474;  130.200;   38.000;  -52.000
414.600;   47.400; -126.000; -144.000
414.726;    2.400;  -96.000;  -55.000
414.852;  -62.500; -365.000; -342.000
414.978;  118.200;  104.000;  -18.000
415.104;  151.400;   38.000;   80.000
415.230;   81.100; -329.000; -330.000
415.356;  157.400; -409.000; -514.000
415.482;  479.300;   13.000;  -35.000
415.608;  630.900; -247.000; -323.000
415.734; 2157.900;   67.000;   38.000
415.860;44380.300; -875.000; -767.000
415.986;28687.900; -685.000; -607.000
416.111; 2436.500; -798.000; -652.000
416.237;  550.800; -424.000; -571.000
416.363; 2825.200; -765.000; -733.000
416.489; 9063.400; -324.000; -251.000
416.615;  910.800; -707.000; -742.000
416.741;   11.400; -677.000; -784.000
416.866; -113.500; -673.000; -736.000
416.992; -191.700; -801.000; -818.000
417.118;    3.700;  -41.000;  -80.000
417.244; -140.900; -798.000; -531.000
417.369; -130.200; -801.000; -612.000
417.495;   31.400; -325.000; -254.000
417.621; -125.400;-1015.000; -803.000
417.746;   33.000; -579.000; -572.000
417.872;  162.100; -254.000; -144.000
417.998;  179.000; -515.000; -530.000
418.123; 2678.700;-1073.000; -845.000
418.249;11967.300; -512.000; -601.000
418.374; 1482.500; -916.000; -824.000
418.500;  293.100; -383.000; -482.000
418.626;  315.500;   70.000;  -59.000
418.751;  281.600; -549.000; -448.000
418.877;  482.700; -637.000; -643.000
419.002; 4453.100; -688.000; -560.000
419.128;27865.600; -930.000; -721.000
419.253; 6116.300; -967.000; -837.000
419.379;  892.700; -391.000; -338.000
419.504;  934.400;  325.000;  415.000
419.629; 1157.800; -393.000; -212.000
419.755; 8999.900; -317.000; -254.000
419.880;46851.600;  -98.000;   67.000
420.006;25461.000; -280.000; -221.000
420.131;60153.400; -662.000; -775.000
420.256; 7837.700; -315.000; -316.000
420.382; 1122.800; -665.000; -687.000
420.507;  162.600; -649.000; -778.000
420.632;  215.400; -337.000; -339.000
420.758;  320.000; -251.000; -425.000
420.883; -138.000; -876.000; -672.000
421.008; -170.000; -775.000; -619.000
421.133; -136.600; -509.000; -467.000
421.259;  -26.000; -325.000; -259.000
421.384; -185.900; -834.000; -693.000
421.509; -103.500;-1052.000; -862.000
421.634; 1551.500; -936.000; -820.000
421.759;  553.200; -359.000; -327.000
421.885; -115.700; -717.000; -656.000
422.010; -114.600; -673.000; -542.000
422.135; -238.900; -695.000; -727.000
422.260;  129.000;  340.000;  280.000
422.385;  -32.600;   12.000;  -98.000
422.510;   74.200;  151.000;  -26.000
422.635;   97.700;  -87.000;  -43.000
422.760;  211.600; -766.000; -791.000
422.885;  140.400;  -57.000;  -80.000
423.010;   -2.900; -112.000; -169.000
423.135; -125.100; -481.000; -561.000
423.260;    7.400; -150.000; -245.000
423.385;  185.000;  476.000;  222.000
423.510;  117.200;   71.000;  -22.000
423.635;  144.900;  133.000;   45.000
423.760;  162.800;  383.000;  328.000
423.885;  163.300;  336.000;  391.000
424.010;   87.600;  -68.000;  -13.000
424.135;    1.800;    5.000;  -33.000
424.259; -102.300; -654.000; -457.000
424.384;  -50.200; -279.000; -272.000
424.509;    9.300; -260.000; -186.000
424.634; -140.700; -761.000; -623.000
424.759;    2.300; -688.000; -544.000
424.883;   23.800; -506.000; -527.000
425.008;  408.500; -502.000; -410.000
425.133; 4568.900; -679.000; -653.000
425.258; 1891.300; -517.000; -381.000
425.382; 1738.000; -867.000; -774.000
425.507; 3899.600; -487.000; -543.000
425.632;  698.500; -802.000; -663.000
425.756; 1048.400; -256.000; -146.000
425.881;16428.200; -831.000; -857.000
426.006;39489.800; -604.000; -355.000
426.130; 5404.800; -696.000; -508.000
426.255;  761.900; -611.000; -491.000
426.379;  389.600; -189.000; -577.000
426.504;  900.600;  660.000;  544.000
426.629; 9064.200; -519.000; -466.000
426.753; 5598.900;   64.000;  -46.000
426.878;  689.100; -252.000; -288.000
427.002;  477.000; -651.000; -668.000
427.127; 3863.300;  -35.000; -158.000
427.251;25364.300;  372.000;  401.000
427.375; 6157.300; -191.000; -173.000
427.500; 3665.500; -616.000; -610.000
427.624; 1120.400; -234.000; -400.000
427.749;  184.000; -216.000; -225.000
427.873;  -37.900; -499.000; -412.000
427.997;   -2.500; -222.000; -230.000
428.122;  191.200;  795.000;  703.000
428.246;  195.300;  433.000;  434.000
428.371; -222.300; -869.000; -773.000
428.495; -159.200; -624.000; -646.000
428.619;    8.300; -186.000; -117.000
428.743;   65.900;   65.000;  132.000
428.868;   28.700; -732.000; -643.000
428.992; 2147.900; -219.000; -326.000
429.116;  787.700; -329.000; -357.000
429.240;  446.000;  419.000;  426.000
429.365;  -33.800; -454.000; -574.000
429.489;  -56.900; -638.000; -647.000
429.613;  130.600; -236.000; -177.000
429.737;  120.800; -563.000; -432.000
429.861;  633.900; -247.000; -133.000
429.985;13035.600; -425.000; -305.000
430.109;12589.400; -770.000; -908.000
430.234; 1401.200;   76.000;  -50.000
430.358;  176.400; -250.000; -160.000
430.482;  -76.500; -672.000; -564.000
430.606;  -73.100; -655.000; -375.000
430.730;   48.900; -437.000; -388.000
430.854;   92.500; -909.000; -835.000
430.978; -129.800; -795.000; -764.000
431.102; -105.900; -499.000; -422.000
431.226; -197.400; -874.000; -815.000
431.350;   99.900;  345.000;  422.000
431.474; -126.400; -661.000; -373.000
431.597; -263.600;-1060.000; -848.000
431.721; -110.800; -276.000; -267.000
431.845; -195.300; -704.000; -472.000
431.969;  -84.300; -304.000; -349.000
432.093; -144.800; -395.000; -317.000
432.217;   23.400;   32.000;   82.000
432.341; -105.500; -523.000; -518.000
432.464;   69.800;   96.000;   40.000
432.588;  326.100; -401.000; -329.000
432.712;  174.600;  -52.000;  -52.000
432.836;  152.700;  213.000;  263.000
432.959;   32.100; -372.000; -311.000
433.083;  245.500;   11.000;    2.000
433.207;  879.700;  285.000;  930.000
433.330;12051.600; -391.000; -200.000
433.454;13403.300; -654.000; -638.000
433.578; 7842.300;  583.000;  278.000
433.701; 1296.100; -623.000; -675.000
433.825;  233.300; -292.000; -299.000
433.949;  299.700;   28.000;  -72.000
434.072;   75.600; -410.000; -323.000
434.196;   29.500; -309.000; -117.000
434.319; 8012.700;25482.000;25124.000
434.443; 1715.700; -656.000; -603.000
434.566; 5873.200;  281.000;   62.000
434.690;  902.300; -637.000; -383.000
434.813;  170.900; -251.000; -173.000
434.937; -107.700; -569.000; -696.000
435.060;  -41.500; -423.000; -332.000
435.184;  374.200; -492.000; -217.000
435.307;  254.600;  159.000;  102.000
435.431;   27.100;  -40.000;   24.000
435.554;  -98.800; -399.000; -240.000
435.677;  -98.200; -350.000; -258.000
435.801;   -3.200;  -25.000;   49.000
435.924;    6.800;    1.000;  -67.000
436.048; -215.800;-1019.000; -732.000
436.171;  -96.000; -240.000;  -66.000
436.294;   37.700; -248.000; -229.000
436.417;  323.300; -963.000; -849.000
436.541; -125.700; -814.000; -840.000
436.664;  -14.200; -242.000; -316.000
436.787;   27.600;   13.000;  113.000
436.910; -187.600; -792.000; -422.000
437.034;   37.100;  142.000;  143.000
437.157;  124.900;  -11.000;    0.000
437.280;  -55.600; -392.000; -292.000
437.403; -211.600; -982.000; -869.000
437.526;  811.500; -903.000; -865.000
437.649; 2859.500; -505.000; -332.000
437.772;  263.700; -692.000; -540.000
437.896;  249.900;  700.000;  544.000
438.019; -184.000; -758.000; -503.000
438.142; -124.400; -596.000; -506.000
438.265;  -35.900; -639.000; -670.000
438.388;  850.800; -520.000; -410.000
438.511;   96.000; -597.000; -394.000
438.634;  -62.400; -247.000; -125.000
438.757; -224.300; -693.000; -619.000
438.880;   18.600;  -34.000;  -57.000
439.003; -119.800; -417.000; -437.000
439.126;  -74.500; -287.000; -167.000
439.248;  -44.000;  -98.000; -139.000
439.371;  -12.500;    9.000;  -53.000
439.494;  134.400;  510.000;  439.000
439.617;  -41.100;   65.000;  -88.000
439.740; -348.200; -968.000; -816.000
439.863; -226.900; -755.000; -595.000
439.986; -196.500; -476.000; -431.000
440.108;  -26.700; -161.000; -112.000
440.231; -270.300; -950.000; -836.000
440.354;   -7.700;  -64.000; -150.000
440.477;   38.200; -566.000; -542.000
440.599;    6.000; -200.000; -225.000
440.722; -233.000; -709.000; -586.000
440.845;  200.100;  751.000;  928.000
440.968; -182.900; -415.000; -311.000
441.090;  -85.400; -199.000;  -33.000
441.213; -283.300;-1021.000; -825.000
441.336;  -40.100; -159.000;   -5.000
441.458; -128.200; -549.000; -396.000
441.581; -149.800; -628.000; -629.000
441.703;  -96.300; -152.000;   13.000
441.826; -177.400; -557.000; -400.000
441.948;  -43.100;   56.000;   51.000
442.071;  133.300;  555.000;  424.000
442.193; -175.200; -531.000; -485.000
442.316;   88.500;  152.000;   97.000
442.438;  137.800; -233.000;  -10.000
442.561;  212.900;  272.000;  262.000
442.683;  744.500; -809.000; -522.000
442.806; 1445.500;   -8.000;   74.000
442.928;  -53.500; -859.000; -604.000
443.051;  -86.600; -577.000; -373.000
443.173; -133.600; -341.000; -339.000
443.295; -148.500; -263.000; -371.000
443.418; -105.400; -321.000;  -29.000
443.540;   30.100; -106.000;   -4.000
443.662; -202.400; -563.000; -465.000
443.785;   65.600;  335.000;  199.000
443.907; -179.300; -362.000; -208.000
444.029; -228.600; -767.000; -494.000
444.152; -222.900; -644.000; -554.000
444.274;   11.900;  -18.000;  -24.000
444.396; -202.700; -461.000; -221.000
444.518; -212.600; -691.000; -454.000
444.640; -145.200; -268.000; -111.000
444.763;   41.400;  388.000;  249.000
444.885; -182.100; -432.000; -392.000
445.007;   -9.600;   35.000;   86.000
445.129; -196.800; -610.000; -515.000
445.251; -158.100; -372.000; -439.000
445.373; -215.500; -537.000; -386.000
445.495;   99.500;  242.000;  350.000
445.617;  167.300;  853.000;  753.000
445.739;  -94.900; -215.000;  -97.000
445.861;  -12.200; -245.000; -112.000
445.984;  -50.400; -267.000; -101.000
446.105;  309.900; -418.000; -251.000
446.227;  841.900; -176.000;  -19.000
446.349;  -45.000; -358.000; -249.000
446.471; -158.000; -615.000; -448.000
446.593;  -85.900; -316.000;   19.000
446.715;   12.000;  -67.000;   41.000
446.837;  180.000;  697.000;  832.000
446.959; -138.400; -457.000; -478.000
447.081; -227.800; -628.000; -518.000
447.203;  176.500;  862.000;  834.000
447.325; -127.400; -270.000;   42.000
447.446;   36.100;  286.000;  530.000
447.568; -271.000; -921.000; -803.000
447.690; -104.200; -236.000; -245.000
447.812; -242.900; -798.000; -519.000
447.933;   -9.600;  155.000;  127.000
448.055;  -59.400; -306.000; -261.000
448.177;  270.300;   31.000;   79.000
448.299;   62.300; -935.000; -727.000
448.420;   57.600;  -25.000;  159.000
448.542;  -41.000;   -3.000;   33.000
448.664;  -27.900;  109.000;  322.000
448.785;  -21.700;  265.000;   83.000
448.907;  -93.300; -614.000; -353.000
449.028;  -77.500; -771.000; -471.000
449.150;  151.100;  492.000;  589.000
449.272; -282.900;-1044.000; -913.000
449.393;  136.800;  612.000;  694.000
449.515; -236.300; -634.000; -581.000
449.636;  -58.900; -264.000; -155.000
449.758;  217.700;  763.000;  622.000
449.879; -132.300; -498.000; -396.000
450.001;  -91.500; -149.000;  -49.000
450.122;  -17.500;  -95.000;  162.000
450.244;    8.400;   37.000;  364.000
450.365; -129.400; -495.000; -301.000
450.486;   -6.900;   80.000;  268.000
450.608;   92.400;  393.000;  326.000
450.729;  244.900;  578.000;  645.000
450.850;  102.600; -574.000; -466.000
450.972; 1973.000; -552.000; -389.000
451.093;11619.000;  190.000;  588.000
451.214; 4421.200; -516.000; -337.000
451.336;  854.200;  773.000;  579.000
451.457;  190.800;  264.000;  393.000
451.578;   -8.100; -118.000;  -74.000
451.699; -202.700; -546.000; -540.000
451.821;  -77.600; -284.000;  -50.000
451.942;   56.300;  278.000;  285.000
452.063;  181.300;  228.000;  419.000
452.184; 1411.100;  -54.000;  -49.000
452.305; 2446.800;  103.000;  170.000
452.427;  287.400; -549.000; -301.000
452.548;   24.000;   23.000;   79.000
452.669;  -71.700; -257.000;  -89.000
452.790;  -31.000;    3.000;  -18.000
452.911;   59.200;  195.000;  259.000
453.032;  -77.100; -289.000;  -60.000
453.153;  -69.300;  -29.000;   81.000
453.274;  201.200;  737.000;  868.000
453.395;  -56.600;  -51.000;  175.000
453.516;  208.300; 1317.000; 1388.000
453.637; -102.500; -205.000; -150.000
453.758;  -57.500;   15.000;   69.000
453.879; -193.100; -462.000; -250.000
454.000;  255.000; 1086.000;  948.000
454.121; -204.500; -554.000; -326.000
454.242; -172.700; -599.000; -383.000
454.362;  -23.200;  -99.000;  114.000
454.483;  -16.000; -309.000; -229.000
454.604;  176.100;  512.000;  580.000
454.725; -221.000; -627.000; -555.000
454.846; -216.200; -474.000; -406.000
454.967;   35.700;  230.000;  539.000
455.087;  -39.800;  179.000;  153.000
455.208;   89.500;  554.000;  856.000
455.329;  -75.000;  -22.000;   82.000
455.450;  135.600;  473.000;  633.000
455.570; -124.700; -234.000; -211.000
455.691;  -16.000;  201.000;  407.000
455.812; -141.200; -270.000;  -92.000
455.932;  -32.600;  107.000;  -97.000
456.053; -105.800;   36.000;   24.000
456.173; -192.800; -433.000; -355.000
456.294; -198.200; -476.000; -303.000
456.415;  -63.300;  -73.000;   70.000
456.535;  -12.300;  297.000;  273.000
456.656;  -30.100;  132.000;  240.000
456.776;  -82.700;    3.000;  298.000
456.897;   55.600;  308.000;  513.000
457.017;  -83.100; -153.000;   -3.000
457.138; -161.500; -402.000; -249.000
457.258;   -4.300;  263.000;  224.000
457.379;   25.800;  509.000;  521.000
457.499;   27.500;  443.000;  432.000
457.620; -199.000; -407.000; -231.000
457.740; -160.900; -132.000;  -11.000
457.860;  -61.100;   87.000;   44.000
457.981;  -39.800;  132.000;  124.000
458.101; -101.600;  -89.000;   40.000
458.221;   32.300;  336.000;  402.000
458.342;  -87.800;   -4.000;  -37.000
458.462;  169.500;  617.000;  352.000
458.582;   -6.700; -302.000; -294.000
458.703;  106.100;  303.000;  154.000
458.823;   22.600;   22.000;  163.000
458.943;  116.300;  341.000;  467.000
459.063;   30.900; 1124.000;  192.000
459.183;   17.200;  328.000;  313.000
459.304;  105.900;  315.000;  517.000
459.424;  -58.500; -246.000;  -89.000
459.544;  872.100;  388.000;  764.000
459.664; 1930.300;  499.000;  506.000
459.784;  652.600; 1004.000; 1175.000
459.904;  189.400;  867.000;  744.000
460.024;  205.700;  867.000;  684.000
460.144;   89.700;  449.000;  554.000
460.264;   36.900;  515.000;  327.000
460.385; -105.200; -145.000; -119.000
460.505;  155.400;  905.000;  858.000
460.625; -117.100;  -17.000;  -68.000
460.745;    8.300;  396.000;  541.000
460.864;  -48.700;  153.000;  469.000
460.984;  112.200;  499.000;  573.000
461.104;  342.800; 1656.000; 1775.000
461.224;   88.400;  657.000;  650.000
461.344;   24.800;  431.000;  360.000
461.464;   24.300;  258.000;  513.000
461.584;   -9.100;  283.000;  466.000
461.704;  -64.200;   58.000;  108.000
461.824;  -49.500;  238.000;  259.000
461.943;  -51.600;  191.000;  130.000
462.063;  -86.500;    2.000;  324.000
462.183;  135.300;  639.000;  717.000
462.303;  282.500; 1678.000; 1230.000
462.422;  163.500;  781.000;  840.000
462.542;  -22.400;  271.000;  391.000
462.662;  111.600;  353.000;  380.000
462.782;  614.200;  833.000;  572.000
462.901; 1156.900;  545.000;  717.000
463.021;  627.000; 1702.000; 1638.000
463.141;   60.900;  337.000;  770.000
463.260;   16.100;  614.000;  474.000
463.380;  103.500;  902.000;  884.000
463.499;   31.600;  342.000;  332.000
463.619;    3.100;  581.000;  559.000
463.738;  310.600; 1644.000;  903.000
463.858;   66.900;  657.000;  811.000
463.978;    3.300;  542.000;  396.000
464.097;  147.300;  921.000; 1114.000
464.217;  345.600; 1196.000; 1143.000
464.336;  294.400; 1068.000; 1130.000
464.455;   -0.700;  328.000;  659.000
464.575;  101.700;  597.000;  602.000
464.694;  387.600; 1204.000; 1179.000
464.814;  312.600; 1190.000; 1138.000
464.933;  230.400; 1095.000; 1027.000
465.052;  290.400; 1412.000; 1054.000
465.172;  240.000;  922.000;  799.000
465.291;  333.700; 1376.000; 1320.000
465.410;   93.200;  462.000;  735.000
465.530;  217.500; 1355.000; 1310.000
465.649;  216.900; 1209.000; 1273.000
465.768;  347.300; 1673.000; 1508.000
465.888;  133.300;  941.000; 1174.000
466.007;  254.700; 1335.000; 1440.000
466.126;   34.800;  721.000;  641.000
466.245;  149.200; 1176.000; 1187.000
466.364;   76.000;  950.000; 1060.000
466.484;  161.900; 1024.000; 1213.000
466.603;  165.100; 1101.000; 1222.000
466.722;  324.900; 1490.000; 1769.000
466.841;  211.000; 1151.000; 1401.000
466.960;  148.900; 1069.000;  972.000
467.079;  326.300; 1971.000; 1786.000
467.198;  175.900; 1238.000; 1181.000
467.317;  244.900; 1768.000; 1162.000
467.436;  186.300; 1709.000; 1261.000
467.555;  324.400; 1796.000; 1746.000
467.674;  201.000; 1227.000; 1329.000
467.793;  210.900; 1376.000; 1374.000
467.912;  255.700; 1658.000; 1539.000
468.031;  379.900; 2038.000; 1930.000
468.150;  368.500; 1842.000; 1837.000
468.269;  498.300; 2313.000; 2090.000
468.388;  449.700; 2168.000; 2339.000
468.507;  526.900; 2884.000; 2903.000
468.626;  638.200; 2555.000; 2541.000
468.744;  366.800; 2018.000; 2174.000
468.863;  478.500; 2312.000; 2523.000
468.982;  208.200; 1503.000; 1555.000
469.101;  486.900; 2788.000; 2692.000
469.220;  363.000; 2333.000; 2176.000
469.338;  569.900; 2935.000; 3051.000
469.457;  466.600; 2719.000; 2545.000
469.576;  804.800; 3953.000; 3784.000
469.695;  595.100; 2877.000; 3066.000
469.813;  957.500; 4148.000; 4192.000
469.932;  900.300; 4255.000; 4485.000
470.051;  947.200; 4075.000; 4161.000
470.169; 1947.600; 4470.000; 4338.000
470.288; 3272.700; 4700.000; 4809.000
470.406; 1779.100; 5059.000; 5194.000
470.525; 1319.700; 6101.000; 5787.000
470.644; 1421.400; 6847.000; 6794.000
470.762; 1732.400; 8397.000; 7873.000
470.881; 1933.300; 8651.000; 8464.000
470.999; 2170.800; 9685.000; 9151.000
471.118; 2344.500;11174.000;10711.000

