
Integration time [ms]: 200.000
Averaging Nr. [scans]: 10
Smoothing Nr. [pixels]: 0
Data measured with spectrometer [name]: 2101012U2
Wave   ;Sample   ;Dark     ;Reference
[nm]   ;[counts] ;[counts] ;[counts] 

197.733;  133.400;  516.000;  404.000
197.879; -171.600; -610.000; -634.000
198.025;  -78.700; -475.000; -420.000
198.171; -182.800; -602.000; -612.000
198.317;  -97.400; -401.000; -316.000
198.463; -161.600; -655.000; -404.000
198.609;   50.800;  181.000; -137.000
198.755; -206.900; -644.000; -410.000
198.901; -165.700; -505.000; -424.000
199.047; -139.900; -615.000; -488.000
199.193;  -61.900; -230.000; -468.000
199.339;  -95.900; -222.000; -369.000
199.485;   65.400;  330.000;  271.000
199.631;   38.800;  227.000;  310.000
199.777; -104.200; -466.000; -398.000
199.923; -129.500; -610.000; -424.000
200.069;    7.300; -141.000;  -58.000
200.215;  124.900;  128.000;  453.000
200.361;   86.100;  243.000;  477.000
200.507; -150.200; -600.000; -373.000
200.653;  -84.200; -371.000; -194.000
200.798;  -89.400; -215.000; -125.000
200.944;  -16.700; -146.000;  -41.000
201.090;   86.000;   61.000;  222.000
201.236;   -4.200; -116.000; -158.000
201.382;  273.500;  874.000;  903.000
201.528;   31.500;  -58.000;  -48.000
201.674;  -72.200; -386.000; -293.000
201.819; -116.900; -540.000; -439.000
201.965; -189.400; -699.000; -447.000
202.111;  -55.000; -273.000; -226.000
202.257;  -86.000; -250.000; -238.000
202.402;   10.500;   13.000;  -36.000
202.548;  -83.700; -169.000; -116.000
202.694;  169.400;  410.000; -183.000
202.840; -165.600; -603.000; -531.000
202.985; -149.800; -681.000; -639.000
203.131; -232.400; -832.000; -666.000
203.277;  -54.400; -199.000; -262.000
203.423; -129.800; -434.000; -520.000
203.568;  -74.500; -462.000; -237.000
203.714; -131.800; -535.000; -542.000
203.860; -159.800; -682.000; -641.000
204.005;   -4.800;  112.000;  167.000
204.151;  139.600;  561.000;  556.000
204.296;  -93.900; -354.000; -221.000
204.442; -158.300; -600.000; -547.000
204.588; -184.300; -592.000; -579.000
204.733;   36.600;  178.000;  168.000
204.879; -284.700;-1018.000; -822.000
205.025;   20.500;  -99.000;  126.000
205.170;   -1.600;  -17.000;   94.000
205.316;  165.100;  438.000;  661.000
205.461; -209.800; -698.000; -554.000
205.607;  214.000;  609.000;  665.000
205.752; -176.000; -626.000; -551.000
205.898; -132.100; -501.000; -391.000
206.043; -123.200; -578.000; -506.000
206.189; -105.600; -243.000; -285.000
206.334;  161.100;  554.000;  606.000
206.480;  153.500;  409.000;  239.000
206.625; -161.900; -529.000; -552.000
206.771;  -69.800; -451.000; -373.000
206.916;  -68.900; -210.000; -537.000
207.062; -162.100; -545.000; -591.000
207.207; -147.600; -546.000; -443.000
207.353;  127.500;  185.000;  460.000
207.498;  -14.000;  196.000;   85.000
207.643;  -98.000; -501.000; -370.000
207.789; -271.600;-1069.000; -910.000
207.934; -200.400; -665.000; -713.000
208.080;  -78.500; -154.000;   66.000
208.225;   -4.900;  -22.000;  -57.000
208.370; -208.900; -727.000; -619.000
208.516; -146.100; -741.000; -487.000
208.661;  -71.200; -127.000;  -69.000
208.806;  -34.300; -165.000; -171.000
208.952; -275.400;-1044.000; -731.000
209.097;  120.000;  378.000;  349.000
209.242;  -94.900; -307.000; -382.000
209.387;   99.900;  392.000;  350.000
209.533; -124.700; -321.000; -350.000
209.678;  175.000;  472.000;  543.000
209.823; -148.200; -408.000; -310.000
209.969; -224.800; -860.000; -757.000
210.114; -219.900; -907.000; -719.000
210.259; -233.900; -939.000; -889.000
210.404;  -28.100; -171.000;  103.000
210.549;   12.900;  108.000;    3.000
210.695;  -29.400;   -3.000;  -95.000
210.840;   69.500;   94.000;   67.000
210.985; -109.600; -484.000; -303.000
211.130;  143.700;  268.000;  406.000
211.275;   35.600;  207.000;  199.000
211.420; -110.000; -300.000; -289.000
211.566; -156.600; -536.000; -489.000
211.711;   88.500;  218.000;  157.000
211.856; -147.000; -545.000; -519.000
212.001;   39.500;  151.000;   44.000
212.146;   -5.800;  153.000;   49.000
212.291;  -45.500; -210.000; -186.000
212.436;  -59.900; -280.000;   -6.000
212.581; -192.400; -685.000; -653.000
212.726; -162.000; -487.000; -538.000
212.871;  -92.600; -552.000; -217.000
213.016; -321.400;-1172.000;-1029.000
213.161;  107.000;  406.000;  291.000
213.306; -169.200; -435.000; -577.000
213.451; -170.400; -778.000; -689.000
213.596; -109.200; -455.000; -347.000
213.741;  -98.500; -448.000; -538.000
213.886; -164.000; -498.000; -517.000
214.031;  -60.900; -294.000; -124.000
214.176; -102.000; -408.000; -341.000
214.321;   -4.800; -296.000; -157.000
214.466;  -71.600; -163.000;  -43.000
214.611;   18.300;  -61.000;  -10.000
214.756; -260.200; -948.000; -858.000
214.901;  -55.800; -388.000; -226.000
215.046; -267.700; -797.000; -825.000
215.191;   29.600;  128.000;   35.000
215.336;  -47.600; -157.000;  -19.000
215.480; -149.400; -684.000; -505.000
215.625;  -20.700; -175.000;  -19.000
215.770; -177.100; -757.000; -662.000
215.915;  -29.800;   -5.000;  -97.000
216.060;  -20.000; -113.000;  -21.000
216.205; -224.100; -731.000; -779.000
216.349; -114.700; -470.000; -533.000
216.494; -282.300; -939.000; -867.000
216.639; -239.900; -823.000; -888.000
216.784; -172.500; -577.000; -525.000
216.929;  101.800;  392.000;  281.000
217.073;  -34.300; -244.000;  -31.000
217.218;   12.400;   78.000;  -47.000
217.363; -188.800; -656.000; -618.000
217.507; -177.700; -623.000; -588.000
217.652; -273.800; -845.000; -874.000
217.797; -167.200; -708.000; -659.000
217.942; -224.100; -856.000; -720.000
218.086;  152.100;  608.000;  539.000
218.231;  -26.500; -174.000;  -26.000
218.376;  -67.500; -337.000; -229.000
218.520;   13.700;  -41.000;   96.000
218.665;  -55.000; -338.000; -204.000
218.810;  -89.400; -275.000; -233.000
218.954;   52.800;  201.000;   35.000
219.099; -248.700; -713.000; -963.000
219.243; -145.000; -589.000; -554.000
219.388;  -74.700; -264.000; -136.000
219.532;   -9.600; -116.000; -116.000
219.677; -169.200; -564.000; -521.000
219.822;   34.900;   33.000;   89.000
219.966;    1.300;   17.000;  -99.000
220.111;  -84.600; -328.000;  -40.000
220.255; -219.500; -797.000; -750.000
220.400;  -34.600; -180.000; -146.000
220.544; -120.500; -516.000; -450.000
220.689; -110.100; -422.000; -451.000
220.833;  -46.300; -123.000;  -58.000
220.978;  -90.700; -393.000; -563.000
221.122;   45.500;  319.000;  307.000
221.267; -239.000; -906.000; -837.000
221.411; -145.200; -478.000; -394.000
221.555;   30.100; -104.000;  -23.000
221.700;  -91.500; -329.000; -222.000
221.844;  119.400;  255.000;  272.000
221.989; -106.200; -328.000; -311.000
222.133;  -62.200; -289.000; -307.000
222.277;  -10.000;    5.000;   78.000
222.422;   44.900;  227.000;  113.000
222.566;  -73.600; -381.000; -214.000
222.711; -130.200; -414.000; -479.000
222.855; -165.100; -643.000; -586.000
222.999; -182.300; -642.000; -717.000
223.144;  -75.000; -195.000; -194.000
223.288;  137.300;  423.000;  251.000
223.432;   21.100;  184.000;  230.000
223.576;   65.600;  152.000;  -21.000
223.721;  106.600;  364.000;  273.000
223.865; -118.900; -472.000; -475.000
224.009;  453.000; 1673.000; 1631.000
224.153; -152.100; -660.000; -671.000
224.298; -160.500; -531.000; -489.000
224.442;   24.600;  -74.000;  -33.000
224.586;   -1.400; -169.000; -106.000
224.730; -206.700; -858.000; -670.000
224.875; -244.000; -739.000; -688.000
225.019;   37.500;  102.000;  188.000
225.163;  120.600;  208.000;  341.000
225.307;   47.000;   97.000;  -91.000
225.451;   71.500;  360.000;  481.000
225.595;   69.000;  264.000;  176.000
225.739;  -65.300; -170.000;  -94.000
225.884;   20.700;   86.000;    5.000
226.028; -211.900; -760.000; -626.000
226.172;  -78.400; -260.000; -273.000
226.316; -261.500; -941.000; -902.000
226.460; -124.900; -645.000; -493.000
226.604; -118.100; -406.000; -400.000
226.748; -210.700; -836.000; -733.000
226.892;  -56.200; -227.000; -181.000
227.036; -100.100; -537.000; -447.000
227.180; -127.100; -551.000; -375.000
227.324; -152.400; -561.000; -580.000
227.468; -246.300; -819.000; -717.000
227.612;   28.100;  242.000;  -28.000
227.756; -210.200; -845.000; -698.000
227.900;  135.300;  342.000;  441.000
228.044; -109.100; -509.000; -290.000
228.188;  118.400;  448.000;  568.000
228.332; -176.600; -546.000; -472.000
228.476;  -58.300; -223.000; -149.000
228.620; -104.300; -210.000; -150.000
228.764;  168.500;  431.000;  349.000
228.908;  -49.800; -155.000;   30.000
229.052; -127.900; -615.000; -528.000
229.195;  -19.200; -172.000;   13.000
229.339;  -65.400; -235.000; -305.000
229.483;  -61.300;    5.000; -162.000
229.627;   20.700; -156.000;  139.000
229.771; -103.600; -218.000; -294.000
229.915;   38.300;  230.000;   79.000
230.059; -189.800; -648.000; -663.000
230.202;  -47.300; -370.000; -317.000
230.346;  -25.500; -107.000;  107.000
230.490; -108.100; -489.000; -521.000
230.634; -225.300; -736.000; -553.000
230.777;  173.500;  478.000;  509.000
230.921; -111.300; -450.000; -359.000
231.065;  -70.100; -246.000; -286.000
231.209;   60.700;  261.000;  265.000
231.352;   75.300;   54.000;   40.000
231.496;   28.600;  568.000;  188.000
231.640; -185.100; -693.000; -621.000
231.783;  124.000;  546.000;  525.000
231.927;  -86.600; -294.000; -365.000
232.071; -267.400; -962.000; -736.000
232.214; -222.100; -980.000; -764.000
232.358; -230.200; -683.000; -599.000
232.502;   42.300;  -19.000;    7.000
232.645; -283.300;-1090.000; -927.000
232.789;  -47.000; -257.000; -218.000
232.933; -105.300; -407.000; -224.000
233.076; -250.900;-1038.000; -897.000
233.220; -240.000; -752.000; -777.000
233.363; -174.200; -669.000; -477.000
233.507;  114.700;  371.000;  129.000
233.650; -185.600; -764.000; -834.000
233.794;   93.700;  438.000;  461.000
233.938;  -98.100; -530.000; -362.000
234.081;  -63.100;  -93.000;   31.000
234.225; -142.100; -631.000; -539.000
234.368; -243.700; -773.000; -723.000
234.512;  -71.700; -385.000; -299.000
234.655; -198.000; -582.000; -555.000
234.798; -138.300; -493.000; -466.000
234.942; -255.400; -884.000;-1002.000
235.085; -165.100; -651.000; -443.000
235.229; -159.600; -405.000; -410.000
235.372;  -82.200; -247.000; -191.000
235.516; -146.300; -397.000; -321.000
235.659;   47.400;   92.000;  121.000
235.802;  -18.100;  -38.000;  -22.000
235.946;   76.100;  335.000;  215.000
236.089;   38.700;  126.000;  250.000
236.233;  149.100;  275.000;  298.000
236.376;  -87.500; -235.000; -378.000
236.519;  -87.600; -297.000; -319.000
236.663;  -34.100; -215.000; -117.000
236.806; -276.100;-1029.000; -999.000
236.949;  134.200;  543.000;  431.000
237.092;  129.500;  412.000;  391.000
237.236; -195.000; -589.000; -502.000
237.379;  157.500;  352.000;  428.000
237.522; -238.700; -879.000; -768.000
237.666;  -11.700; -271.000;   18.000
237.809; -262.600; -851.000; -823.000
237.952;   82.900;  469.000;  271.000
238.095; -149.200; -447.000; -442.000
238.238;  191.200;  688.000;  700.000
238.382;   10.600;  166.000;  103.000
238.525; -140.900; -598.000; -511.000
238.668; -302.300;-1060.000; -985.000
238.811; -177.300; -638.000; -643.000
238.954; -112.800; -483.000; -334.000
239.097;  195.300;  617.000;  664.000
239.241;   55.200;  394.000;  326.000
239.384;  -62.100; -254.000; -214.000
239.527; -123.700; -424.000; -224.000
239.670; -273.600; -994.000;-1091.000
239.813; -251.300; -696.000; -658.000
239.956;  198.700;  579.000;  473.000
240.099; -241.300; -778.000; -725.000
240.242;  137.700;  428.000;  432.000
240.385;   96.600;  466.000;  450.000
240.528; -140.600; -706.000; -473.000
240.671;    7.700;  189.000;  134.000
240.814;  -94.000; -441.000; -158.000
240.957; -213.600; -767.000; -578.000
241.100; -195.700; -779.000; -755.000
241.243; -286.000;-1234.000; -893.000
241.386; -117.100; -508.000; -379.000
241.529; -185.400; -735.000; -547.000
241.672; -148.200; -566.000; -495.000
241.815; -246.400; -832.000; -808.000
241.958;  -30.200; -125.000; -182.000
242.101; -166.600; -545.000; -390.000
242.244;  -60.300; -270.000; -325.000
242.387;  -77.400; -304.000; -246.000
242.530;  154.000;  470.000;  134.000
242.673;  -85.300; -381.000; -309.000
242.815; -212.300; -925.000; -899.000
242.958; -137.100; -482.000; -381.000
243.101;   38.100;  132.000;  187.000
243.244; -196.200; -564.000; -521.000
243.387;  -96.100; -313.000; -316.000
243.530; -190.400; -657.000; -674.000
243.672;    6.600;   43.000;  -92.000
243.815; -113.500; -355.000; -283.000
243.958;   23.500;   98.000;  -26.000
244.101;   -2.300;   59.000;  -16.000
244.243;  -23.100;  -47.000;  101.000
244.386; -249.900; -761.000; -630.000
244.529;  -42.600; -132.000; -139.000
244.672; -333.000;-1154.000; -951.000
244.814; -189.100; -621.000; -794.000
244.957; -117.800; -380.000; -304.000
245.100; -141.100; -489.000; -489.000
245.242; -119.900; -387.000; -374.000
245.385;  -10.800;  -59.000;  -39.000
245.528; -254.700; -871.000; -705.000
245.670;  189.100;  612.000;  634.000
245.813; -201.900; -599.000; -547.000
245.956;  -64.400; -324.000; -275.000
246.098; -179.400; -508.000; -650.000
246.241;    6.700;  194.000;   48.000
246.383;  -18.200; -119.000;  -73.000
246.526; -152.100; -454.000; -525.000
246.669; -237.000; -889.000; -780.000
246.811;   40.300;  172.000;   -1.000
246.954; -154.900; -512.000; -426.000
247.096;  -42.800;  -84.000;   -6.000
247.239; -181.200; -482.000; -445.000
247.381; -127.100; -647.000; -488.000
247.524;  156.500;  645.000;  679.000
247.666;   -9.800;   58.000;   11.000
247.809; -228.600; -887.000; -691.000
247.951;  -31.100;  -75.000;  138.000
248.094;   21.500;  432.000;  308.000
248.236; -318.400;-1262.000;-1238.000
248.378;   21.900; -356.000;  -81.000
248.521;  -38.300; -334.000; -337.000
248.663;  -75.700; -236.000; -267.000
248.806;  -44.100; -300.000; -266.000
248.948; -216.400; -886.000; -763.000
249.090;  -73.000; -428.000; -398.000
249.233;  -95.200; -344.000; -381.000
249.375; -144.700; -474.000; -451.000
249.518;  -82.700;  -83.000; -133.000
249.660;    6.400; -103.000;    3.000
249.802; -360.400;-1303.000;-1189.000
249.945; -124.400; -612.000; -540.000
250.087; -235.300; -834.000; -768.000
250.229;  -85.500; -362.000; -480.000
250.371; -159.800; -494.000; -439.000
250.514;  -91.700; -310.000; -244.000
250.656;  -33.000;   69.000;  102.000
250.798; -218.500; -849.000; -800.000
250.940; -139.400; -322.000; -322.000
251.083;  -46.900; -335.000; -111.000
251.225;  127.200;  338.000;  310.000
251.367;  -40.900; -274.000; -373.000
251.509;  -99.700; -265.000; -210.000
251.651; -197.900; -731.000; -671.000
251.794;  109.800;  538.000;  632.000
251.936; -207.900; -821.000; -747.000
252.078; -192.600; -540.000; -461.000
252.220; -132.200; -645.000; -477.000
252.362;  192.400;  344.000;  462.000
252.504; -124.600; -677.000; -584.000
252.646; -222.800; -875.000; -722.000
252.788;   22.900;   14.000; -128.000
252.931;  -78.600; -257.000; -253.000
253.073;  -89.000; -376.000; -317.000
253.215;   -3.200;  141.000;  122.000
253.357;    4.600;   82.000; -153.000
253.499; -119.900; -374.000; -234.000
253.641; -161.900; -749.000; -594.000
253.783; -183.400; -609.000; -527.000
253.925; -148.000; -586.000; -591.000
254.067; -218.000; -744.000; -667.000
254.209;  -46.400; -391.000; -259.000
254.351; -284.200; -865.000; -883.000
254.493; -108.400; -441.000; -417.000
254.635; -227.500; -936.000; -818.000
254.777; -153.400; -752.000; -687.000
254.918; -155.000; -512.000; -430.000
255.060; -119.900; -551.000; -395.000
255.202; -135.200; -473.000; -261.000
255.344; -147.300; -658.000; -455.000
255.486; -152.400; -471.000; -406.000
255.628; -203.100; -780.000; -781.000
255.770; -181.700; -676.000; -536.000
255.912; -113.000; -559.000; -468.000
256.053; -174.500; -730.000; -508.000
256.195;  340.900; 1008.000;  903.000
256.337; -211.400; -861.000; -595.000
256.479;  148.300;  532.000;  416.000
256.621;  -72.400; -394.000; -212.000
256.762; -194.200; -789.000; -742.000
256.904;   95.700;  485.000;  487.000
257.046;  -71.800; -381.000; -271.000
257.188;  -79.600; -351.000; -264.000
257.329; -165.500; -525.000; -464.000
257.471; -262.500; -939.000; -807.000
257.613; -121.100; -584.000; -498.000
257.755; -319.600;-1073.000; -982.000
257.896;  129.700;  286.000;  392.000
258.038; -155.300; -403.000; -352.000
258.180;  -57.900; -354.000; -279.000
258.321; -168.300; -581.000; -457.000
258.463;   -8.400;  -71.000;  133.000
258.605; -160.000; -562.000; -570.000
258.746; -205.400; -886.000; -772.000
258.888; -323.100;-1026.000;-1020.000
259.029;   65.700;  121.000;   -8.000
259.171; -168.900; -614.000; -550.000
259.313;  -12.900;  -49.000;  -47.000
259.454; -161.300; -536.000; -414.000
259.596;  -95.100; -483.000; -390.000
259.737; -167.000; -590.000; -474.000
259.879;  105.100;  217.000;  311.000
260.020;  157.900;  901.000;  636.000
260.162;  -66.100; -146.000; -253.000
260.303; -229.100; -768.000; -687.000
260.445; -176.900; -609.000; -613.000
260.586;   49.600;  392.000;  157.000
260.728;  -90.600; -360.000; -248.000
260.869; -127.200; -350.000; -343.000
261.011;  165.900;  706.000;  537.000
261.152; -113.300; -479.000; -319.000
261.293; -162.200; -576.000; -595.000
261.435;  -29.500; -219.000; -184.000
261.576;  -90.600; -455.000; -325.000
261.718;  101.600;  420.000;  470.000
261.859; -221.200; -940.000; -949.000
262.000; -262.600; -951.000;-1016.000
262.142;  -27.400;  -52.000;  -60.000
262.283; -240.000; -808.000; -691.000
262.424; -162.300; -666.000; -625.000
262.566; -341.100;-1161.000; -983.000
262.707; -223.900; -840.000; -830.000
262.848; -267.400; -769.000; -726.000
262.990;  -83.900; -362.000; -345.000
263.131;  175.100;  650.000;  681.000
263.272;   36.800;  -61.000;  -41.000
263.413; -199.100; -589.000; -561.000
263.555;  -97.700; -669.000; -143.000
263.696; -145.000; -550.000; -641.000
263.837; -114.400; -449.000; -551.000
263.978;  -17.000;   -5.000;  -77.000
264.119;  -83.400; -283.000; -264.000
264.261; -207.400; -847.000; -630.000
264.402;   45.100;   33.000;   40.000
264.543; -126.100; -509.000; -524.000
264.684;    5.200;   61.000;  -50.000
264.825; -151.300; -816.000; -538.000
264.966;   11.000;  -84.000;  -67.000
265.107; -237.300; -646.000; -670.000
265.248; -225.100; -825.000; -812.000
265.390;   11.900;  152.000;   -9.000
265.531;  -19.800; -238.000; -107.000
265.672; -172.800; -557.000; -630.000
265.813;  149.200;  563.000;  439.000
265.954; -268.600; -959.000; -940.000
266.095;  -48.900; -372.000; -322.000
266.236; -211.100; -686.000; -548.000
266.377;  -54.900; -243.000; -297.000
266.518; -132.300; -619.000; -547.000
266.659;   98.900;  170.000;  268.000
266.800;    3.500;   83.000;   85.000
266.941; -167.400; -487.000; -478.000
267.082;   45.000;  354.000;   99.000
267.223;  -85.300; -344.000; -273.000
267.364; -222.500; -892.000; -686.000
267.504;   -9.000;    3.000;  135.000
267.645;   15.600;  160.000;   67.000
267.786;  -50.900; -147.000;  -86.000
267.927; -138.700; -473.000; -379.000
268.068;   14.600; -186.000;  -61.000
268.209;  -76.800; -175.000; -413.000
268.350; -113.500; -388.000; -532.000
268.490; -149.800; -648.000; -521.000
268.631;  121.400;  127.000;  225.000
268.772; -214.200; -874.000; -647.000
268.913;  -82.200; -328.000; -476.000
269.054;  -28.100; -117.000;   12.000
269.194; -120.000; -418.000; -402.000
269.335; -292.400;-1137.000;-1074.000
269.476;  -31.800;   33.000;  -35.000
269.617;  -95.100; -347.000; -392.000
269.757; -177.900; -713.000; -646.000
269.898; -197.700; -856.000; -613.000
270.039; -117.400; -415.000; -405.000
270.180; -290.200; -952.000; -816.000
270.320;  -35.300; -190.000; -250.000
270.461; -130.600; -277.000; -249.000
270.602;   10.300; -186.000; -156.000
270.742; -231.800; -868.000; -943.000
270.883; -106.300; -442.000; -390.000
271.023; -127.200; -358.000; -357.000
271.164; -141.100; -607.000; -528.000
271.305; -200.600; -666.000; -654.000
271.445; -188.900; -722.000; -683.000
271.586; -143.100; -462.000; -283.000
271.726;  -77.100; -397.000; -322.000
271.867; -116.400; -594.000; -534.000
272.008;  330.500; -473.000; -285.000
272.148;  275.600;  462.000;  468.000
272.289;   34.300; -113.000; -181.000
272.429;   55.900;   19.000;  185.000
272.570; -171.600; -633.000; -737.000
272.710; -214.000; -825.000; -775.000
272.851;  -23.800;  113.000; -130.000
272.991; -317.800;-1173.000;-1077.000
273.131; -122.200; -419.000; -459.000
273.272; -172.800; -683.000; -723.000
273.412;   38.700; -143.000;  -31.000
273.553;  -77.300; -488.000; -507.000
273.693;  318.000;  913.000;  858.000
273.834; -164.200; -894.000; -692.000
273.974; -145.200; -664.000; -615.000
274.114; -183.200; -772.000; -560.000
274.255;  229.400;  414.000;  373.000
274.395;   13.600; -180.000; -125.000
274.535;  115.600;  199.000;  350.000
274.676;   68.900;  225.000;   94.000
274.816;   62.800;  110.000;   34.000
274.956; -159.400; -624.000; -690.000
275.097; -162.300;-1014.000; -922.000
275.237; -207.400; -913.000; -803.000
275.377; -170.800; -778.000; -689.000
275.517; -324.500; -878.000; -937.000
275.658; -121.900; -590.000; -555.000
275.798; -126.400; -606.000; -413.000
275.938;   47.800;  215.000;  323.000
276.078; -171.300; -626.000; -395.000
276.218;   39.300;   99.000;  104.000
276.359; -265.100;-1026.000;-1024.000
276.499; -105.600; -605.000; -446.000
276.639;  -69.800; -305.000; -151.000
276.779;  -50.500; -475.000; -357.000
276.919; -198.000; -783.000; -624.000
277.059;  -25.200; -261.000; -212.000
277.199;  -57.900; -357.000; -259.000
277.340;  108.500;  287.000;  175.000
277.480; -216.700; -840.000; -693.000
277.620;  114.700;  192.000;   16.000
277.760; -404.200;-1533.000;-1294.000
277.900;   50.300;  113.000;   33.000
278.040;   60.900;  137.000;  159.000
278.180;  128.700;  270.000;  170.000
278.320;    9.700;   21.000;   56.000
278.460; -127.900; -443.000; -469.000
278.600; -173.700; -708.000; -598.000
278.740;  122.000;  448.000;  224.000
278.880; -100.700; -768.000; -791.000
279.020;   65.200; -194.000; -144.000
279.160; -139.700; -672.000; -595.000
279.300; -249.200; -926.000; -873.000
279.440; -186.600; -709.000; -622.000
279.579; -101.400;-1014.000; -929.000
279.719; -110.600; -410.000; -394.000
279.859;  147.100;   -4.000;   41.000
279.999;   42.100; -208.000;  101.000
280.139;  -58.900; -435.000; -387.000
280.279; -131.100; -708.000; -745.000
280.419;  -14.800; -229.000; -147.000
280.559;  -50.000; -259.000; -180.000
280.698; -159.300; -790.000; -639.000
280.838; -181.600; -778.000; -800.000
280.978; -195.500; -846.000; -790.000
281.118; -217.100; -811.000; -704.000
281.257;   32.600;   24.000;    6.000
281.397; -208.300;-1094.000; -960.000
281.537; -165.900; -599.000; -712.000
281.677;  -18.100; -150.000; -101.000
281.816; -172.800; -700.000; -630.000
281.956;  -74.100; -193.000; -257.000
282.096; -106.400; -539.000; -396.000
282.235; -168.800; -672.000; -638.000
282.375;  -36.400; -243.000;  -98.000
282.515; -188.300; -715.000; -707.000
282.654;   97.800;   29.000;  106.000
282.794;   96.500;  388.000;  244.000
282.934;  -49.600; -530.000; -491.000
283.073; -241.600;-1030.000; -857.000
283.213;  -70.200; -460.000; -467.000
283.353;  -65.100; -408.000; -349.000
283.492;  -35.200; -264.000; -296.000
283.632;  -64.000; -254.000; -168.000
283.771; -164.300; -859.000; -730.000
283.911;  -84.300; -369.000; -260.000
284.050; -172.000; -794.000; -748.000
284.190; -318.100;-1229.000;-1096.000
284.329; -257.500;-1055.000; -964.000
284.469; -129.100; -516.000; -591.000
284.608; -115.300; -559.000; -598.000
284.748; -153.000; -614.000; -570.000
284.887;   36.000;  -87.000;  -20.000
285.027; -239.700; -844.000; -892.000
285.166;    4.200; -192.000; -249.000
285.306;   58.900; -116.000;  -33.000
285.445;  -41.200; -229.000; -343.000
285.584; -165.800; -630.000; -494.000
285.724;  -65.100; -282.000; -322.000
285.863; -217.400; -857.000; -507.000
286.002;  -71.000; -366.000; -276.000
286.142; -171.100; -715.000; -622.000
286.281; -125.200; -525.000; -493.000
286.420; -147.400; -554.000; -417.000
286.560;  233.700;  653.000;  623.000
286.699; -254.500; -958.000; -912.000
286.838; -125.300; -590.000; -591.000
286.978; -142.800; -533.000; -537.000
287.117; -254.900;-1085.000; -950.000
287.256;  -69.700; -228.000; -211.000
287.395;  -68.700; -197.000; -378.000
287.535;  -74.400; -370.000; -298.000
287.674; -161.500; -509.000; -484.000
287.813;  134.000;  661.000;  533.000
287.952; -238.600;-1010.000; -871.000
288.091; -305.900;-1049.000; -915.000
288.231;   73.300;   13.000;   15.000
288.370; -311.600;-1217.000;-1200.000
288.509; -146.400; -728.000; -645.000
288.648; -180.300; -770.000; -548.000
288.787;  -20.500; -243.000;  -87.000
288.926; -101.500; -454.000; -475.000
289.065;  276.100;  859.000;  672.000
289.204;  -84.300; -377.000; -217.000
289.344; -146.100; -791.000; -690.000
289.483;   79.100;  416.000;  304.000
289.622;  -20.300; -291.000; -149.000
289.761;  -16.400; -309.000; -166.000
289.900; -191.600; -785.000; -626.000
290.039;  -33.600;  -12.000;  -95.000
290.178;  -49.700; -274.000; -180.000
290.317; -144.300; -618.000; -479.000
290.456; -100.200; -463.000; -451.000
290.595; -276.800; -961.000; -833.000
290.734; -258.900; -904.000; -891.000
290.873; -113.000; -456.000; -420.000
291.011; -204.300; -833.000; -843.000
291.150; -185.500; -770.000; -682.000
291.289;  -30.800; -343.000; -110.000
291.428; -184.300; -599.000; -480.000
291.567;  -95.600; -370.000; -442.000
291.706;   20.300;  109.000;  154.000
291.845; -162.200; -597.000; -505.000
291.984; -330.800;-1234.000;-1061.000
292.122;  203.500;  602.000;  582.000
292.261;  138.100;  620.000;  463.000
292.400;   71.300; -144.000;  211.000
292.539; -233.700; -959.000; -813.000
292.678;  -27.100; -325.000; -300.000
292.816; -311.400;-1136.000; -965.000
292.955; -125.200; -844.000; -684.000
293.094;  -12.200; -173.000; -337.000
293.233;  -88.800; -556.000; -400.000
293.371;  -39.000; -225.000;  -84.000
293.510; -186.900; -866.000; -780.000
293.649; -245.800; -959.000; -924.000
293.787; -115.500;-1083.000;-1012.000
293.926;   34.300; -113.000;  -32.000
294.065;  -79.000; -379.000; -290.000
294.203;  108.900;  298.000;  406.000
294.342;  112.900;   74.000;  156.000
294.481;11409.300;51180.000; -836.000
294.619;  -17.600; -425.000; -582.000
294.758; -259.000;-1230.000;-1137.000
294.896;  171.000; -125.000;    5.000
295.035; -233.300;-1040.000;-1006.000
295.174; -207.300;-1082.000; -954.000
295.312;  -61.400; -323.000; -203.000
295.451;    1.600; -307.000; -428.000
295.589;  -62.700; -389.000; -518.000
295.728;   62.300; -292.000; -165.000
295.866;   41.000;  -36.000;  -51.000
296.005; -116.200; -584.000; -341.000
296.143;  -92.200; -558.000; -596.000
296.282; -130.300; -957.000; -881.000
296.420; -155.700; -657.000; -557.000
296.559; -148.800; -892.000; -633.000
296.697;   65.500; -847.000; -665.000
296.835;  163.600;-1141.000;-1002.000
296.974;  127.900;  -23.000;   39.000
297.112;   86.300; -443.000; -504.000
297.251; -125.300; -815.000; -755.000
297.389;  231.700; -576.000; -438.000
297.527;   95.200; -145.000;  -83.000
297.666;  -73.800; -486.000; -438.000
297.804;  -75.200; -404.000; -264.000
297.942;    6.400; -136.000; -161.000
298.081;   42.000; -183.000;   63.000
298.219;  190.200;  -17.000;  -19.000
298.357;  128.700; -144.000;  -71.000
298.495;  103.400; -810.000; -812.000
298.634;  179.900;  245.000;  219.000
298.772;  135.800; -220.000; -338.000
298.910;  -44.100; -309.000; -182.000
299.048;   26.000; -130.000; -153.000
299.187;  -51.400; -350.000; -250.000
299.325;  124.000;   52.000;  122.000
299.463;  126.800; -389.000; -299.000
299.601;  292.500; -327.000; -271.000
299.739; -194.500; -908.000; -883.000
299.877; -107.800; -791.000; -703.000
300.016;  -95.400;-1095.000; -935.000
300.154;  325.100;  -19.000; -161.000
300.292;  129.200; -428.000; -348.000
300.430;   85.500; -408.000; -291.000
300.568; -174.600; -940.000; -874.000
300.706;  -57.400; -366.000; -469.000
300.844; -162.800;-1108.000; -979.000
300.982;  292.700;  246.000;  282.000
301.120; -214.100; -965.000; -866.000
301.258; -114.900; -812.000; -705.000
301.396;  102.800;  104.000;  -41.000
301.534;  227.500; -218.000; -293.000
301.672;    8.600; -664.000; -521.000
301.810;  104.600; -613.000; -545.000
301.948;  327.400;   53.000;  149.000
302.086; 1144.600; -250.000;  -32.000
302.224; 1884.700; -610.000; -585.000
302.362;  108.200; -558.000; -622.000
302.500;  -33.700; -923.000; -893.000
302.638;  269.800;  128.000;  245.000
302.776;   26.600; -352.000; -408.000
302.913;  138.300;  447.000;  236.000
303.051;   30.200;  -86.000;  -23.000
303.189;  149.100;   90.000;  118.000
303.327;  -32.300; -341.000; -256.000
303.465; -142.600; -832.000; -588.000
303.603; -147.600; -805.000; -604.000
303.740;  255.300;  417.000;  241.000
303.878;   49.000; -800.000; -759.000
304.016; -167.200; -915.000; -790.000
304.154; -239.600;-1123.000;-1152.000
304.291;  -61.200; -505.000; -554.000
304.429;   51.400;  102.000;   74.000
304.567; -239.500; -908.000; -893.000
304.705;  -88.200; -408.000; -515.000
304.842;  235.300; -616.000; -540.000
304.980;  148.200;  215.000;   35.000
305.118;  170.900; -367.000; -365.000
305.255;  -98.600; -945.000; -927.000
305.393;  162.500;  178.000;  239.000
305.531; -238.200;-1173.000; -956.000
305.668; -112.600; -663.000; -582.000
305.806;  194.500; -358.000; -439.000
305.943;  221.700; -629.000; -637.000
306.081;  140.500; -378.000; -267.000
306.219; -155.200; -863.000; -748.000
306.356;   38.100;  158.000;   27.000
306.494;  316.900;  981.000;  761.000
306.631;   35.200;  -11.000;  -55.000
306.769;   22.100; -613.000; -485.000
306.906;   17.900; -284.000; -258.000
307.044;  -74.500; -473.000; -488.000
307.181;  -93.400; -410.000; -332.000
307.319;  105.300;  112.000;   87.000
307.456; -326.900;-1191.000;-1153.000
307.594; -138.400; -980.000; -727.000
307.731;    0.300; -371.000; -164.000
307.868;   87.400;  -15.000;   20.000
308.006; -239.000; -961.000; -847.000
308.143;  -57.800; -618.000; -330.000
308.281;  470.600;  -37.000; -254.000
308.418;   94.800; -748.000; -640.000
308.555; -101.400; -400.000; -250.000
308.693;  -93.900; -577.000; -573.000
308.830; -184.500; -712.000; -657.000
308.967;   46.000; -215.000;  -95.000
309.105;  -63.200; -507.000; -396.000
309.242;  156.600; -468.000; -367.000
309.379;  893.100; -577.000; -655.000
309.517;  -32.100; -936.000; -948.000
309.654; -156.300; -910.000; -734.000
309.791;  -93.500; -662.000; -580.000
309.928; -203.700; -977.000; -914.000
310.065;  427.000;  819.000;  697.000
310.203;    3.200; -825.000; -850.000
310.340;   61.300; -465.000; -321.000
310.477; -131.100; -412.000; -516.000
310.614;  -71.100; -383.000; -473.000
310.751;  -71.100; -427.000; -518.000
310.889;   10.000;    1.000;   11.000
311.026; -269.100;-1161.000; -939.000
311.163;  -37.600; -386.000; -380.000
311.300;  -95.500; -512.000; -479.000
311.437; -116.500; -658.000; -619.000
311.574; -280.700;-1226.000; -985.000
311.711;  -79.000; -595.000; -433.000
311.848;  -52.400; -380.000; -388.000
311.985;  105.900;  270.000;   93.000
312.122; -191.200; -932.000; -762.000
312.259; -198.800; -941.000; -994.000
312.396;  -98.000; -508.000; -551.000
312.533; -137.400; -812.000; -790.000
312.670; -219.400;-1070.000; -898.000
312.807;  -27.700; -352.000; -367.000
312.944; -104.100; -513.000; -611.000
313.081;   14.000; -150.000; -415.000
313.218; -197.600;-1111.000; -867.000
313.355;  103.500; -531.000; -449.000
313.492;   44.200; -455.000; -292.000
313.629;  340.800;  815.000;  735.000
313.766; -277.700;-1176.000;-1008.000
313.902;   42.000; -186.000;   21.000
314.039;  -24.300; -372.000; -289.000
314.176;  112.400;  286.000;  192.000
314.313; -127.800; -569.000; -473.000
314.450; -118.500; -788.000; -684.000
314.587;  -45.200; -468.000; -480.000
314.723;   80.400;  -78.000;  130.000
314.860;  152.200;  318.000;  332.000
314.997;  124.100;  223.000;  142.000
315.134;  -44.700; -385.000; -368.000
315.270;  -25.500; -480.000; -496.000
315.407; -232.000;-1094.000; -967.000
315.544;  -84.100; -657.000; -538.000
315.681;  -89.100; -681.000; -565.000
315.817;  120.200; -133.000; -176.000
315.954;   75.800; -613.000; -392.000
316.091; -210.500;-1045.000;-1023.000
316.227;   -0.200;  -71.000; -179.000
316.364;   53.900;   23.000;    6.000
316.500;  -55.500; -113.000; -300.000
316.637;  -43.300; -181.000; -302.000
316.774; -142.700; -625.000; -358.000
316.910; -135.900; -598.000; -629.000
317.047; -109.800; -487.000; -351.000
317.183;  -86.600; -435.000; -566.000
317.320;  -32.900; -367.000; -321.000
317.456; -134.500; -733.000; -805.000
317.593; -143.900; -598.000; -641.000
317.729;   40.100;  168.000;  -67.000
317.866; -386.200;-1434.000;-1285.000
318.002; -105.200; -708.000; -948.000
318.139; -145.800; -883.000; -867.000
318.275; -162.000;-1003.000; -738.000
318.412;  -71.600; -517.000; -336.000
318.548;  -19.100; -751.000; -720.000
318.685; -178.300; -985.000; -888.000
318.821; -153.100; -762.000; -735.000
318.957;    5.000;   34.000;  -23.000
319.094;  144.700;  297.000;  154.000
319.230;  -94.900; -756.000; -742.000
319.367;  274.800; -471.000; -520.000
319.503;  135.700; -538.000; -436.000
319.639; -156.800; -877.000; -793.000
319.775; -117.700; -750.000; -685.000
319.912;  -46.500; -424.000; -519.000
320.048; -197.000;-1184.000;-1184.000
320.184;  211.800;   59.000;   70.000
320.321; -128.500; -497.000; -467.000
320.457;  206.000;  475.000;  662.000
320.593;  -96.200; -375.000; -382.000
320.729; -165.300; -732.000; -734.000
320.866; -100.600; -577.000; -635.000
321.002;  -87.200; -759.000; -809.000
321.138;   22.000; -135.000; -211.000
321.274;  166.700; -148.000; -115.000
321.410;  -18.900; -585.000; -353.000
321.546;  -53.400;-1011.000; -911.000
321.683;  136.600;  400.000;  185.000
321.819;   41.600;  -48.000; -117.000
321.955; -181.600; -743.000; -722.000
322.091;  -59.100; -585.000; -540.000
322.227;  -32.900; -382.000; -202.000
322.363;   45.700; -320.000; -215.000
322.499;  -48.500; -343.000; -331.000
322.635;  335.000;  636.000;  443.000
322.771;   86.800; -139.000;   12.000
322.907;  210.900;  129.000;  327.000
323.043;  -11.500; -115.000; -206.000
323.179;  -31.000; -394.000; -363.000
323.315;  107.700; -401.000; -371.000
323.451;  244.100; -328.000; -236.000
323.587;  148.700;  -60.000;  -77.000
323.723;   43.900; -682.000; -601.000
323.859;  -11.700; -258.000;  -76.000
323.995;  -41.300; -467.000; -409.000
324.131; -229.600; -967.000; -892.000
324.267;  -18.400; -254.000; -276.000
324.402; -231.200; -960.000; -983.000
324.538;   45.300; -279.000; -104.000
324.674;   84.600;  164.000;   77.000
324.810;  402.000;  226.000;  308.000
324.946;   68.100; -810.000; -658.000
325.082; -107.600; -568.000; -475.000
325.217;   32.000;  -62.000;   16.000
325.353; -169.000; -764.000; -659.000
325.489; -115.100; -540.000; -506.000
325.625;  -94.800; -579.000; -525.000
325.760;  144.200;  517.000;  376.000
325.896;  -11.900; -515.000; -702.000
326.032;  -79.600; -403.000; -352.000
326.168;  -78.100; -462.000; -369.000
326.303;  -75.500; -352.000; -461.000
326.439;   23.300; -336.000; -276.000
326.575;   13.200; -190.000;  -29.000
326.710;   63.900; -156.000;  -30.000
326.846;   16.300;  146.000;  103.000
326.982; -165.300; -530.000; -548.000
327.117; -115.400; -481.000; -442.000
327.253; -162.600; -745.000; -742.000
327.388; -314.200;-1137.000;-1153.000
327.524;  -23.400; -811.000; -578.000
327.659;   -3.500;  -58.000;  -22.000
327.795;   34.900;   69.000;   45.000
327.931; -161.700; -723.000; -499.000
328.066;   21.700; -417.000; -276.000
328.202;   72.500;   12.000; -129.000
328.337;  281.200;  957.000;  713.000
328.473;   23.000;  -12.000;  -74.000
328.608;   31.500; -256.000; -267.000
328.743; -148.900; -799.000; -664.000
328.879;   85.100;  214.000;  114.000
329.014;  -65.900; -102.000; -122.000
329.150; -116.200; -358.000; -483.000
329.285;  -91.700; -465.000; -466.000
329.421;  -65.600; -548.000; -246.000
329.556;   -4.400;  -36.000;   85.000
329.691; -151.900; -633.000; -615.000
329.827; -169.700; -626.000; -480.000
329.962;  -50.600;  131.000; -301.000
330.097; -134.000; -673.000; -585.000
330.233;  -66.400; -410.000; -223.000
330.368; -231.400; -839.000; -628.000
330.503;   22.900;    3.000;   98.000
330.638;   72.600;  -93.000; -125.000
330.774;  -48.800; -609.000; -530.000
330.909;  -42.000; -434.000; -244.000
331.044; -166.500; -714.000; -708.000
331.179; -298.700;-1217.000;-1109.000
331.315;   64.800;   77.000;   20.000
331.450;   83.200;  157.000;  285.000
331.585;  -94.100; -805.000; -706.000
331.720; -125.200; -510.000; -460.000
331.855;   49.000;  -35.000; -102.000
331.990;  484.300;   62.000;  138.000
332.126;  266.400; -110.000;   71.000
332.261;  -10.100; -379.000; -265.000
332.396;   68.600; -135.000; -242.000
332.531; -205.900;-1074.000;-1031.000
332.666;  105.500; -519.000; -363.000
332.801; -191.600; -726.000; -807.000
332.936;   21.900; -192.000; -122.000
333.071; -285.200; -870.000; -817.000
333.206;   84.400;  307.000;  379.000
333.341;   95.700;  344.000;  418.000
333.476; -132.000; -627.000; -623.000
333.611;  -26.100; -251.000; -173.000
333.746;  -44.100; -381.000; -464.000
333.881; -193.200; -973.000; -935.000
334.016; -214.200; -936.000; -917.000
334.151; -203.400; -746.000; -702.000
334.286;  113.900;  152.000;  186.000
334.421;  -14.600; -125.000; -178.000
334.556; -134.900; -611.000; -567.000
334.690; -152.500; -631.000; -577.000
334.825;  180.300;  381.000;   83.000
334.960;  -81.500; -285.000; -413.000
335.095;   86.100;  135.000;  -91.000
335.230; -175.800; -722.000; -738.000
335.365; -247.400;-1084.000; -990.000
335.499; -255.400;-1108.000;-1037.000
335.634;   95.500;    9.000;  534.000
335.769; -171.900; -755.000; -720.000
335.904;  -66.500; -603.000; -561.000
336.038; -108.600; -735.000; -657.000
336.173; -184.100;-1206.000;-1194.000
336.308;   54.100; -116.000; -189.000
336.443;   72.500; -544.000; -634.000
336.577; -109.800; -936.000; -787.000
336.712;  177.700;   -4.000;  -12.000
336.847;  -32.100; -724.000; -607.000
336.981;  205.600; -272.000; -208.000
337.116;  635.600;  615.000;  501.000
337.250;  343.600; -434.000; -421.000
337.385;  478.100; -297.000; -208.000
337.520;  162.400; -632.000; -603.000
337.654;  -37.100; -215.000; -126.000
337.789; -209.000; -989.000; -933.000
337.923;  -22.100; -104.000; -205.000
338.058; -131.100; -673.000; -738.000
338.192;  -57.400; -611.000; -488.000
338.327;   56.600;  -18.000; -155.000
338.461; -110.600; -299.000; -469.000
338.596; -133.600; -780.000; -638.000
338.730; -169.000; -767.000; -803.000
338.865;  223.000;  -46.000; -140.000
338.999;  -78.800; -846.000; -702.000
339.134;  -27.300; -634.000; -536.000
339.268;   32.300; -741.000; -603.000
339.403;  634.600; -740.000; -775.000
339.537;  198.000; -894.000; -820.000
339.671; -154.300; -829.000; -813.000
339.806; -101.900; -556.000; -512.000
339.940;   97.500; -261.000; -235.000
340.074; -165.200; -685.000; -510.000
340.209;  -35.400; -351.000; -230.000
340.343; -137.400; -517.000; -573.000
340.477;  370.700;  998.000; 1036.000
340.612;  -81.600;-1033.000; -900.000
340.746;  242.000; -199.000; -243.000
340.880; -108.000; -924.000; -785.000
341.014;   36.700;  -45.000; -154.000
341.149; -173.500; -756.000; -718.000
341.283; -184.800; -839.000; -754.000
341.417; -155.800;-1124.000; -938.000
341.551;  325.100; -768.000; -708.000
341.685;  -35.900; -633.000; -611.000
341.820;  -89.300; -562.000; -493.000
341.954;  -28.500; -218.000; -349.000
342.088; -255.600;-1102.000;-1019.000
342.222;  111.800;  565.000;  618.000
342.356;  -76.900; -395.000; -335.000
342.490; -163.600; -880.000; -841.000
342.624;  -16.900; -339.000; -242.000
342.758;   59.600; -364.000; -312.000
342.892;  -80.600; -710.000; -585.000
343.026;  -28.400;  -58.000; -116.000
343.160;  -66.400; -426.000; -376.000
343.294; -127.200; -474.000; -337.000
343.428;    5.200; -488.000; -448.000
343.562;   49.300; -172.000;  -23.000
343.696;   -2.100; -385.000; -314.000
343.830;   -9.000; -362.000; -356.000
343.964;   65.200; -231.000; -168.000
344.098; 1818.800;  199.000;   70.000
344.232; 1546.900; -266.000; -127.000
344.366;  187.400; -567.000; -453.000
344.500;  186.100; -665.000; -744.000
344.634;  107.000; -324.000; -164.000
344.768;    5.600; -531.000; -341.000
344.902;   70.300;  278.000;  256.000
345.035;  -65.000; -556.000; -496.000
345.169; -228.200; -933.000; -656.000
345.303;    9.100; -308.000; -482.000
345.437;  -87.500; -826.000; -717.000
345.571; -116.200; -675.000; -594.000
345.704; -103.200; -309.000; -532.000
345.838;    6.500; -331.000; -284.000
345.972;  -42.000; -543.000; -495.000
346.106;  331.900; -179.000; -190.000
346.239;  833.300; -312.000; -243.000
346.373;   52.500; -343.000; -302.000
346.507; -247.600; -950.000; -962.000
346.640;  367.200;  -30.000;   13.000
346.774;   -1.700; -650.000; -797.000
346.908;    8.000; -138.000;  -11.000
347.041; -161.000; -646.000; -593.000
347.175;   89.400;  259.000;   27.000
347.309;  -98.500; -698.000; -628.000
347.442; -122.800; -883.000; -732.000
347.576;  617.600;  670.000;  668.000
347.709;  448.500; -123.000;  -52.000
347.843; -141.900; -933.000; -825.000
347.976;  108.500;  235.000;  294.000
348.110; -329.700;-1268.000;-1186.000
348.243; -187.900; -679.000; -772.000
348.377;   45.800;  -26.000;   60.000
348.510;  166.500;  403.000;  540.000
348.644;  -12.600;  -37.000; -159.000
348.777;   57.900;  180.000;  191.000
348.911;  -59.100; -142.000; -112.000
349.044;  385.800;  471.000;  448.000
349.178;  346.100;-1069.000;-1006.000
349.311;  255.600;  141.000;  255.000
349.444;  -22.200; -927.000; -813.000
349.578;   28.000; -347.000; -200.000
349.711; -170.900; -959.000; -862.000
349.845;   51.500; -661.000; -591.000
349.978; -259.100;-1224.000;-1137.000
350.111; -125.200; -546.000; -612.000
350.244; -113.200; -596.000; -700.000
350.378;   73.900; -392.000; -393.000
350.511; -111.900; -393.000; -426.000
350.644; -161.100; -808.000; -806.000
350.778;   66.000;  168.000;  104.000
350.911;   91.000;  134.000;  140.000
351.044; -140.500; -685.000; -615.000
351.177;    1.900; -321.000; -281.000
351.310;   12.200;    3.000; -131.000
351.444; -109.100; -888.000; -788.000
351.577;  305.800;  140.000;   90.000
351.710;  273.400;  593.000;  417.000
351.843;  -31.100; -165.000;  -77.000
351.976;   43.300;  149.000;  -79.000
352.109; -121.300; -621.000; -612.000
352.242;   17.600; -464.000; -419.000
352.376;  -47.900; -580.000; -636.000
352.509;  398.000; -437.000; -356.000
352.642;   54.400; -654.000; -604.000
352.775;  166.400; -141.000;  -98.000
352.908; -209.800; -933.000; -904.000
353.041; -170.200; -814.000; -824.000
353.174;  -76.000; -551.000; -424.000
353.307; -131.700; -753.000; -764.000
353.440;  181.600;  541.000;  453.000
353.573; -201.600; -957.000;-1008.000
353.706;   -3.600; -384.000; -558.000
353.839;    6.200; -264.000; -220.000
353.971; -127.700; -657.000; -512.000
354.104; -119.000; -896.000; -835.000
354.237;  -70.100; -627.000; -662.000
354.370; -137.700; -846.000; -879.000
354.503; -334.800;-1231.000;-1308.000
354.636;   21.500; -529.000; -348.000
354.769; -221.300; -937.000; -860.000
354.902;   34.200; -230.000; -139.000
355.034;    9.400; -164.000; -220.000
355.167;   15.000; -262.000; -162.000
355.300; -156.500;-1061.000; -880.000
355.433; 1882.400;  -71.000;  -14.000
355.565; 2778.300; -402.000; -384.000
355.698;  752.000; -356.000; -296.000
355.831;   35.500; -882.000; -801.000
355.964;  205.500; -285.000; -170.000
356.096; -109.100; -856.000; -843.000
356.229;   88.000; -523.000; -530.000
356.362;  572.900; -373.000; -266.000
356.494; 1137.900; -229.000; -162.000
356.627; 1029.400;  269.000;  377.000
356.760; 1288.900;  120.000;   53.000
356.892; 1780.600; -286.000; -601.000
357.025; 1412.100;  403.000;  389.000
357.157; 1283.000; -167.000; -179.000
357.290; 1183.300; -856.000; -713.000
357.423;  347.300; -667.000; -556.000
357.555;  262.100; -217.000; -228.000
357.688;  287.500; -483.000; -364.000
357.820;  798.900; -870.000; -877.000
357.953; 6842.000; -563.000; -589.000
358.085; 1552.200; -632.000; -612.000
358.218; 2435.200;-1131.000; -932.000
358.350;  527.100;  -58.000;  312.000
358.483; -220.400;-1300.000;-1187.000
358.615;   57.200;-1182.000;-1078.000
358.747;  -62.000;-1187.000;-1058.000
358.880;   99.300; -810.000; -744.000
359.012;   20.000; -376.000; -202.000
359.145;  -33.600; -480.000; -511.000
359.277;  119.700; -962.000; -913.000
359.409; 5748.100;  536.000;  231.000
359.542; 1485.300; -738.000; -688.000
359.674;  164.700;   46.000;   13.000
359.806;  -73.000; -565.000; -438.000
359.939;  -42.400; -617.000; -516.000
360.071;    6.400; -583.000; -579.000
360.203;  -27.600; -411.000; -364.000
360.335;  131.700;  164.000;  -16.000
360.468;  380.600; -249.000; -307.000
360.600; 4569.100; -547.000; -454.000
360.732; 5038.100; -546.000; -423.000
360.864;  652.800;-1216.000;-1044.000
360.996;  672.800; -516.000; -554.000
361.129;  125.000; -389.000; -598.000
361.261;  100.200;  110.000; -113.000
361.393;   -1.700; -252.000; -214.000
361.525;  123.500;   94.000;  244.000
361.657;  -30.600; -821.000; -703.000
361.789;  144.400; -139.000; -155.000
361.921;  544.700; -642.000; -593.000
362.053;  654.100;  524.000;  541.000
362.185;  166.500;  288.000;   72.000
362.318;  -82.800; -709.000; -705.000
362.450;  313.000;  294.000;  444.000
362.582;  357.100; -913.000; -870.000
362.714;    2.800; -353.000; -332.000
362.846; -113.600; -606.000; -490.000
362.978; -240.600; -941.000; -811.000
363.109;  167.900; -161.000; -260.000
363.241;  969.000; -739.000; -749.000
363.373;  846.100; -649.000; -564.000
363.505; 1258.200; -186.000;  -91.000
363.637;  291.900; -787.000; -601.000
363.769; -231.900;-1067.000;-1080.000
363.901;  -99.000; -596.000; -654.000
364.033; -214.000;-1103.000;-1062.000
364.165;   73.900; -283.000; -283.000
364.296;  191.200; -316.000; -177.000
364.428;  120.800;-1344.000;-1220.000
364.560; -102.100; -679.000; -661.000
364.692;  -48.800; -738.000; -835.000
364.824;  610.900; -588.000; -456.000
364.955;  876.800; -402.000; -564.000
365.087; 1573.400;-1097.000; -852.000
365.219;   89.200; -686.000; -816.000
365.351;  -99.600; -526.000; -572.000
365.482;  173.900;  300.000;  240.000
365.614;  -57.300; -402.000; -314.000
365.746; -137.500; -729.000; -752.000
365.877; -156.600; -706.000; -672.000
366.009;  537.600;  -35.000;  -62.000
366.141; -147.100;-1249.000;-1134.000
366.272; -160.000; -803.000; -719.000
366.404; -191.000;-1005.000; -874.000
366.535;   22.200; -139.000;  -12.000
366.667; -156.900; -644.000; -649.000
366.799;  181.100;  353.000;  203.000
366.930; -192.200; -862.000; -996.000
367.062;  294.500; -639.000; -613.000
367.193;  288.900; -872.000; -842.000
367.325;  -87.300; -580.000; -684.000
367.456;  212.500; -246.000;   31.000
367.588;  355.900; -371.000; -318.000
367.719;   99.200;  -44.000;  -45.000
367.851;   40.800; -222.000; -241.000
367.982;  -58.900; -875.000; -732.000
368.113;  231.800; -475.000; -358.000
368.245; -195.500; -960.000; -841.000
368.376;   14.600; -254.000; -302.000
368.508;    6.600; -188.000; -263.000
368.639; -223.000;-1166.000;-1034.000
368.770;    1.400; -670.000; -589.000
368.902;  -65.200; -836.000; -926.000
369.033; -192.500; -906.000; -855.000
369.164;  -62.500; -720.000; -653.000
369.296; -191.100; -452.000; -601.000
369.427;   61.600; -209.000; -144.000
369.558;  -42.200; -593.000; -377.000
369.689; -125.000; -721.000; -569.000
369.821; -216.300; -951.000; -845.000
369.952;   37.100;   42.000; -108.000
370.083;  -56.700; -229.000; -108.000
370.214; -111.400; -735.000; -650.000
370.345;   42.700;   65.000;   81.000
370.477; -106.100; -810.000; -790.000
370.608;  499.000; -328.000; -264.000
370.739;  -75.800;-1233.000;-1292.000
370.870;  -37.900;-1102.000; -923.000
371.001;  284.500; -378.000; -467.000
371.132; -106.600; -754.000; -735.000
371.263;   15.200;  -42.000; -148.000
371.394; -234.900; -841.000; -748.000
371.525;   99.000;  345.000;  225.000
371.657; -152.300; -808.000; -670.000
371.788;  217.100;  103.000;  199.000
371.919;  379.600; -384.000; -304.000
372.050; 7125.600;  -91.000; -156.000
372.181; 1999.400; -188.000; -294.000
372.311;  801.400;   42.000; -127.000
372.442;  122.000; -457.000; -451.000
372.573;   20.800; -444.000; -340.000
372.704; -213.000;-1008.000; -980.000
372.835;  196.400; -228.000; -289.000
372.966; -107.200; -646.000; -554.000
373.097;  -23.800; -575.000; -711.000
373.228;  -55.300; -717.000; -542.000
373.359;  322.500; -824.000; -536.000
373.490; 1945.500; -881.000; -727.000
373.620; 2300.800;-1001.000; -803.000
373.751; 3570.700; -332.000; -396.000
373.882; 1557.400; -663.000; -733.000
374.013;  165.500; -449.000; -262.000
374.143;    0.200; -581.000; -659.000
374.274; -173.700; -987.000; -908.000
374.405;  386.900; -388.000; -276.000
374.536;  941.000; -526.000; -387.000
374.666; 2287.900; -759.000; -807.000
374.797;  448.900; -817.000; -868.000
374.928; 1816.200; -710.000; -560.000
375.058; 1843.000; -535.000; -500.000
375.189;  264.900;  -59.000;  -93.000
375.320; -142.500; -928.000;-1034.000
375.450;   -4.900; -625.000; -616.000
375.581;  -20.500; -526.000; -436.000
375.712;   24.100; -574.000; -250.000
375.842;  697.300; -438.000; -415.000
375.973;  494.100; -554.000; -513.000
376.103;   15.000; -665.000; -648.000
376.234; -101.000; -531.000; -552.000
376.364;  -13.400; -944.000; -867.000
376.495;  771.800;  925.000;  529.000
376.625;   60.700; -472.000; -485.000
376.756;  152.800; -709.000; -678.000
376.886;  -99.800;-1178.000;-1026.000
377.017;  130.200;-1048.000;-1061.000
377.147;  632.000; -786.000; -782.000
377.278;  159.900;  174.000;  228.000
377.408; -231.500; -801.000; -815.000
377.538; -175.500; -707.000; -693.000
377.669; -113.100; -537.000; -613.000
377.799; -109.300; -645.000; -635.000
377.929;  -40.000; -610.000; -428.000
378.060; -193.500; -781.000; -847.000
378.190;  -43.200; -726.000; -531.000
378.320;  -57.000; -401.000; -406.000
378.451;   34.700; -131.000;  -22.000
378.581;   48.100;  -67.000; -110.000
378.711;  382.300; 1035.000;  866.000
378.841;   25.700; -533.000; -675.000
378.972;  -85.400; -871.000; -751.000
379.102;   43.000; -652.000; -579.000
379.232;   32.400; -126.000;  -73.000
379.362; -144.900;-1001.000; -885.000
379.492;   91.200; -373.000; -424.000
379.623;  318.500;    0.000;  111.000
379.753; -165.700;-1107.000; -974.000
379.883;  480.200;   59.000;  156.000
380.013;   39.900;-1081.000;-1017.000
380.143; -162.600;-1097.000;-1056.000
380.273; -146.400; -985.000; -861.000
380.403;   48.400; -344.000; -257.000
380.533;   20.300; -651.000; -664.000
380.663;  238.100;  173.000;  128.000
380.793; -146.200;-1027.000;-1074.000
380.923;   40.500; -103.000;  -34.000
381.053; -132.200; -613.000; -623.000
381.183;   37.700; -106.000; -248.000
381.313;  121.300; -656.000; -470.000
381.443;  169.000; -692.000; -473.000
381.573;  503.000; -402.000; -409.000
381.703;  611.500;-1249.000;-1095.000
381.833; -192.400;-1454.000;-1336.000
381.963;  291.200; -134.000;  -87.000
382.093; 2803.000; -925.000; -909.000
382.223;  849.400; -713.000; -602.000
382.353;   16.700; -801.000; -608.000
382.482;  830.800;-1091.000; -964.000
382.612; 1585.100; -872.000; -644.000
382.742;  887.500; -695.000; -622.000
382.872;  567.700; -565.000; -551.000
383.002;  219.200;  347.000; -132.000
383.131;    5.300; -226.000; -160.000
383.261;    6.200; -706.000; -768.000
383.391;  580.000; -552.000; -377.000
383.521; 5818.600;  451.000;  263.000
383.650; 1252.900; -947.000; -904.000
383.780;    8.500; -783.000; -656.000
383.910;  300.200;  880.000;  802.000
384.039;  123.200; -794.000; -656.000
384.169;  458.300;-1205.000;-1017.000
384.299;   54.900; -650.000; -662.000
384.428;  -96.800; -764.000; -680.000
384.558;   -7.500; -308.000; -275.000
384.687;   25.900; -414.000; -334.000
384.817;  141.500;   75.000;   -2.000
384.947;  113.600; -234.000; -141.000
385.076;  710.100;  982.000;  912.000
385.206;  314.400;  369.000;  480.000
385.335;   51.500; -549.000; -417.000
385.465;  -72.000; -655.000; -663.000
385.594;  363.500;  -53.000;  -44.000
385.724;  903.600; -868.000; -838.000
385.853;  358.400; -296.000; -270.000
385.982; 2918.100; -743.000; -787.000
386.112; 4232.400;-1052.000; -871.000
386.241;  345.300; -307.000; -312.000
386.371;  135.000; -174.000;  -87.000
386.500;   53.000; -825.000; -789.000
386.629;  128.000; -874.000; -817.000
386.759;  187.900;  -43.000;   68.000
386.888;  115.600; -170.000; -250.000
387.017;  -44.100; -648.000; -620.000
387.147;  -47.600; -771.000; -798.000
387.276;   69.500; -410.000; -397.000
387.405;  113.900; -398.000; -342.000
387.535;  -10.300; -452.000; -361.000
387.664;  -71.800; -692.000; -620.000
387.793;  222.800; -198.000; -113.000
387.922; 1107.100;  255.000;  200.000
388.052;  113.000; -576.000; -423.000
388.181;  173.400; -342.000; -472.000
388.310;  151.800; -889.000; -710.000
388.439;   31.600; -749.000; -742.000
388.568;  500.200;  365.000;  244.000
388.697; 2209.100; -756.000; -653.000
388.826;  449.900; -768.000; -666.000
388.956;  194.900; -285.000; -307.000
389.085;   26.200; -347.000; -287.000
389.214; -139.600; -842.000; -872.000
389.343;  -91.700; -645.000; -413.000
389.472;  871.800;  126.000;  149.000
389.601;  973.000;   91.000;    0.000
389.730;   92.300; -568.000; -687.000
389.859;  225.800;  226.000;   46.000
389.988;  488.400; -423.000; -408.000
390.117;  312.400; -168.000; -146.000
390.246;   69.700; -331.000; -320.000
390.375;  291.400; -673.000; -626.000
390.504;  -40.400; -703.000; -621.000
390.633; -155.200; -672.000; -726.000
390.761;  -78.700; -732.000; -645.000
390.890;  113.100;   -4.000; -130.000
391.019;  -10.900; -421.000; -441.000
391.148; -212.200; -826.000; -855.000
391.277;  -71.300; -576.000; -493.000
391.406;  -96.500; -821.000; -805.000
391.534;  116.600;  574.000; -301.000
391.663;  -38.000; -583.000; -645.000
391.792;  -69.800; -673.000; -701.000
391.921;  309.800;   -3.000;   15.000
392.050;  455.200; -287.000; -228.000
392.178;  -21.900;-1206.000;-1061.000
392.307;  387.500; -758.000; -712.000
392.436;  186.500; -427.000; -641.000
392.564;  148.700;  166.000;   -6.000
392.693; -114.300; -860.000; -682.000
392.822;  496.900; -529.000; -534.000
392.950;  226.000; -880.000; -714.000
393.079;  747.400; -188.000; -328.000
393.208;   88.100; -488.000; -511.000
393.336;   60.700; -170.000; -145.000
393.465;  -39.800; -317.000; -199.000
393.593;  107.800;   62.000;   79.000
393.722; -229.200;-1121.000; -916.000
393.850;   24.000; -188.000;  -61.000
393.979; -269.600; -926.000; -805.000
394.107;  -84.500; -517.000; -537.000
394.236;   14.300; -570.000; -507.000
394.364;  637.500;  383.000;  206.000
394.493; 1007.000; -911.000; -767.000
394.621;   35.000; -955.000; -916.000
394.750; 1426.700; -873.000; -923.000
394.878; 5669.700; -247.000; -149.000
395.007; 7323.200; -721.000; -807.000
395.135;  550.200; -790.000; -721.000
395.263; -132.000;-1038.000;-1040.000
395.392;  104.300;  -25.000; -107.000
395.520; -223.500; -818.000; -679.000
395.648; -118.100; -865.000; -915.000
395.777;   37.600; -366.000; -405.000
395.905;    3.000; -449.000; -564.000
396.033;  124.900;  217.000;  172.000
396.162; 1641.400; -399.000; -453.000
396.290; 1356.500;  -17.000;   -2.000
396.418;  277.800; -555.000; -514.000
396.546;  -91.600; -571.000; -466.000
396.674; -150.100; -850.000; -878.000
396.803;   89.100;  -72.000;  -23.000
396.931;  270.600; -179.000; -199.000
397.059;  140.400;-1026.000; -989.000
397.187; -147.200;-1026.000; -975.000
397.315; -215.600; -884.000; -649.000
397.443; -122.600; -592.000; -443.000
397.572;  -88.900; -578.000; -424.000
397.700;   31.800; -607.000; -614.000
397.828;   81.500;  120.000;  -90.000
397.956;  -13.800; -508.000; -478.000
398.084; -112.600; -767.000; -626.000
398.212;  130.200;  137.000;  124.000
398.340;   92.200;  -56.000;  159.000
398.468;  123.800; -390.000; -169.000
398.596; -213.200; -993.000; -953.000
398.724; -201.600; -762.000; -767.000
398.852; -283.300;-1024.000; -976.000
398.980;  -59.900; -560.000; -560.000
399.108;  -57.800; -982.000; -735.000
399.236;  136.000;   13.000;    8.000
399.363;   89.900;  222.000;  196.000
399.491;  -44.900; -404.000; -398.000
399.619; -190.400; -829.000; -800.000
399.747; -140.100; -859.000; -771.000
399.875;  205.000;  220.000;  234.000
400.003;  -43.000; -359.000; -284.000
400.130; -135.100; -421.000; -341.000
400.258;   24.500;  -83.000;   38.000
400.386;  -48.600; -352.000; -168.000
400.514;   -8.300; -526.000; -587.000
400.641; -113.000; -928.000; -802.000
400.769; -204.800; -979.000; -888.000
400.897;  -96.300; -838.000; -793.000
401.025;   49.400; -166.000; -152.000
401.152;   48.500;  220.000;   38.000
401.280;  -94.500; -430.000; -429.000
401.408; -150.700; -712.000; -576.000
401.535; -155.700; -735.000; -758.000
401.663; -319.600;-1134.000;-1054.000
401.790; -119.400; -514.000; -525.000
401.918;  204.500;  436.000;  405.000
402.046;   68.400;  134.000;  122.000
402.173;   -9.300;  -18.000;    7.000
402.301;  -44.200; -519.000; -397.000
402.428;  140.500;  528.000;  383.000
402.556; -220.900;-1188.000; -913.000
402.683;    2.000;  -20.000;   -1.000
402.811;   38.900;  -37.000; -206.000
402.938;   67.700;   20.000;   27.000
403.066;  429.600; -574.000; -558.000
403.193;  715.900;  299.000;  239.000
403.321;  556.500; -396.000; -574.000
403.448;  650.200;   83.000;   27.000
403.575;  353.500;  -90.000;  -46.000
403.703; -128.100; -732.000; -557.000
403.830;  -63.500; -531.000; -496.000
403.957; -245.600;-1117.000;-1023.000
404.085;   56.300;  -61.000; -172.000
404.212;  291.400;  -50.000;   63.000
404.339;  613.500; -566.000; -306.000
404.467;11137.800; -612.000; -524.000
404.594; 7039.600; -287.000; -227.000
404.721; 1711.500; -869.000; -764.000
404.848;  227.100; -113.000; -202.000
404.976; -137.600; -856.000; -783.000
405.103;   69.200;  -14.000;  -82.000
405.230;   68.800;  190.000;  226.000
405.357;  133.900;  117.000;   44.000
405.484;  543.700;  -49.000;    5.000
405.612;  138.100; -548.000; -563.000
405.739;  -66.900; -488.000; -243.000
405.866;  251.300;  669.000;  385.000
405.993;   -4.500; -398.000; -102.000
406.120; -217.700; -801.000; -887.000
406.247;  -54.100; -323.000; -342.000
406.374; 1037.100;  540.000;  629.000
406.501;  221.900; -632.000; -702.000
406.628;  -92.600; -621.000; -589.000
406.755; -116.400; -803.000; -620.000
406.882;  -11.300; -228.000; -277.000
407.009; -103.600; -719.000; -628.000
407.136;  214.400; -480.000; -401.000
407.263;  352.000; -939.000; -829.000
407.390;  -69.700; -692.000; -614.000
407.517; -241.900;-1139.000;-1187.000
407.644;  -22.800; -332.000; -256.000
407.771;  -87.500; -249.000; -287.000
407.898;  114.800;  168.000;  328.000
408.025;  -82.200; -421.000; -313.000
408.151;   81.000;   82.000;  153.000
408.278;  -94.600; -267.000; -216.000
408.405; -149.800; -931.000; -899.000
408.532;  -41.900; -549.000; -542.000
408.659; -164.300; -677.000; -648.000
408.785; -339.900;-1298.000;-1170.000
408.912;  -38.700; -412.000; -296.000
409.039; -155.100; -610.000; -686.000
409.166; -142.900; -591.000; -555.000
409.292; -168.900; -571.000; -534.000
409.419; -163.800; -665.000; -649.000
409.546; -143.800; -431.000; -192.000
409.672; -129.700; -713.000; -545.000
409.799;    4.300;  -36.000;   34.000
409.926;   11.500; -180.000; -179.000
410.052; -312.200;-1127.000;-1091.000
410.179;  -53.200; -368.000; -392.000
410.305;  -85.600; -375.000; -493.000
410.432;    4.100; -220.000; -333.000
410.558; -105.900; -305.000; -380.000
410.685; -127.600; -688.000; -431.000
410.812; -124.100; -409.000; -588.000
410.938; -219.600; -964.000; -808.000
411.065; -157.700; -671.000; -645.000
411.191;   27.900; -189.000; -174.000
411.317; -199.600; -823.000; -742.000
411.444;  -55.800; -317.000; -246.000
411.570;  -56.000; -339.000; -294.000
411.697; -185.500; -758.000; -752.000
411.823; -266.900; -989.000; -999.000
411.949;   23.900;  -56.000;   17.000
412.076; -181.700; -539.000; -519.000
412.202; -174.000; -758.000; -757.000
412.329; -210.000; -798.000; -752.000
412.455; -144.700; -821.000; -657.000
412.581;   25.800;  -15.000;  172.000
412.707;  -77.000; -540.000; -457.000
412.834;   82.000;  156.000;  219.000
412.960; -109.000; -785.000; -784.000
413.086; -151.800; -743.000; -701.000
413.212;  437.400;  604.000;  578.000
413.339;  -84.600; -685.000; -701.000
413.465;   84.700; -364.000; -310.000
413.591; -115.300; -757.000; -474.000
413.717;  -17.600; -358.000; -366.000
413.843; -244.200; -839.000; -861.000
413.969;  -56.700;  -47.000; -292.000
414.096; -133.100; -679.000; -679.000
414.222;   55.000;  -33.000;   85.000
414.348;   32.000; -652.000; -385.000
414.474;  311.400;   38.000;  -52.000
414.600;   28.600; -126.000; -144.000
414.726;   39.400;  -96.000;  -55.000
414.852;  -71.300; -365.000; -342.000
414.978;  111.800;  104.000;  -18.000
415.104;  166.200;   38.000;   80.000
415.230;  112.500; -329.000; -330.000
415.356;  120.300; -409.000; -514.000
415.482;  429.300;   13.000;  -35.000
415.608;  660.800; -247.000; -323.000
415.734; 2017.900;   67.000;   38.000
415.860;39980.100; -875.000; -767.000
415.986;26258.300; -685.000; -607.000
416.111; 2171.100; -798.000; -652.000
416.237;  510.600; -424.000; -571.000
416.363; 2423.400; -765.000; -733.000
416.489; 7764.900; -324.000; -251.000
416.615;  801.000; -707.000; -742.000
416.741;   16.100; -677.000; -784.000
416.866; -133.400; -673.000; -736.000
416.992; -194.100; -801.000; -818.000
417.118;   31.200;  -41.000;  -80.000
417.244;  -62.200; -798.000; -531.000
417.369; -105.100; -801.000; -612.000
417.495;   87.300; -325.000; -254.000
417.621; -118.200;-1015.000; -803.000
417.746;   59.700; -579.000; -572.000
417.872;  186.300; -254.000; -144.000
417.998;  211.900; -515.000; -530.000
418.123; 2273.800;-1073.000; -845.000
418.249;10203.400; -512.000; -601.000
418.374; 1318.800; -916.000; -824.000
418.500;  288.100; -383.000; -482.000
418.626;  290.300;   70.000;  -59.000
418.751;  283.800; -549.000; -448.000
418.877;  380.900; -637.000; -643.000
419.002; 3774.600; -688.000; -560.000
419.128;23858.200; -930.000; -721.000
419.253; 5239.100; -967.000; -837.000
419.379;  754.900; -391.000; -338.000
419.504;  769.400;  325.000;  415.000
419.629; 1029.200; -393.000; -212.000
419.755; 7303.200; -317.000; -254.000
419.880;38429.600;  -98.000;   67.000
420.006;22061.300; -280.000; -221.000
420.131;53557.500; -662.000; -775.000
420.256; 7002.200; -315.000; -316.000
420.382;  981.100; -665.000; -687.000
420.507;  162.500; -649.000; -778.000
420.632;  315.300; -337.000; -339.000
420.758;  575.200; -251.000; -425.000
420.883;  -86.400; -876.000; -672.000
421.008; -119.400; -775.000; -619.000
421.133; -104.800; -509.000; -467.000
421.259;   21.600; -325.000; -259.000
421.384; -178.200; -834.000; -693.000
421.509;   13.900;-1052.000; -862.000
421.634; 2535.700; -936.000; -820.000
421.759; 1029.600; -359.000; -327.000
421.885;  -62.500; -717.000; -656.000
422.010;  -87.100; -673.000; -542.000
422.135; -225.200; -695.000; -727.000
422.260;  119.500;  340.000;  280.000
422.385;  -18.800;   12.000;  -98.000
422.510;  111.600;  151.000;  -26.000
422.635;  102.500;  -87.000;  -43.000
422.760;  255.400; -766.000; -791.000
422.885;  168.800;  -57.000;  -80.000
423.010;   38.500; -112.000; -169.000
423.135;  -98.700; -481.000; -561.000
423.260;   57.300; -150.000; -245.000
423.385;  176.000;  476.000;  222.000
423.510;  154.800;   71.000;  -22.000
423.635;  239.000;  133.000;   45.000
423.760;  206.200;  383.000;  328.000
423.885;  197.300;  336.000;  391.000
424.010;  118.500;  -68.000;  -13.000
424.135;    8.300;    5.000;  -33.000
424.259; -111.200; -654.000; -457.000
424.384;  -60.200; -279.000; -272.000
424.509;   57.700; -260.000; -186.000
424.634; -162.100; -761.000; -623.000
424.759;   13.700; -688.000; -544.000
424.883;   25.100; -506.000; -527.000
425.008;  412.100; -502.000; -410.000
425.133; 3944.000; -679.000; -653.000
425.258; 1662.900; -517.000; -381.000
425.382; 2155.300; -867.000; -774.000
425.507; 4832.500; -487.000; -543.000
425.632;  845.700; -802.000; -663.000
425.756;  904.300; -256.000; -146.000
425.881;12756.400; -831.000; -857.000
426.006;30867.000; -604.000; -355.000
426.130; 4347.600; -696.000; -508.000
426.255;  688.200; -611.000; -491.000
426.379;  353.800; -189.000; -577.000
426.504;  884.100;  660.000;  544.000
426.629; 8321.400; -519.000; -466.000
426.753; 5060.800;   64.000;  -46.000
426.878;  626.400; -252.000; -288.000
427.002;  319.800; -651.000; -668.000
427.127; 3368.800;  -35.000; -158.000
427.251;21833.500;  372.000;  401.000
427.375; 5583.600; -191.000; -173.000
427.500; 4397.800; -616.000; -610.000
427.624; 1334.700; -234.000; -400.000
427.749;  244.300; -216.000; -225.000
427.873;    6.000; -499.000; -412.000
427.997;  -12.700; -222.000; -230.000
428.122;  232.500;  795.000;  703.000
428.246;  233.000;  433.000;  434.000
428.371; -172.700; -869.000; -773.000
428.495; -110.300; -624.000; -646.000
428.619;   74.000; -186.000; -117.000
428.743;  146.800;   65.000;  132.000
428.868;  110.200; -732.000; -643.000
428.992; 2839.700; -219.000; -326.000
429.116; 1088.900; -329.000; -357.000
429.240;  615.600;  419.000;  426.000
429.365;   16.300; -454.000; -574.000
429.489;   18.100; -638.000; -647.000
429.613;  141.400; -236.000; -177.000
429.737;  158.300; -563.000; -432.000
429.861;  635.900; -247.000; -133.000
429.985;11331.800; -425.000; -305.000
430.109;11110.500; -770.000; -908.000
430.234; 1292.100;   76.000;  -50.000
430.358;  212.900; -250.000; -160.000
430.482;  -25.400; -672.000; -564.000
430.606;  -13.900; -655.000; -375.000
430.730;  129.100; -437.000; -388.000
430.854;  372.700; -909.000; -835.000
430.978;  -53.100; -795.000; -764.000
431.102;  -85.500; -499.000; -422.000
431.226;  -91.900; -874.000; -815.000
431.350;  197.500;  345.000;  422.000
431.474;  -44.000; -661.000; -373.000
431.597; -230.800;-1060.000; -848.000
431.721;  -71.000; -276.000; -267.000
431.845; -223.800; -704.000; -472.000
431.969; -101.500; -304.000; -349.000
432.093; -114.900; -395.000; -317.000
432.217;   55.900;   32.000;   82.000
432.341; -110.500; -523.000; -518.000
432.464;  140.500;   96.000;   40.000
432.588;  561.500; -401.000; -329.000
432.712;  272.900;  -52.000;  -52.000
432.836;  153.300;  213.000;  263.000
432.959;   31.700; -372.000; -311.000
433.083;  218.800;   11.000;    2.000
433.207;  835.400;  285.000;  930.000
433.330;10269.900; -391.000; -200.000
433.454;11251.500; -654.000; -638.000
433.578; 6745.800;  583.000;  278.000
433.701; 1185.100; -623.000; -675.000
433.825;  347.300; -292.000; -299.000
433.949;  479.700;   28.000;  -72.000
434.072;  190.900; -410.000; -323.000
434.196;   55.600; -309.000; -117.000
434.319; 7946.600;25482.000;25124.000
434.443; 1610.400; -656.000; -603.000
434.566; 4973.500;  281.000;   62.000
434.690;  763.000; -637.000; -383.000
434.813;  170.800; -251.000; -173.000
434.937;  -89.800; -569.000; -696.000
435.060;  -10.100; -423.000; -332.000
435.184;  779.100; -492.000; -217.000
435.307;  443.300;  159.000;  102.000
435.431;   80.100;  -40.000;   24.000
435.554; -102.700; -399.000; -240.000
435.677;  -71.500; -350.000; -258.000
435.801;  -21.800;  -25.000;   49.000
435.924;   92.600;    1.000;  -67.000
436.048; -153.300;-1019.000; -732.000
436.171;  -37.400; -240.000;  -66.000
436.294;   27.900; -248.000; -229.000
436.417;  227.100; -963.000; -849.000
436.541; -139.500; -814.000; -840.000
436.664;    1.000; -242.000; -316.000
436.787;   73.500;   13.000;  113.000
436.910; -156.800; -792.000; -422.000
437.034;   86.600;  142.000;  143.000
437.157;  202.400;  -11.000;    0.000
437.280;  -21.800; -392.000; -292.000
437.403; -106.500; -982.000; -869.000
437.526; 1520.500; -903.000; -865.000
437.649; 4842.200; -505.000; -332.000
437.772;  604.200; -692.000; -540.000
437.896;  308.600;  700.000;  544.000
438.019;  -97.600; -758.000; -503.000
438.142; -103.700; -596.000; -506.000
438.265;   91.700; -639.000; -670.000
438.388; 1281.500; -520.000; -410.000
438.511;  234.200; -597.000; -394.000
438.634;  -25.200; -247.000; -125.000
438.757; -198.100; -693.000; -619.000
438.880;   34.500;  -34.000;  -57.000
439.003;  -89.000; -417.000; -437.000
439.126;  -44.100; -287.000; -167.000
439.248;  -51.400;  -98.000; -139.000
439.371;   -4.600;    9.000;  -53.000
439.494;  129.900;  510.000;  439.000
439.617;  -44.000;   65.000;  -88.000
439.740; -318.100; -968.000; -816.000
439.863; -225.600; -755.000; -595.000
439.986; -169.500; -476.000; -431.000
440.108;  -28.600; -161.000; -112.000
440.231; -253.600; -950.000; -836.000
440.354;   19.700;  -64.000; -150.000
440.477;  182.200; -566.000; -542.000
440.599;  118.600; -200.000; -225.000
440.722; -142.900; -709.000; -586.000
440.845;  230.600;  751.000;  928.000
440.968; -151.000; -415.000; -311.000
441.090;  -62.600; -199.000;  -33.000
441.213; -267.800;-1021.000; -825.000
441.336;    2.800; -159.000;   -5.000
441.458;  -94.100; -549.000; -396.000
441.581; -106.600; -628.000; -629.000
441.703;  -67.900; -152.000;   13.000
441.826; -157.900; -557.000; -400.000
441.948;  -31.600;   56.000;   51.000
442.071;  169.100;  555.000;  424.000
442.193; -148.100; -531.000; -485.000
442.316;   63.900;  152.000;   97.000
442.438;  153.200; -233.000;  -10.000
442.561;  260.800;  272.000;  262.000
442.683; 1321.200; -809.000; -522.000
442.806; 2409.600;   -8.000;   74.000
442.928;   77.500; -859.000; -604.000
443.051;  -57.300; -577.000; -373.000
443.173; -124.700; -341.000; -339.000
443.295;  -86.700; -263.000; -371.000
443.418;  -54.100; -321.000;  -29.000
443.540;   60.100; -106.000;   -4.000
443.662; -176.500; -563.000; -465.000
443.785;   54.400;  335.000;  199.000
443.907; -166.900; -362.000; -208.000
444.029; -201.300; -767.000; -494.000
444.152; -246.200; -644.000; -554.000
444.274;   26.900;  -18.000;  -24.000
444.396; -146.600; -461.000; -221.000
444.518; -204.500; -691.000; -454.000
444.640; -145.900; -268.000; -111.000
444.763;   38.300;  388.000;  249.000
444.885; -185.100; -432.000; -392.000
445.007;   17.200;   35.000;   86.000
445.129; -147.400; -610.000; -515.000
445.251; -143.400; -372.000; -439.000
445.373; -224.400; -537.000; -386.000
445.495;   98.300;  242.000;  350.000
445.617;  218.400;  853.000;  753.000
445.739;  -22.200; -215.000;  -97.000
445.861;   10.400; -245.000; -112.000
445.984;   17.700; -267.000; -101.000
446.105;  504.900; -418.000; -251.000
446.227; 1279.900; -176.000;  -19.000
446.349;   61.100; -358.000; -249.000
446.471; -132.600; -615.000; -448.000
446.593;  -42.300; -316.000;   19.000
446.715;  102.700;  -67.000;   41.000
446.837;  151.300;  697.000;  832.000
446.959; -123.700; -457.000; -478.000
447.081; -224.400; -628.000; -518.000
447.203;  216.400;  862.000;  834.000
447.325;  -63.500; -270.000;   42.000
447.446;   83.000;  286.000;  530.000
447.568; -243.700; -921.000; -803.000
447.690;  -94.400; -236.000; -245.000
447.812; -262.000; -798.000; -519.000
447.933;   19.200;  155.000;  127.000
448.055;  -60.900; -306.000; -261.000
448.177;  406.000;   31.000;   79.000
448.299;  189.300; -935.000; -727.000
448.420;  129.100;  -25.000;  159.000
448.542;  -19.400;   -3.000;   33.000
448.664;   53.600;  109.000;  322.000
448.785;  -20.800;  265.000;   83.000
448.907;  -87.600; -614.000; -353.000
449.028;   12.700; -771.000; -471.000
449.150;  193.200;  492.000;  589.000
449.272; -306.100;-1044.000; -913.000
449.393;  175.100;  612.000;  694.000
449.515; -242.200; -634.000; -581.000
449.636;  -40.700; -264.000; -155.000
449.758;  240.800;  763.000;  622.000
449.879;  -87.000; -498.000; -396.000
450.001;  -88.500; -149.000;  -49.000
450.122;    6.500;  -95.000;  162.000
450.244;    4.400;   37.000;  364.000
450.365; -125.400; -495.000; -301.000
450.486;  -24.700;   80.000;  268.000
450.608;  112.600;  393.000;  326.000
450.729;  221.400;  578.000;  645.000
450.850;   85.500; -574.000; -466.000
450.972; 1534.200; -552.000; -389.000
451.093; 9366.700;  190.000;  588.000
451.214; 3539.100; -516.000; -337.000
451.336;  773.200;  773.000;  579.000
451.457;  191.000;  264.000;  393.000
451.578;   -8.300; -118.000;  -74.000
451.699; -189.400; -546.000; -540.000
451.821;  -44.300; -284.000;  -50.000
451.942;   52.600;  278.000;  285.000
452.063;  163.100;  228.000;  419.000
452.184; 1212.300;  -54.000;  -49.000
452.305; 2093.900;  103.000;  170.000
452.427;  222.600; -549.000; -301.000
452.548;   24.500;   23.000;   79.000
452.669;  -37.500; -257.000;  -89.000
452.790;   18.200;    3.000;  -18.000
452.911;   79.900;  195.000;  259.000
453.032;  -61.400; -289.000;  -60.000
453.153;    0.700;  -29.000;   81.000
453.274;  221.300;  737.000;  868.000
453.395;  -55.300;  -51.000;  175.000
453.516;  372.300; 1317.000; 1388.000
453.637;  -64.700; -205.000; -150.000
453.758;  -46.000;   15.000;   69.000
453.879; -172.100; -462.000; -250.000
454.000;  251.500; 1086.000;  948.000
454.121; -161.200; -554.000; -326.000
454.242; -156.900; -599.000; -383.000
454.362;  -18.300;  -99.000;  114.000
454.483;   17.400; -309.000; -229.000
454.604;  182.000;  512.000;  580.000
454.725; -199.600; -627.000; -555.000
454.846; -197.900; -474.000; -406.000
454.967;   26.200;  230.000;  539.000
455.087;  -14.200;  179.000;  153.000
455.208;  107.500;  554.000;  856.000
455.329;  -39.500;  -22.000;   82.000
455.450;  137.900;  473.000;  633.000
455.570;  -93.900; -234.000; -211.000
455.691;    1.400;  201.000;  407.000
455.812; -113.200; -270.000;  -92.000
455.932;  -24.900;  107.000;  -97.000
456.053;  -94.200;   36.000;   24.000
456.173; -123.100; -433.000; -355.000
456.294; -221.500; -476.000; -303.000
456.415;  -24.400;  -73.000;   70.000
456.535;   10.900;  297.000;  273.000
456.656;   -4.300;  132.000;  240.000
456.776;  -82.900;    3.000;  298.000
456.897;   98.900;  308.000;  513.000
457.017;  -79.300; -153.000;   -3.000
457.138; -136.300; -402.000; -249.000
457.258;   29.200;  263.000;  224.000
457.379;   41.400;  509.000;  521.000
457.499;   50.200;  443.000;  432.000
457.620; -188.300; -407.000; -231.000
457.740; -108.100; -132.000;  -11.000
457.860;   -4.500;   87.000;   44.000
457.981;    8.200;  132.000;  124.000
458.101;  -61.400;  -89.000;   40.000
458.221;   20.700;  336.000;  402.000
458.342;  -52.800;   -4.000;  -37.000
458.462;   98.800;  617.000;  352.000
458.582;  -18.500; -302.000; -294.000
458.703;   91.100;  303.000;  154.000
458.823;   12.400;   22.000;  163.000
458.943;  144.100;  341.000;  467.000
459.063;   77.100; 1124.000;  192.000
459.183;   36.900;  328.000;  313.000
459.304;   98.300;  315.000;  517.000
459.424;  -64.200; -246.000;  -89.000
459.544;  773.900;  388.000;  764.000
459.664; 1611.500;  499.000;  506.000
459.784;  671.300; 1004.000; 1175.000
459.904;  186.400;  867.000;  744.000
460.024;  252.800;  867.000;  684.000
460.144;   62.400;  449.000;  554.000
460.264;   95.000;  515.000;  327.000
460.385;  -94.400; -145.000; -119.000
460.505;  144.400;  905.000;  858.000
460.625; -138.400;  -17.000;  -68.000
460.745;   56.200;  396.000;  541.000
460.864;  -25.100;  153.000;  469.000
460.984;  115.500;  499.000;  573.000
461.104;  387.900; 1656.000; 1775.000
461.224;  124.700;  657.000;  650.000
461.344;    8.000;  431.000;  360.000
461.464;   34.700;  258.000;  513.000
461.584;   47.500;  283.000;  466.000
461.704;  -17.900;   58.000;  108.000
461.824;  -44.600;  238.000;  259.000
461.943;  -26.900;  191.000;  130.000
462.063;  -94.200;    2.000;  324.000
462.183;  167.900;  639.000;  717.000
462.303;  291.500; 1678.000; 1230.000
462.422;  187.800;  781.000;  840.000
462.542;  -16.600;  271.000;  391.000
462.662;  142.000;  353.000;  380.000
462.782;  556.400;  833.000;  572.000
462.901; 1013.100;  545.000;  717.000
463.021;  640.300; 1702.000; 1638.000
463.141;   43.700;  337.000;  770.000
463.260;   24.900;  614.000;  474.000
463.380;  117.900;  902.000;  884.000
463.499;  -32.800;  342.000;  332.000
463.619;   27.600;  581.000;  559.000
463.738;  329.600; 1644.000;  903.000
463.858;   80.500;  657.000;  811.000
463.978;  -13.200;  542.000;  396.000
464.097;  171.700;  921.000; 1114.000
464.217;  270.900; 1196.000; 1143.000
464.336;  319.000; 1068.000; 1130.000
464.455;  -16.400;  328.000;  659.000
464.575;  191.900;  597.000;  602.000
464.694;  409.600; 1204.000; 1179.000
464.814;  315.200; 1190.000; 1138.000
464.933;  215.100; 1095.000; 1027.000
465.052;  312.300; 1412.000; 1054.000
465.172;  233.400;  922.000;  799.000
465.291;  393.000; 1376.000; 1320.000
465.410;   93.300;  462.000;  735.000
465.530;  262.800; 1355.000; 1310.000
465.649;  216.600; 1209.000; 1273.000
465.768;  417.200; 1673.000; 1508.000
465.888;  190.500;  941.000; 1174.000
466.007;  299.100; 1335.000; 1440.000
466.126;   94.200;  721.000;  641.000
466.245;  193.400; 1176.000; 1187.000
466.364;  104.600;  950.000; 1060.000
466.484;  189.000; 1024.000; 1213.000
466.603;  201.700; 1101.000; 1222.000
466.722;  343.000; 1490.000; 1769.000
466.841;  262.900; 1151.000; 1401.000
466.960;  151.900; 1069.000;  972.000
467.079;  372.200; 1971.000; 1786.000
467.198;  212.700; 1238.000; 1181.000
467.317;  231.300; 1768.000; 1162.000
467.436;  222.700; 1709.000; 1261.000
467.555;  349.100; 1796.000; 1746.000
467.674;  224.600; 1227.000; 1329.000
467.793;  140.900; 1376.000; 1374.000
467.912;  261.800; 1658.000; 1539.000
468.031;  361.500; 2038.000; 1930.000
468.150;  363.500; 1842.000; 1837.000
468.269;  478.900; 2313.000; 2090.000
468.388;  454.000; 2168.000; 2339.000
468.507;  611.600; 2884.000; 2903.000
468.626;  653.400; 2555.000; 2541.000
468.744;  345.900; 2018.000; 2174.000
468.863;  507.200; 2312.000; 2523.000
468.982;  268.800; 1503.000; 1555.000
469.101;  517.900; 2788.000; 2692.000
469.220;  399.600; 2333.000; 2176.000
469.338;  561.300; 2935.000; 3051.000
469.457;  496.200; 2719.000; 2545.000
469.576;  777.100; 3953.000; 3784.000
469.695;  569.700; 2877.000; 3066.000
469.813;  985.700; 4148.000; 4192.000
469.932;  895.500; 4255.000; 4485.000
470.051;  947.400; 4075.000; 4161.000
470.169; 1825.300; 4470.000; 4338.000
470.288; 2982.400; 4700.000; 4809.000
470.406; 1677.100; 5059.000; 5194.000
470.525; 1322.600; 6101.000; 5787.000
470.644; 1392.600; 6847.000; 6794.000
470.762; 1761.500; 8397.000; 7873.000
470.881; 1865.200; 8651.000; 8464.000
470.999; 2160.000; 9685.000; 9151.000
471.118; 2332.400;11174.000;10711.000

