
Integration time [ms]: 100.000
Averaging Nr. [scans]: 40
Smoothing Nr. [pixels]: 0
Data measured with spectrometer [name]: 2101012U2
Wave   ;Sample   ;Dark     ;Reference
[nm]   ;[counts] ;[counts] ;[counts] 

197.733;   53.575;  516.000;  404.000
197.879;  -72.325; -610.000; -634.000
198.025;  -47.325; -475.000; -420.000
198.171;  -70.150; -602.000; -612.000
198.317;  -23.375; -401.000; -316.000
198.463;  -65.775; -655.000; -404.000
198.609;   22.525;  181.000; -137.000
198.755;  -82.125; -644.000; -410.000
198.901;  -60.650; -505.000; -424.000
199.047;  -62.450; -615.000; -488.000
199.193;  -40.775; -230.000; -468.000
199.339;  -38.875; -222.000; -369.000
199.485;   44.575;  330.000;  271.000
199.631;   18.325;  227.000;  310.000
199.777;  -52.100; -466.000; -398.000
199.923;  -64.100; -610.000; -424.000
200.069;  -15.500; -141.000;  -58.000
200.215;   50.800;  128.000;  453.000
200.361;   37.725;  243.000;  477.000
200.507;  -59.900; -600.000; -373.000
200.653;  -25.425; -371.000; -194.000
200.798;  -27.025; -215.000; -125.000
200.944;  -18.525; -146.000;  -41.000
201.090;   34.475;   61.000;  222.000
201.236;    0.850; -116.000; -158.000
201.382;  136.225;  874.000;  903.000
201.528;    4.950;  -58.000;  -48.000
201.674;  -36.800; -386.000; -293.000
201.819;  -86.975; -540.000; -439.000
201.965;  -82.450; -699.000; -447.000
202.111;  -15.225; -273.000; -226.000
202.257;  -29.575; -250.000; -238.000
202.402;    2.400;   13.000;  -36.000
202.548;  -21.275; -169.000; -116.000
202.694;   85.925;  410.000; -183.000
202.840;  -66.750; -603.000; -531.000
202.985;  -72.075; -681.000; -639.000
203.131; -105.375; -832.000; -666.000
203.277;  -39.625; -199.000; -262.000
203.423;  -48.600; -434.000; -520.000
203.568;  -37.925; -462.000; -237.000
203.714;  -58.450; -535.000; -542.000
203.860;  -76.425; -682.000; -641.000
204.005;   22.250;  112.000;  167.000
204.151;   70.275;  561.000;  556.000
204.296;  -45.200; -354.000; -221.000
204.442;  -85.425; -600.000; -547.000
204.588;  -82.000; -592.000; -579.000
204.733;    7.425;  178.000;  168.000
204.879; -123.600;-1018.000; -822.000
205.025;   13.500;  -99.000;  126.000
205.170;   -2.650;  -17.000;   94.000
205.316;   82.225;  438.000;  661.000
205.461;  -83.950; -698.000; -554.000
205.607;   84.150;  609.000;  665.000
205.752;  -85.200; -626.000; -551.000
205.898;  -59.150; -501.000; -391.000
206.043;  -53.600; -578.000; -506.000
206.189;  -32.550; -243.000; -285.000
206.334;   67.450;  554.000;  606.000
206.480;   77.975;  409.000;  239.000
206.625;  -82.575; -529.000; -552.000
206.771;  -39.000; -451.000; -373.000
206.916;  -26.375; -210.000; -537.000
207.062;  -74.375; -545.000; -591.000
207.207;  -59.575; -546.000; -443.000
207.353;   53.775;  185.000;  460.000
207.498;   24.375;  196.000;   85.000
207.643;  -57.575; -501.000; -370.000
207.789; -131.325;-1069.000; -910.000
207.934; -103.475; -665.000; -713.000
208.080;  -12.375; -154.000;   66.000
208.225;   -6.400;  -22.000;  -57.000
208.370;  -79.175; -727.000; -619.000
208.516;  -76.525; -741.000; -487.000
208.661;  -23.250; -127.000;  -69.000
208.806;  -26.450; -165.000; -171.000
208.952; -119.425;-1044.000; -731.000
209.097;   69.250;  378.000;  349.000
209.242;  -40.050; -307.000; -382.000
209.387;   64.700;  392.000;  350.000
209.533;  -52.650; -321.000; -350.000
209.678;   71.475;  472.000;  543.000
209.823;  -55.725; -408.000; -310.000
209.969; -105.150; -860.000; -757.000
210.114; -111.700; -907.000; -719.000
210.259; -122.600; -939.000; -889.000
210.404;    5.775; -171.000;  103.000
210.549;    4.500;  108.000;    3.000
210.695;   -2.150;   -3.000;  -95.000
210.840;   25.900;   94.000;   67.000
210.985;  -54.300; -484.000; -303.000
211.130;   59.350;  268.000;  406.000
211.275;   13.800;  207.000;  199.000
211.420;  -54.875; -300.000; -289.000
211.566;  -58.900; -536.000; -489.000
211.711;    9.000;  218.000;  157.000
211.856;  -54.400; -545.000; -519.000
212.001;   14.475;  151.000;   44.000
212.146;   43.100;  153.000;   49.000
212.291;  -20.600; -210.000; -186.000
212.436;  -19.200; -280.000;   -6.000
212.581;  -88.225; -685.000; -653.000
212.726;  -69.800; -487.000; -538.000
212.871;  -54.225; -552.000; -217.000
213.016; -144.025;-1172.000;-1029.000
213.161;   63.950;  406.000;  291.000
213.306;  -69.475; -435.000; -577.000
213.451; -111.775; -778.000; -689.000
213.596;  -41.875; -455.000; -347.000
213.741;  -60.800; -448.000; -538.000
213.886;  -70.950; -498.000; -517.000
214.031;  -28.125; -294.000; -124.000
214.176;  -46.350; -408.000; -341.000
214.321;  -17.550; -296.000; -157.000
214.466;  -22.600; -163.000;  -43.000
214.611;   -3.175;  -61.000;  -10.000
214.756; -120.750; -948.000; -858.000
214.901;  -24.850; -388.000; -226.000
215.046; -124.525; -797.000; -825.000
215.191;   19.475;  128.000;   35.000
215.336;   -3.050; -157.000;  -19.000
215.480;  -83.650; -684.000; -505.000
215.625;   -5.825; -175.000;  -19.000
215.770;  -91.025; -757.000; -662.000
215.915;   -8.250;   -5.000;  -97.000
216.060;   -8.725; -113.000;  -21.000
216.205; -105.550; -731.000; -779.000
216.349;  -69.350; -470.000; -533.000
216.494; -135.450; -939.000; -867.000
216.639; -129.800; -823.000; -888.000
216.784;  -85.925; -577.000; -525.000
216.929;   51.925;  392.000;  281.000
217.073;   -1.475; -244.000;  -31.000
217.218;    4.800;   78.000;  -47.000
217.363;  -81.200; -656.000; -618.000
217.507;  -89.850; -623.000; -588.000
217.652; -133.375; -845.000; -874.000
217.797;  -86.325; -708.000; -659.000
217.942; -111.450; -856.000; -720.000
218.086;   84.550;  608.000;  539.000
218.231;  -28.550; -174.000;  -26.000
218.376;  -40.125; -337.000; -229.000
218.520;    4.350;  -41.000;   96.000
218.665;  -41.325; -338.000; -204.000
218.810;  -27.250; -275.000; -233.000
218.954;   21.325;  201.000;   35.000
219.099; -111.600; -713.000; -963.000
219.243;  -77.800; -589.000; -554.000
219.388;  -31.175; -264.000; -136.000
219.532;  -17.950; -116.000; -116.000
219.677;  -70.775; -564.000; -521.000
219.822;    3.650;   33.000;   89.000
219.966;   -0.025;   17.000;  -99.000
220.111;  -35.875; -328.000;  -40.000
220.255; -100.725; -797.000; -750.000
220.400;  -35.925; -180.000; -146.000
220.544;  -60.075; -516.000; -450.000
220.689;  -46.675; -422.000; -451.000
220.833;  -27.225; -123.000;  -58.000
220.978;  -54.425; -393.000; -563.000
221.122;   31.600;  319.000;  307.000
221.267; -114.175; -906.000; -837.000
221.411;  -57.925; -478.000; -394.000
221.555;  -13.725; -104.000;  -23.000
221.700;  -38.400; -329.000; -222.000
221.844;   29.825;  255.000;  272.000
221.989;  -45.025; -328.000; -311.000
222.133;  -46.825; -289.000; -307.000
222.277;    7.525;    5.000;   78.000
222.422;    9.950;  227.000;  113.000
222.566;  -41.500; -381.000; -214.000
222.711;  -61.550; -414.000; -479.000
222.855;  -72.075; -643.000; -586.000
222.999;  -77.875; -642.000; -717.000
223.144;  -27.425; -195.000; -194.000
223.288;   40.000;  423.000;  251.000
223.432;   18.825;  184.000;  230.000
223.576;    3.450;  152.000;  -21.000
223.721;   42.650;  364.000;  273.000
223.865;  -46.150; -472.000; -475.000
224.009;  209.150; 1673.000; 1631.000
224.153;  -86.600; -660.000; -671.000
224.298;  -60.025; -531.000; -489.000
224.442;  -13.450;  -74.000;  -33.000
224.586;    0.500; -169.000; -106.000
224.730;  -99.925; -858.000; -670.000
224.875; -109.575; -739.000; -688.000
225.019;    4.400;  102.000;  188.000
225.163;   39.800;  208.000;  341.000
225.307;   16.475;   97.000;  -91.000
225.451;   53.750;  360.000;  481.000
225.595;   32.125;  264.000;  176.000
225.739;   -8.575; -170.000;  -94.000
225.884;   -3.275;   86.000;    5.000
226.028;  -91.925; -760.000; -626.000
226.172;  -35.275; -260.000; -273.000
226.316; -115.025; -941.000; -902.000
226.460;  -67.625; -645.000; -493.000
226.604;  -48.100; -406.000; -400.000
226.748; -101.675; -836.000; -733.000
226.892;  -34.350; -227.000; -181.000
227.036;  -46.525; -537.000; -447.000
227.180;  -52.150; -551.000; -375.000
227.324;  -72.350; -561.000; -580.000
227.468; -106.825; -819.000; -717.000
227.612;   12.450;  242.000;  -28.000
227.756; -100.850; -845.000; -698.000
227.900;   60.250;  342.000;  441.000
228.044;  -63.425; -509.000; -290.000
228.188;   55.500;  448.000;  568.000
228.332;  -86.225; -546.000; -472.000
228.476;  -32.500; -223.000; -149.000
228.620;  -34.450; -210.000; -150.000
228.764;   72.275;  431.000;  349.000
228.908;  -25.200; -155.000;   30.000
229.052;  -67.525; -615.000; -528.000
229.195;  -12.450; -172.000;   13.000
229.339;  -32.100; -235.000; -305.000
229.483;  -20.900;    5.000; -162.000
229.627;   -6.350; -156.000;  139.000
229.771;  -40.975; -218.000; -294.000
229.915;    9.150;  230.000;   79.000
230.059;  -90.575; -648.000; -663.000
230.202;  -52.025; -370.000; -317.000
230.346;   -6.975; -107.000;  107.000
230.490;  -57.800; -489.000; -521.000
230.634;  -91.200; -736.000; -553.000
230.777;   64.900;  478.000;  509.000
230.921;  -56.950; -450.000; -359.000
231.065;  -46.175; -246.000; -286.000
231.209;   33.475;  261.000;  265.000
231.352;   31.250;   54.000;   40.000
231.496;   21.575;  568.000;  188.000
231.640;  -84.475; -693.000; -621.000
231.783;   62.850;  546.000;  525.000
231.927;  -52.350; -294.000; -365.000
232.071; -116.300; -962.000; -736.000
232.214; -122.975; -980.000; -764.000
232.358;  -92.225; -683.000; -599.000
232.502;    4.900;  -19.000;    7.000
232.645; -137.025;-1090.000; -927.000
232.789;  -34.500; -257.000; -218.000
232.933;  -44.875; -407.000; -224.000
233.076; -128.200;-1038.000; -897.000
233.220; -104.625; -752.000; -777.000
233.363;  -81.150; -669.000; -477.000
233.507;   65.875;  371.000;  129.000
233.650;  -98.925; -764.000; -834.000
233.794;   44.125;  438.000;  461.000
233.938;  -62.075; -530.000; -362.000
234.081;  -17.950;  -93.000;   31.000
234.225;  -74.375; -631.000; -539.000
234.368; -113.325; -773.000; -723.000
234.512;  -38.050; -385.000; -299.000
234.655;  -80.500; -582.000; -555.000
234.798;  -60.650; -493.000; -466.000
234.942; -132.450; -884.000;-1002.000
235.085;  -81.825; -651.000; -443.000
235.229;  -70.775; -405.000; -410.000
235.372;  -62.225; -247.000; -191.000
235.516;  -54.925; -397.000; -321.000
235.659;   17.550;   92.000;  121.000
235.802;  -15.350;  -38.000;  -22.000
235.946;   25.175;  335.000;  215.000
236.089;   32.975;  126.000;  250.000
236.233;   46.875;  275.000;  298.000
236.376;  -40.775; -235.000; -378.000
236.519;  -58.925; -297.000; -319.000
236.663;  -25.675; -215.000; -117.000
236.806; -147.650;-1029.000; -999.000
236.949;   53.825;  543.000;  431.000
237.092;   63.450;  412.000;  391.000
237.236;  -89.525; -589.000; -502.000
237.379;   59.800;  352.000;  428.000
237.522; -109.000; -879.000; -768.000
237.666;  -20.250; -271.000;   18.000
237.809; -115.425; -851.000; -823.000
237.952;   40.075;  469.000;  271.000
238.095;  -52.750; -447.000; -442.000
238.238;   81.075;  688.000;  700.000
238.382;    2.625;  166.000;  103.000
238.525;  -68.425; -598.000; -511.000
238.668; -139.100;-1060.000; -985.000
238.811;  -92.425; -638.000; -643.000
238.954;  -57.275; -483.000; -334.000
239.097;  100.750;  617.000;  664.000
239.241;   21.975;  394.000;  326.000
239.384;  -33.825; -254.000; -214.000
239.527;  -61.450; -424.000; -224.000
239.670; -138.450; -994.000;-1091.000
239.813; -106.650; -696.000; -658.000
239.956;   72.025;  579.000;  473.000
240.099; -114.150; -778.000; -725.000
240.242;   48.875;  428.000;  432.000
240.385;   55.925;  466.000;  450.000
240.528;  -69.575; -706.000; -473.000
240.671;   27.000;  189.000;  134.000
240.814;  -35.225; -441.000; -158.000
240.957; -105.775; -767.000; -578.000
241.100; -104.775; -779.000; -755.000
241.243; -141.400;-1234.000; -893.000
241.386;  -61.500; -508.000; -379.000
241.529;  -80.600; -735.000; -547.000
241.672;  -75.725; -566.000; -495.000
241.815; -115.525; -832.000; -808.000
241.958;  -21.550; -125.000; -182.000
242.101;  -72.750; -545.000; -390.000
242.244;  -40.300; -270.000; -325.000
242.387;  -35.550; -304.000; -246.000
242.530;   67.250;  470.000;  134.000
242.673;  -36.700; -381.000; -309.000
242.815; -124.575; -925.000; -899.000
242.958;  -59.775; -482.000; -381.000
243.101;   11.525;  132.000;  187.000
243.244;  -74.700; -564.000; -521.000
243.387;  -49.725; -313.000; -316.000
243.530;  -93.950; -657.000; -674.000
243.672;   -3.875;   43.000;  -92.000
243.815;  -47.025; -355.000; -283.000
243.958;  -10.600;   98.000;  -26.000
244.101;   -7.100;   59.000;  -16.000
244.243;  -16.625;  -47.000;  101.000
244.386; -106.175; -761.000; -630.000
244.529;  -32.725; -132.000; -139.000
244.672; -150.725;-1154.000; -951.000
244.814; -101.525; -621.000; -794.000
244.957;  -43.875; -380.000; -304.000
245.100;  -79.450; -489.000; -489.000
245.242;  -55.025; -387.000; -374.000
245.385;  -14.125;  -59.000;  -39.000
245.528; -122.700; -871.000; -705.000
245.670;   85.400;  612.000;  634.000
245.813;  -95.700; -599.000; -547.000
245.956;  -42.175; -324.000; -275.000
246.098;  -75.625; -508.000; -650.000
246.241;    5.125;  194.000;   48.000
246.383;   -2.525; -119.000;  -73.000
246.526;  -79.400; -454.000; -525.000
246.669; -125.925; -889.000; -780.000
246.811;   16.225;  172.000;   -1.000
246.954;  -66.300; -512.000; -426.000
247.096;  -26.150;  -84.000;   -6.000
247.239;  -61.225; -482.000; -445.000
247.381;  -67.950; -647.000; -488.000
247.524;   75.975;  645.000;  679.000
247.666;  -24.575;   58.000;   11.000
247.809; -122.500; -887.000; -691.000
247.951;  -10.850;  -75.000;  138.000
248.094;   31.650;  432.000;  308.000
248.236; -168.225;-1262.000;-1238.000
248.378;    1.000; -356.000;  -81.000
248.521;  -26.050; -334.000; -337.000
248.663;  -36.500; -236.000; -267.000
248.806;  -34.425; -300.000; -266.000
248.948;  -86.625; -886.000; -763.000
249.090;  -62.675; -428.000; -398.000
249.233;  -51.475; -344.000; -381.000
249.375;  -57.975; -474.000; -451.000
249.518;  -15.150;  -83.000; -133.000
249.660;  -14.775; -103.000;    3.000
249.802; -165.650;-1303.000;-1189.000
249.945;  -86.300; -612.000; -540.000
250.087; -110.100; -834.000; -768.000
250.229;  -51.375; -362.000; -480.000
250.371;  -76.200; -494.000; -439.000
250.514;  -58.100; -310.000; -244.000
250.656;   -9.225;   69.000;  102.000
250.798; -123.050; -849.000; -800.000
250.940;  -64.750; -322.000; -322.000
251.083;  -38.375; -335.000; -111.000
251.225;   57.325;  338.000;  310.000
251.367;  -59.725; -274.000; -373.000
251.509;  -31.950; -265.000; -210.000
251.651; -103.100; -731.000; -671.000
251.794;   58.225;  538.000;  632.000
251.936; -114.725; -821.000; -747.000
252.078;  -72.425; -540.000; -461.000
252.220;  -79.275; -645.000; -477.000
252.362;   97.150;  344.000;  462.000
252.504;  -84.100; -677.000; -584.000
252.646; -118.975; -875.000; -722.000
252.788;   -2.950;   14.000; -128.000
252.931;  -40.325; -257.000; -253.000
253.073;  -43.100; -376.000; -317.000
253.215;   -1.975;  141.000;  122.000
253.357;  -16.675;   82.000; -153.000
253.499;  -46.400; -374.000; -234.000
253.641;  -93.150; -749.000; -594.000
253.783; -100.700; -609.000; -527.000
253.925;  -96.100; -586.000; -591.000
254.067; -104.550; -744.000; -667.000
254.209;  -33.900; -391.000; -259.000
254.351; -138.975; -865.000; -883.000
254.493;  -73.825; -441.000; -417.000
254.635; -131.425; -936.000; -818.000
254.777;  -93.775; -752.000; -687.000
254.918;  -65.600; -512.000; -430.000
255.060;  -64.775; -551.000; -395.000
255.202;  -54.675; -473.000; -261.000
255.344;  -74.400; -658.000; -455.000
255.486;  -70.925; -471.000; -406.000
255.628; -120.725; -780.000; -781.000
255.770;  -96.450; -676.000; -536.000
255.912;  -69.000; -559.000; -468.000
256.053;  -98.725; -730.000; -508.000
256.195;  163.175; 1008.000;  903.000
256.337;  -94.125; -861.000; -595.000
256.479;   51.950;  532.000;  416.000
256.621;  -48.700; -394.000; -212.000
256.762; -102.925; -789.000; -742.000
256.904;   48.725;  485.000;  487.000
257.046;  -63.100; -381.000; -271.000
257.188;  -41.200; -351.000; -264.000
257.329;  -81.500; -525.000; -464.000
257.471; -125.775; -939.000; -807.000
257.613;  -84.275; -584.000; -498.000
257.755; -142.075;-1073.000; -982.000
257.896;   38.000;  286.000;  392.000
258.038;  -77.775; -403.000; -352.000
258.180;  -41.600; -354.000; -279.000
258.321;  -79.450; -581.000; -457.000
258.463;   -7.000;  -71.000;  133.000
258.605;  -79.750; -562.000; -570.000
258.746; -114.750; -886.000; -772.000
258.888; -152.700;-1026.000;-1020.000
259.029;   10.475;  121.000;   -8.000
259.171;  -99.800; -614.000; -550.000
259.313;   -7.325;  -49.000;  -47.000
259.454;  -75.175; -536.000; -414.000
259.596;  -66.725; -483.000; -390.000
259.737;  -72.925; -590.000; -474.000
259.879;   33.050;  217.000;  311.000
260.020;   98.625;  901.000;  636.000
260.162;  -35.750; -146.000; -253.000
260.303; -130.125; -768.000; -687.000
260.445;  -83.625; -609.000; -613.000
260.586;   40.125;  392.000;  157.000
260.728;  -64.275; -360.000; -248.000
260.869; -102.575; -350.000; -343.000
261.011;   87.925;  706.000;  537.000
261.152;  -59.500; -479.000; -319.000
261.293;  -83.975; -576.000; -595.000
261.435;  -25.400; -219.000; -184.000
261.576;  -56.925; -455.000; -325.000
261.718;   60.900;  420.000;  470.000
261.859; -136.600; -940.000; -949.000
262.000; -137.800; -951.000;-1016.000
262.142;  -29.425;  -52.000;  -60.000
262.283; -118.850; -808.000; -691.000
262.424; -107.825; -666.000; -625.000
262.566; -163.650;-1161.000; -983.000
262.707; -122.225; -840.000; -830.000
262.848; -120.050; -769.000; -726.000
262.990;  -49.275; -362.000; -345.000
263.131;   97.500;  650.000;  681.000
263.272;  -10.125;  -61.000;  -41.000
263.413;  -93.825; -589.000; -561.000
263.555;  -74.300; -669.000; -143.000
263.696;  -85.275; -550.000; -641.000
263.837;  -72.900; -449.000; -551.000
263.978;   -7.500;   -5.000;  -77.000
264.119;  -58.900; -283.000; -264.000
264.261; -113.375; -847.000; -630.000
264.402;   -9.250;   33.000;   40.000
264.543;  -81.475; -509.000; -524.000
264.684;  -10.975;   61.000;  -50.000
264.825;  -57.625; -816.000; -538.000
264.966;    1.850;  -84.000;  -67.000
265.107; -121.725; -646.000; -670.000
265.248; -128.375; -825.000; -812.000
265.390;   -5.800;  152.000;   -9.000
265.531;  -34.425; -238.000; -107.000
265.672;  -87.825; -557.000; -630.000
265.813;   60.975;  563.000;  439.000
265.954; -142.925; -959.000; -940.000
266.095;  -26.875; -372.000; -322.000
266.236;  -86.575; -686.000; -548.000
266.377;  -50.875; -243.000; -297.000
266.518;  -81.400; -619.000; -547.000
266.659;   14.300;  170.000;  268.000
266.800;   -6.500;   83.000;   85.000
266.941;  -86.325; -487.000; -478.000
267.082;   22.400;  354.000;   99.000
267.223;  -65.075; -344.000; -273.000
267.364; -120.675; -892.000; -686.000
267.504;  -18.950;    3.000;  135.000
267.645;    0.625;  160.000;   67.000
267.786;  -40.550; -147.000;  -86.000
267.927;  -77.125; -473.000; -379.000
268.068;  -22.125; -186.000;  -61.000
268.209;  -44.450; -175.000; -413.000
268.350;  -72.600; -388.000; -532.000
268.490;  -80.600; -648.000; -521.000
268.631;   27.450;  127.000;  225.000
268.772; -123.900; -874.000; -647.000
268.913;  -65.825; -328.000; -476.000
269.054;   -9.900; -117.000;   12.000
269.194;  -51.550; -418.000; -402.000
269.335; -153.800;-1137.000;-1074.000
269.476;  -30.250;   33.000;  -35.000
269.617;  -44.025; -347.000; -392.000
269.757;  -97.825; -713.000; -646.000
269.898; -104.725; -856.000; -613.000
270.039;  -74.525; -415.000; -405.000
270.180; -134.150; -952.000; -816.000
270.320;  -20.225; -190.000; -250.000
270.461;  -24.950; -277.000; -249.000
270.602;  -34.200; -186.000; -156.000
270.742; -128.700; -868.000; -943.000
270.883;  -67.875; -442.000; -390.000
271.023;  -62.025; -358.000; -357.000
271.164;  -78.950; -607.000; -528.000
271.305;  -95.900; -666.000; -654.000
271.445;  -99.875; -722.000; -683.000
271.586;  -73.675; -462.000; -283.000
271.726;  -63.550; -397.000; -322.000
271.867;  -65.200; -594.000; -534.000
272.008;  158.125; -473.000; -285.000
272.148;  118.250;  462.000;  468.000
272.289;   -6.200; -113.000; -181.000
272.429;    1.925;   19.000;  185.000
272.570;  -95.150; -633.000; -737.000
272.710;  -97.625; -825.000; -775.000
272.851;  -29.425;  113.000; -130.000
272.991; -164.975;-1173.000;-1077.000
273.131;  -83.000; -419.000; -459.000
273.272;  -95.175; -683.000; -723.000
273.412;    5.050; -143.000;  -31.000
273.553;  -59.675; -488.000; -507.000
273.693;  115.350;  913.000;  858.000
273.834; -102.075; -894.000; -692.000
273.974;  -84.875; -664.000; -615.000
274.114;  -95.225; -772.000; -560.000
274.255;   57.200;  414.000;  373.000
274.395;   -2.775; -180.000; -125.000
274.535;   36.600;  199.000;  350.000
274.676;   25.825;  225.000;   94.000
274.816;  -10.850;  110.000;   34.000
274.956;  -90.375; -624.000; -690.000
275.097;  -91.000;-1014.000; -922.000
275.237; -106.300; -913.000; -803.000
275.377; -108.700; -778.000; -689.000
275.517; -161.250; -878.000; -937.000
275.658;  -68.300; -590.000; -555.000
275.798;  -69.975; -606.000; -413.000
275.938;    5.300;  215.000;  323.000
276.078; -100.625; -626.000; -395.000
276.218;   -6.575;   99.000;  104.000
276.359; -135.250;-1026.000;-1024.000
276.499;  -81.775; -605.000; -446.000
276.639;  -32.125; -305.000; -151.000
276.779;  -53.525; -475.000; -357.000
276.919; -109.275; -783.000; -624.000
277.059;  -37.200; -261.000; -212.000
277.199;  -54.775; -357.000; -259.000
277.340;   41.875;  287.000;  175.000
277.480; -121.250; -840.000; -693.000
277.620;   21.225;  192.000;   16.000
277.760; -192.175;-1533.000;-1294.000
277.900;    2.575;  113.000;   33.000
278.040;   23.225;  137.000;  159.000
278.180;   21.975;  270.000;  170.000
278.320;   -5.850;   21.000;   56.000
278.460;  -72.625; -443.000; -469.000
278.600;  -83.250; -708.000; -598.000
278.740;   41.450;  448.000;  224.000
278.880;  -76.875; -768.000; -791.000
279.020;  -19.700; -194.000; -144.000
279.160;  -83.475; -672.000; -595.000
279.300; -130.250; -926.000; -873.000
279.440;  -81.250; -709.000; -622.000
279.579;  -32.600;-1014.000; -929.000
279.719;  -51.600; -410.000; -394.000
279.859;   55.675;   -4.000;   41.000
279.999;   26.600; -208.000;  101.000
280.139;  -32.575; -435.000; -387.000
280.279;  -78.500; -708.000; -745.000
280.419;  -24.450; -229.000; -147.000
280.559;  -24.450; -259.000; -180.000
280.698;  -83.150; -790.000; -639.000
280.838; -106.600; -778.000; -800.000
280.978; -111.075; -846.000; -790.000
281.118; -107.600; -811.000; -704.000
281.257;    7.700;   24.000;    6.000
281.397; -142.025;-1094.000; -960.000
281.537;  -90.750; -599.000; -712.000
281.677;   -2.125; -150.000; -101.000
281.816;  -96.700; -700.000; -630.000
281.956;  -17.350; -193.000; -257.000
282.096;  -69.850; -539.000; -396.000
282.235; -100.475; -672.000; -638.000
282.375;  -38.125; -243.000;  -98.000
282.515; -103.750; -715.000; -707.000
282.654;   -3.525;   29.000;  106.000
282.794;   34.350;  388.000;  244.000
282.934;  -55.125; -530.000; -491.000
283.073; -151.150;-1030.000; -857.000
283.213;  -52.075; -460.000; -467.000
283.353;  -37.575; -408.000; -349.000
283.492;  -37.800; -264.000; -296.000
283.632;  -39.725; -254.000; -168.000
283.771; -104.150; -859.000; -730.000
283.911;  -50.500; -369.000; -260.000
284.050; -123.425; -794.000; -748.000
284.190; -161.850;-1229.000;-1096.000
284.329; -155.500;-1055.000; -964.000
284.469;  -73.850; -516.000; -591.000
284.608;  -68.500; -559.000; -598.000
284.748;  -87.925; -614.000; -570.000
284.887;   -5.675;  -87.000;  -20.000
285.027; -125.800; -844.000; -892.000
285.166;  -49.075; -192.000; -249.000
285.306;   -8.525; -116.000;  -33.000
285.445;  -49.075; -229.000; -343.000
285.584;  -93.150; -630.000; -494.000
285.724;  -51.350; -282.000; -322.000
285.863; -130.225; -857.000; -507.000
286.002;  -62.075; -366.000; -276.000
286.142; -114.625; -715.000; -622.000
286.281;  -83.575; -525.000; -493.000
286.420;  -85.400; -554.000; -417.000
286.560;   93.350;  653.000;  623.000
286.699; -149.500; -958.000; -912.000
286.838;  -97.975; -590.000; -591.000
286.978;  -86.050; -533.000; -537.000
287.117; -148.800;-1085.000; -950.000
287.256;  -38.500; -228.000; -211.000
287.395;  -62.900; -197.000; -378.000
287.535;  -52.175; -370.000; -298.000
287.674;  -94.850; -509.000; -484.000
287.813;   52.075;  661.000;  533.000
287.952; -130.575;-1010.000; -871.000
288.091; -148.300;-1049.000; -915.000
288.231;    4.650;   13.000;   15.000
288.370; -163.300;-1217.000;-1200.000
288.509;  -98.625; -728.000; -645.000
288.648;  -92.775; -770.000; -548.000
288.787;  -48.525; -243.000;  -87.000
288.926;  -66.350; -454.000; -475.000
289.065;   94.275;  859.000;  672.000
289.204;  -56.975; -377.000; -217.000
289.344; -105.400; -791.000; -690.000
289.483;   23.875;  416.000;  304.000
289.622;  -36.925; -291.000; -149.000
289.761;  -10.975; -309.000; -166.000
289.900; -112.375; -785.000; -626.000
290.039;  -23.100;  -12.000;  -95.000
290.178;  -53.650; -274.000; -180.000
290.317;  -82.925; -618.000; -479.000
290.456;  -79.000; -463.000; -451.000
290.595; -156.125; -961.000; -833.000
290.734; -141.800; -904.000; -891.000
290.873;  -63.225; -456.000; -420.000
291.011; -116.850; -833.000; -843.000
291.150; -102.600; -770.000; -682.000
291.289;  -36.525; -343.000; -110.000
291.428;  -92.925; -599.000; -480.000
291.567;  -64.075; -370.000; -442.000
291.706;  -13.775;  109.000;  154.000
291.845;  -93.925; -597.000; -505.000
291.984; -171.625;-1234.000;-1061.000
292.122;   63.350;  602.000;  582.000
292.261;   46.850;  620.000;  463.000
292.400;   -0.550; -144.000;  211.000
292.539; -132.150; -959.000; -813.000
292.678;  -45.100; -325.000; -300.000
292.816; -155.275;-1136.000; -965.000
292.955;  -91.650; -844.000; -684.000
293.094;  -32.575; -173.000; -337.000
293.233;  -65.425; -556.000; -400.000
293.371;  -25.700; -225.000;  -84.000
293.510; -113.150; -866.000; -780.000
293.649; -125.175; -959.000; -924.000
293.787;  -79.825;-1083.000;-1012.000
293.926;    2.875; -113.000;  -32.000
294.065;  -57.875; -379.000; -290.000
294.203;   45.200;  298.000;  406.000
294.342;   22.250;   74.000;  156.000
294.481; 7138.375;51180.000; -836.000
294.619;  -20.375; -425.000; -582.000
294.758; -153.700;-1230.000;-1137.000
294.896;   54.400; -125.000;    5.000
295.035; -135.200;-1040.000;-1006.000
295.174; -133.475;-1082.000; -954.000
295.312;  -47.625; -323.000; -203.000
295.451;  -27.825; -307.000; -428.000
295.589;  -47.650; -389.000; -518.000
295.728;    9.750; -292.000; -165.000
295.866;    4.325;  -36.000;  -51.000
296.005;  -81.300; -584.000; -341.000
296.143;  -73.025; -558.000; -596.000
296.282; -123.250; -957.000; -881.000
296.420;  -80.950; -657.000; -557.000
296.559; -100.975; -892.000; -633.000
296.697;  -12.900; -847.000; -665.000
296.835;   16.575;-1141.000;-1002.000
296.974;   29.825;  -23.000;   39.000
297.112;  -22.850; -443.000; -504.000
297.251;  -84.675; -815.000; -755.000
297.389;   58.125; -576.000; -438.000
297.527;   29.400; -145.000;  -83.000
297.666;  -67.775; -486.000; -438.000
297.804;  -39.150; -404.000; -264.000
297.942;   -8.975; -136.000; -161.000
298.081;    7.325; -183.000;   63.000
298.219;   50.675;  -17.000;  -19.000
298.357;   29.225; -144.000;  -71.000
298.495;   -5.225; -810.000; -812.000
298.634;   77.525;  245.000;  219.000
298.772;   23.425; -220.000; -338.000
298.910;  -36.000; -309.000; -182.000
299.048;  -16.300; -130.000; -153.000
299.187;  -39.175; -350.000; -250.000
299.325;   13.875;   52.000;  122.000
299.463;   34.400; -389.000; -299.000
299.601;   77.600; -327.000; -271.000
299.739; -118.400; -908.000; -883.000
299.877;  -87.675; -791.000; -703.000
300.016;  -60.550;-1095.000; -935.000
300.154;  137.850;  -19.000; -161.000
300.292;   37.850; -428.000; -348.000
300.430;   -1.200; -408.000; -291.000
300.568; -110.100; -940.000; -874.000
300.706;  -49.050; -366.000; -469.000
300.844;  -97.725;-1108.000; -979.000
300.982;   97.225;  246.000;  282.000
301.120; -125.000; -965.000; -866.000
301.258;  -79.125; -812.000; -705.000
301.396;   26.300;  104.000;  -41.000
301.534;   48.700; -218.000; -293.000
301.672;  -29.600; -664.000; -521.000
301.810;   -1.450; -613.000; -545.000
301.948;   82.525;   53.000;  149.000
302.086;  513.525; -250.000;  -32.000
302.224;  807.700; -610.000; -585.000
302.362;   12.125; -558.000; -622.000
302.500;  -53.950; -923.000; -893.000
302.638;   73.275;  128.000;  245.000
302.776;  -10.175; -352.000; -408.000
302.913;   31.575;  447.000;  236.000
303.051;  -16.350;  -86.000;  -23.000
303.189;   31.700;   90.000;  118.000
303.327;  -47.925; -341.000; -256.000
303.465;  -91.000; -832.000; -588.000
303.603;  -87.000; -805.000; -604.000
303.740;   83.600;  417.000;  241.000
303.878;   -4.225; -800.000; -759.000
304.016; -103.925; -915.000; -790.000
304.154; -135.900;-1123.000;-1152.000
304.291;  -56.200; -505.000; -554.000
304.429;   13.275;  102.000;   74.000
304.567; -130.750; -908.000; -893.000
304.705;  -65.525; -408.000; -515.000
304.842;   65.850; -616.000; -540.000
304.980;   44.525;  215.000;   35.000
305.118;   11.225; -367.000; -365.000
305.255;  -96.800; -945.000; -927.000
305.393;   46.700;  178.000;  239.000
305.531; -110.525;-1173.000; -956.000
305.668;  -83.225; -663.000; -582.000
305.806;   82.750; -358.000; -439.000
305.943;   81.475; -629.000; -637.000
306.081;   39.625; -378.000; -267.000
306.219; -112.875; -863.000; -748.000
306.356;    4.350;  158.000;   27.000
306.494;   99.350;  981.000;  761.000
306.631;    2.350;  -11.000;  -55.000
306.769;  -20.475; -613.000; -485.000
306.906;  -33.325; -284.000; -258.000
307.044;  -62.825; -473.000; -488.000
307.181;  -66.750; -410.000; -332.000
307.319;    7.175;  112.000;   87.000
307.456; -177.150;-1191.000;-1153.000
307.594; -102.450; -980.000; -727.000
307.731;  -17.425; -371.000; -164.000
307.868;   -4.825;  -15.000;   20.000
308.006; -133.325; -961.000; -847.000
308.143;  -78.150; -618.000; -330.000
308.281;   82.600;  -37.000; -254.000
308.418;  -49.475; -748.000; -640.000
308.555;  -69.150; -400.000; -250.000
308.693;  -83.025; -577.000; -573.000
308.830; -104.000; -712.000; -657.000
308.967;  -18.000; -215.000;  -95.000
309.105;  -50.650; -507.000; -396.000
309.242;    5.475; -468.000; -367.000
309.379;  182.225; -577.000; -655.000
309.517;  -92.775; -936.000; -948.000
309.654; -108.925; -910.000; -734.000
309.791;  -77.725; -662.000; -580.000
309.928; -126.775; -977.000; -914.000
310.065;  157.225;  819.000;  697.000
310.203;  -24.025; -825.000; -850.000
310.340;  -23.450; -465.000; -321.000
310.477;  -70.825; -412.000; -516.000
310.614;  -78.400; -383.000; -473.000
310.751;  -63.900; -427.000; -518.000
310.889;  -34.075;    1.000;   11.000
311.026; -155.125;-1161.000; -939.000
311.163;  -62.475; -386.000; -380.000
311.300;  -83.775; -512.000; -479.000
311.437;  -75.400; -658.000; -619.000
311.574; -163.700;-1226.000; -985.000
311.711;  -78.525; -595.000; -433.000
311.848;  -42.975; -380.000; -388.000
311.985;   -4.850;  270.000;   93.000
312.122; -120.925; -932.000; -762.000
312.259; -144.675; -941.000; -994.000
312.396;  -83.725; -508.000; -551.000
312.533; -102.725; -812.000; -790.000
312.670; -143.700;-1070.000; -898.000
312.807;  -42.900; -352.000; -367.000
312.944;  -87.150; -513.000; -611.000
313.081;  -36.550; -150.000; -415.000
313.218; -109.550;-1111.000; -867.000
313.355;  -15.825; -531.000; -449.000
313.492;   -1.200; -455.000; -292.000
313.629;  119.625;  815.000;  735.000
313.766; -172.200;-1176.000;-1008.000
313.902;  -32.250; -186.000;   21.000
314.039;  -55.975; -372.000; -289.000
314.176;   19.475;  286.000;  192.000
314.313;  -83.050; -569.000; -473.000
314.450; -101.075; -788.000; -684.000
314.587;  -65.875; -468.000; -480.000
314.723;  -14.200;  -78.000;  130.000
314.860;   26.475;  318.000;  332.000
314.997;   13.300;  223.000;  142.000
315.134;  -45.500; -385.000; -368.000
315.270;  -59.450; -480.000; -496.000
315.407; -130.325;-1094.000; -967.000
315.544;  -61.300; -657.000; -538.000
315.681;  -75.725; -681.000; -565.000
315.817;   15.325; -133.000; -176.000
315.954;   -8.525; -613.000; -392.000
316.091; -133.450;-1045.000;-1023.000
316.227;  -31.750;  -71.000; -179.000
316.364;   -5.975;   23.000;    6.000
316.500;  -38.300; -113.000; -300.000
316.637;  -58.225; -181.000; -302.000
316.774;  -87.025; -625.000; -358.000
316.910; -110.400; -598.000; -629.000
317.047;  -74.900; -487.000; -351.000
317.183;  -59.475; -435.000; -566.000
317.320;  -17.100; -367.000; -321.000
317.456;  -81.100; -733.000; -805.000
317.593;  -85.200; -598.000; -641.000
317.729;   -4.500;  168.000;  -67.000
317.866; -198.750;-1434.000;-1285.000
318.002;  -98.575; -708.000; -948.000
318.139;  -97.100; -883.000; -867.000
318.275; -111.275;-1003.000; -738.000
318.412;  -68.325; -517.000; -336.000
318.548;  -54.850; -751.000; -720.000
318.685;  -99.075; -985.000; -888.000
318.821; -105.750; -762.000; -735.000
318.957;  -15.825;   34.000;  -23.000
319.094;    9.675;  297.000;  154.000
319.230;  -66.225; -756.000; -742.000
319.367;   84.550; -471.000; -520.000
319.503;   33.600; -538.000; -436.000
319.639; -100.775; -877.000; -793.000
319.775;  -79.500; -750.000; -685.000
319.912;  -72.300; -424.000; -519.000
320.048; -102.575;-1184.000;-1184.000
320.184;   78.050;   59.000;   70.000
320.321;  -63.800; -497.000; -467.000
320.457;   71.600;  475.000;  662.000
320.593;  -67.675; -375.000; -382.000
320.729; -123.300; -732.000; -734.000
320.866;  -67.800; -577.000; -635.000
321.002;  -92.925; -759.000; -809.000
321.138;  -19.750; -135.000; -211.000
321.274;   84.775; -148.000; -115.000
321.410;  -26.250; -585.000; -353.000
321.546;  -57.650;-1011.000; -911.000
321.683;   57.800;  400.000;  185.000
321.819;   -7.475;  -48.000; -117.000
321.955; -118.375; -743.000; -722.000
322.091;  -61.200; -585.000; -540.000
322.227;  -19.875; -382.000; -202.000
322.363;  -36.075; -320.000; -215.000
322.499;  -56.925; -343.000; -331.000
322.635;  140.500;  636.000;  443.000
322.771;   15.650; -139.000;   12.000
322.907;   76.000;  129.000;  327.000
323.043;  -31.450; -115.000; -206.000
323.179;  -40.350; -394.000; -363.000
323.315;    5.550; -401.000; -371.000
323.451;   56.825; -328.000; -236.000
323.587;   58.125;  -60.000;  -77.000
323.723;   -9.550; -682.000; -601.000
323.859;  -23.000; -258.000;  -76.000
323.995;  -45.400; -467.000; -409.000
324.131; -130.500; -967.000; -892.000
324.267;  -43.375; -254.000; -276.000
324.402; -138.575; -960.000; -983.000
324.538;  -32.800; -279.000; -104.000
324.674;   15.425;  164.000;   77.000
324.810;   85.175;  226.000;  308.000
324.946;   -3.825; -810.000; -658.000
325.082;  -86.450; -568.000; -475.000
325.217;  -18.200;  -62.000;   16.000
325.353; -106.950; -764.000; -659.000
325.489; -101.125; -540.000; -506.000
325.625;  -89.075; -579.000; -525.000
325.760;   59.025;  517.000;  376.000
325.896;  -36.175; -515.000; -702.000
326.032;  -58.850; -403.000; -352.000
326.168;  -75.150; -462.000; -369.000
326.303;  -67.650; -352.000; -461.000
326.439;  -28.325; -336.000; -276.000
326.575;   -1.175; -190.000;  -29.000
326.710;  -19.450; -156.000;  -30.000
326.846;  -16.525;  146.000;  103.000
326.982; -100.025; -530.000; -548.000
327.117;  -73.000; -481.000; -442.000
327.253;  -96.225; -745.000; -742.000
327.388; -168.425;-1137.000;-1153.000
327.524;  -78.500; -811.000; -578.000
327.659;  -30.700;  -58.000;  -22.000
327.795;  -24.650;   69.000;   45.000
327.931;  -85.725; -723.000; -499.000
328.066;  -43.475; -417.000; -276.000
328.202;  -38.275;   12.000; -129.000
328.337;  100.775;  957.000;  713.000
328.473;   27.125;  -12.000;  -74.000
328.608;  -27.725; -256.000; -267.000
328.743;  -88.425; -799.000; -664.000
328.879;   10.750;  214.000;  114.000
329.014;  -38.125; -102.000; -122.000
329.150;  -91.175; -358.000; -483.000
329.285;  -87.075; -465.000; -466.000
329.421;  -63.875; -548.000; -246.000
329.556;  -21.425;  -36.000;   85.000
329.691; -101.550; -633.000; -615.000
329.827;  -94.400; -626.000; -480.000
329.962;  -54.700;  131.000; -301.000
330.097;  -80.400; -673.000; -585.000
330.233;  -53.950; -410.000; -223.000
330.368; -132.050; -839.000; -628.000
330.503;  -28.200;    3.000;   98.000
330.638;   -2.675;  -93.000; -125.000
330.774;  -68.125; -609.000; -530.000
330.909;  -44.625; -434.000; -244.000
331.044; -105.775; -714.000; -708.000
331.179; -180.675;-1217.000;-1109.000
331.315;   15.450;   77.000;   20.000
331.450;    7.050;  157.000;  285.000
331.585; -101.900; -805.000; -706.000
331.720;  -82.700; -510.000; -460.000
331.855;   -5.425;  -35.000; -102.000
331.990;  256.350;   62.000;  138.000
332.126;  124.100; -110.000;   71.000
332.261;  -25.975; -379.000; -265.000
332.396;  -22.950; -135.000; -242.000
332.531;  -96.900;-1074.000;-1031.000
332.666;   28.275; -519.000; -363.000
332.801; -107.175; -726.000; -807.000
332.936;  -36.375; -192.000; -122.000
333.071; -139.550; -870.000; -817.000
333.206;   18.300;  307.000;  379.000
333.341;   16.400;  344.000;  418.000
333.476;  -96.450; -627.000; -623.000
333.611;  -35.125; -251.000; -173.000
333.746;  -53.125; -381.000; -464.000
333.881; -121.475; -973.000; -935.000
334.016; -135.650; -936.000; -917.000
334.151; -135.800; -746.000; -702.000
334.286;   17.475;  152.000;  186.000
334.421;   -4.625; -125.000; -178.000
334.556;  -87.375; -611.000; -567.000
334.690;  -95.750; -631.000; -577.000
334.825;   38.025;  381.000;   83.000
334.960;  -70.000; -285.000; -413.000
335.095;  -11.600;  135.000;  -91.000
335.230; -113.450; -722.000; -738.000
335.365; -143.150;-1084.000; -990.000
335.499; -141.900;-1108.000;-1037.000
335.634;    6.100;    9.000;  534.000
335.769; -104.625; -755.000; -720.000
335.904;  -70.475; -603.000; -561.000
336.038;  -58.875; -735.000; -657.000
336.173; -130.375;-1206.000;-1194.000
336.308;  -13.175; -116.000; -189.000
336.443;  -15.500; -544.000; -634.000
336.577;  -77.675; -936.000; -787.000
336.712;   49.875;   -4.000;  -12.000
336.847;  -62.475; -724.000; -607.000
336.981;   50.775; -272.000; -208.000
337.116;  265.525;  615.000;  501.000
337.250;  107.150; -434.000; -421.000
337.385;  268.425; -297.000; -208.000
337.520;   77.775; -632.000; -603.000
337.654;  -39.125; -215.000; -126.000
337.789; -142.750; -989.000; -933.000
337.923;  -39.125; -104.000; -205.000
338.058; -100.050; -673.000; -738.000
338.192;  -44.175; -611.000; -488.000
338.327;  -22.900;  -18.000; -155.000
338.461;  -71.050; -299.000; -469.000
338.596; -104.550; -780.000; -638.000
338.730; -106.025; -767.000; -803.000
338.865;   79.875;  -46.000; -140.000
338.999;  -40.475; -846.000; -702.000
339.134;  -39.450; -634.000; -536.000
339.268;   16.300; -741.000; -603.000
339.403;  362.825; -740.000; -775.000
339.537;  128.000; -894.000; -820.000
339.671; -127.950; -829.000; -813.000
339.806;  -49.275; -556.000; -512.000
339.940;   15.550; -261.000; -235.000
340.074; -106.450; -685.000; -510.000
340.209;  -60.025; -351.000; -230.000
340.343;  -91.600; -517.000; -573.000
340.477;  141.050;  998.000; 1036.000
340.612;  -35.225;-1033.000; -900.000
340.746;  129.075; -199.000; -243.000
340.880;  -78.700; -924.000; -785.000
341.014;  -27.875;  -45.000; -154.000
341.149; -130.975; -756.000; -718.000
341.283; -120.775; -839.000; -754.000
341.417; -112.850;-1124.000; -938.000
341.551;   74.825; -768.000; -708.000
341.685;  -48.475; -633.000; -611.000
341.820;  -65.525; -562.000; -493.000
341.954;  -47.575; -218.000; -349.000
342.088; -165.375;-1102.000;-1019.000
342.222;   45.225;  565.000;  618.000
342.356;  -73.650; -395.000; -335.000
342.490; -105.450; -880.000; -841.000
342.624;  -60.350; -339.000; -242.000
342.758;  -12.050; -364.000; -312.000
342.892;  -86.600; -710.000; -585.000
343.026;  -47.400;  -58.000; -116.000
343.160;  -51.400; -426.000; -376.000
343.294;  -84.850; -474.000; -337.000
343.428;  -60.450; -488.000; -448.000
343.562;  -28.400; -172.000;  -23.000
343.696;  -41.725; -385.000; -314.000
343.830;  -35.250; -362.000; -356.000
343.964;  -15.350; -231.000; -168.000
344.098;  777.850;  199.000;   70.000
344.232;  616.825; -266.000; -127.000
344.366;   67.375; -567.000; -453.000
344.500;   24.200; -665.000; -744.000
344.634;   15.550; -324.000; -164.000
344.768;  -29.475; -531.000; -341.000
344.902;   27.800;  278.000;  256.000
345.035;  -77.600; -556.000; -496.000
345.169; -138.450; -933.000; -656.000
345.303;  -75.675; -308.000; -482.000
345.437;  -82.625; -826.000; -717.000
345.571;  -92.725; -675.000; -594.000
345.704;  -81.350; -309.000; -532.000
345.838;  -19.900; -331.000; -284.000
345.972;  -42.250; -543.000; -495.000
346.106;  166.550; -179.000; -190.000
346.239;  401.300; -312.000; -243.000
346.373;   -1.400; -343.000; -302.000
346.507; -142.950; -950.000; -962.000
346.640;  110.775;  -30.000;   13.000
346.774;  -61.900; -650.000; -797.000
346.908;  -40.050; -138.000;  -11.000
347.041; -102.725; -646.000; -593.000
347.175;   -6.625;  259.000;   27.000
347.309;  -77.225; -698.000; -628.000
347.442; -122.800; -883.000; -732.000
347.576;  249.175;  670.000;  668.000
347.709;  161.000; -123.000;  -52.000
347.843; -109.200; -933.000; -825.000
347.976;   25.450;  235.000;  294.000
348.110; -196.725;-1268.000;-1186.000
348.243; -113.975; -679.000; -772.000
348.377;   -5.075;  -26.000;   60.000
348.510;   35.125;  403.000;  540.000
348.644;  -33.975;  -37.000; -159.000
348.777;   -5.525;  180.000;  191.000
348.911;  -43.825; -142.000; -112.000
349.044;  133.500;  471.000;  448.000
349.178;  106.000;-1069.000;-1006.000
349.311;   86.150;  141.000;  255.000
349.444;  -17.500; -927.000; -813.000
349.578;  -32.975; -347.000; -200.000
349.711; -102.750; -959.000; -862.000
349.845;  -30.650; -661.000; -591.000
349.978; -157.500;-1224.000;-1137.000
350.111; -101.475; -546.000; -612.000
350.244;  -90.825; -596.000; -700.000
350.378;  -19.525; -392.000; -393.000
350.511;  -88.150; -393.000; -426.000
350.644; -111.875; -808.000; -806.000
350.778;    8.650;  168.000;  104.000
350.911;   -4.625;  134.000;  140.000
351.044; -102.775; -685.000; -615.000
351.177;  -41.275; -321.000; -281.000
351.310;  -24.975;    3.000; -131.000
351.444;  -82.350; -888.000; -788.000
351.577;   88.950;  140.000;   90.000
351.710;   69.650;  593.000;  417.000
351.843;  -30.300; -165.000;  -77.000
351.976;  -10.725;  149.000;  -79.000
352.109;  -97.275; -621.000; -612.000
352.242;  -49.425; -464.000; -419.000
352.376;  -58.950; -580.000; -636.000
352.509;  121.275; -437.000; -356.000
352.642;  -25.950; -654.000; -604.000
352.775;   43.200; -141.000;  -98.000
352.908; -135.175; -933.000; -904.000
353.041; -121.125; -814.000; -824.000
353.174;  -69.625; -551.000; -424.000
353.307;  -94.825; -753.000; -764.000
353.440;   71.125;  541.000;  453.000
353.573; -127.700; -957.000;-1008.000
353.706;  -65.025; -384.000; -558.000
353.839;  -15.475; -264.000; -220.000
353.971; -106.200; -657.000; -512.000
354.104;  -97.275; -896.000; -835.000
354.237;  -47.050; -627.000; -662.000
354.370;  -99.475; -846.000; -879.000
354.503; -199.875;-1231.000;-1308.000
354.636;  -43.925; -529.000; -348.000
354.769; -140.250; -937.000; -860.000
354.902;  -25.425; -230.000; -139.000
355.034;  -22.075; -164.000; -220.000
355.167;  -39.625; -262.000; -162.000
355.300;  -90.175;-1061.000; -880.000
355.433;  987.650;  -71.000;  -14.000
355.565; 1549.825; -402.000; -384.000
355.698;  387.100; -356.000; -296.000
355.831;  -12.800; -882.000; -801.000
355.964;   56.425; -285.000; -170.000
356.096; -107.475; -856.000; -843.000
356.229;   -8.300; -523.000; -530.000
356.362;  325.600; -373.000; -266.000
356.494;  612.575; -229.000; -162.000
356.627;  404.650;  269.000;  377.000
356.760;  663.600;  120.000;   53.000
356.892; 1001.450; -286.000; -601.000
357.025;  565.100;  403.000;  389.000
357.157;  496.075; -167.000; -179.000
357.290;  718.125; -856.000; -713.000
357.423;  215.350; -667.000; -556.000
357.555;   73.975; -217.000; -228.000
357.688;   94.125; -483.000; -364.000
357.820;  375.250; -870.000; -877.000
357.953; 3331.150; -563.000; -589.000
358.085;  669.725; -632.000; -612.000
358.218;  852.550;-1131.000; -932.000
358.350;  150.375;  -58.000;  312.000
358.483; -146.900;-1300.000;-1187.000
358.615;  -57.525;-1182.000;-1078.000
358.747;  -93.300;-1187.000;-1058.000
358.880;    3.450; -810.000; -744.000
359.012;  -17.675; -376.000; -202.000
359.145;  -53.050; -480.000; -511.000
359.277;   38.475; -962.000; -913.000
359.409; 2696.850;  536.000;  231.000
359.542;  693.100; -738.000; -688.000
359.674;   52.700;   46.000;   13.000
359.806;  -62.325; -565.000; -438.000
359.939;  -46.050; -617.000; -516.000
360.071;   -3.725; -583.000; -579.000
360.203;  -36.425; -411.000; -364.000
360.335;   44.800;  164.000;  -16.000
360.468;  161.150; -249.000; -307.000
360.600; 2240.150; -547.000; -454.000
360.732; 2962.800; -546.000; -423.000
360.864;  400.525;-1216.000;-1044.000
360.996;  201.450; -516.000; -554.000
361.129;   14.750; -389.000; -598.000
361.261;    6.075;  110.000; -113.000
361.393;  -47.525; -252.000; -214.000
361.525;   -2.525;   94.000;  244.000
361.657;  -56.225; -821.000; -703.000
361.789;   -8.550; -139.000; -155.000
361.921;  143.500; -642.000; -593.000
362.053;  214.800;  524.000;  541.000
362.185;   37.075;  288.000;   72.000
362.318;  -89.925; -709.000; -705.000
362.450;  101.850;  294.000;  444.000
362.582;   22.825; -913.000; -870.000
362.714;  -36.125; -353.000; -332.000
362.846; -100.300; -606.000; -490.000
362.978; -142.175; -941.000; -811.000
363.109;   13.050; -161.000; -260.000
363.241;  327.550; -739.000; -749.000
363.373;  439.875; -649.000; -564.000
363.505;  698.425; -186.000;  -91.000
363.637;  137.350; -787.000; -601.000
363.769; -140.125;-1067.000;-1080.000
363.901;  -63.550; -596.000; -654.000
364.033; -138.250;-1103.000;-1062.000
364.165;   -1.200; -283.000; -283.000
364.296;   68.325; -316.000; -177.000
364.428;   62.425;-1344.000;-1220.000
364.560;  -65.750; -679.000; -661.000
364.692;  -76.475; -738.000; -835.000
364.824;  183.925; -588.000; -456.000
364.955;  426.875; -402.000; -564.000
365.087; 1003.625;-1097.000; -852.000
365.219;   17.275; -686.000; -816.000
365.351;  -71.550; -526.000; -572.000
365.482;   30.900;  300.000;  240.000
365.614;  -65.200; -402.000; -314.000
365.746; -115.100; -729.000; -752.000
365.877; -104.700; -706.000; -672.000
366.009;  269.175;  -35.000;  -62.000
366.141;  -88.400;-1249.000;-1134.000
366.272; -123.800; -803.000; -719.000
366.404; -116.675;-1005.000; -874.000
366.535;  -23.000; -139.000;  -12.000
366.667; -101.700; -644.000; -649.000
366.799;   26.375;  353.000;  203.000
366.930; -121.750; -862.000; -996.000
367.062;  111.825; -639.000; -613.000
367.193;  170.975; -872.000; -842.000
367.325;  -64.375; -580.000; -684.000
367.456;   24.150; -246.000;   31.000
367.588;  143.050; -371.000; -318.000
367.719;   21.900;  -44.000;  -45.000
367.851;  -26.575; -222.000; -241.000
367.982;  -80.150; -875.000; -732.000
368.113;   70.300; -475.000; -358.000
368.245; -118.975; -960.000; -841.000
368.376;  -33.975; -254.000; -302.000
368.508;  -39.775; -188.000; -263.000
368.639; -154.850;-1166.000;-1034.000
368.770;  -28.300; -670.000; -589.000
368.902;  -92.075; -836.000; -926.000
369.033; -116.800; -906.000; -855.000
369.164;  -49.500; -720.000; -653.000
369.296; -116.900; -452.000; -601.000
369.427;  -24.450; -209.000; -144.000
369.558;  -67.300; -593.000; -377.000
369.689;  -88.950; -721.000; -569.000
369.821; -142.700; -951.000; -845.000
369.952;  -15.625;   42.000; -108.000
370.083;  -39.450; -229.000; -108.000
370.214;  -91.875; -735.000; -650.000
370.345;  -10.725;   65.000;   81.000
370.477; -113.225; -810.000; -790.000
370.608;  181.925; -328.000; -264.000
370.739;  -74.875;-1233.000;-1292.000
370.870;  -74.700;-1102.000; -923.000
371.001;   54.350; -378.000; -467.000
371.132;  -81.400; -754.000; -735.000
371.263;  -36.075;  -42.000; -148.000
371.394; -149.475; -841.000; -748.000
371.525;   25.325;  345.000;  225.000
371.657;  -96.575; -808.000; -670.000
371.788;   46.700;  103.000;  199.000
371.919;  129.450; -384.000; -304.000
372.050; 3083.650;  -91.000; -156.000
372.181;  910.125; -188.000; -294.000
372.311;  303.700;   42.000; -127.000
372.442;   15.100; -457.000; -451.000
372.573;  -36.450; -444.000; -340.000
372.704; -138.000;-1008.000; -980.000
372.835;   47.025; -228.000; -289.000
372.966;  -72.750; -646.000; -554.000
373.097;  -83.225; -575.000; -711.000
373.228;  -61.800; -717.000; -542.000
373.359;   83.225; -824.000; -536.000
373.490;  749.800; -881.000; -727.000
373.620;  917.600;-1001.000; -803.000
373.751; 1452.575; -332.000; -396.000
373.882;  628.875; -663.000; -733.000
374.013;   23.325; -449.000; -262.000
374.143;  -52.725; -581.000; -659.000
374.274; -115.675; -987.000; -908.000
374.405;  130.475; -388.000; -276.000
374.536;  350.000; -526.000; -387.000
374.666;  887.725; -759.000; -807.000
374.797;  158.025; -817.000; -868.000
374.928;  681.975; -710.000; -560.000
375.058;  688.875; -535.000; -500.000
375.189;   43.900;  -59.000;  -93.000
375.320; -119.200; -928.000;-1034.000
375.450;  -55.375; -625.000; -616.000
375.581;  -53.950; -526.000; -436.000
375.712;  -50.325; -574.000; -250.000
375.842;  226.800; -438.000; -415.000
375.973;  155.075; -554.000; -513.000
376.103;  -65.075; -665.000; -648.000
376.234;  -95.675; -531.000; -552.000
376.364;  -73.775; -944.000; -867.000
376.495;  271.750;  925.000;  529.000
376.625;  -32.450; -472.000; -485.000
376.756;   16.325; -709.000; -678.000
376.886; -109.475;-1178.000;-1026.000
377.017;   60.700;-1048.000;-1061.000
377.147;  360.500; -786.000; -782.000
377.278;   35.500;  174.000;  228.000
377.408; -123.325; -801.000; -815.000
377.538; -117.500; -707.000; -693.000
377.669;  -88.100; -537.000; -613.000
377.799; -106.525; -645.000; -635.000
377.929;  -76.400; -610.000; -428.000
378.060; -141.525; -781.000; -847.000
378.190;  -66.875; -726.000; -531.000
378.320;  -58.250; -401.000; -406.000
378.451;  -21.700; -131.000;  -22.000
378.581;  -23.975;  -67.000; -110.000
378.711;  131.875; 1035.000;  866.000
378.841;  -41.075; -533.000; -675.000
378.972;  -95.600; -871.000; -751.000
379.102;  -28.625; -652.000; -579.000
379.232;  -25.150; -126.000;  -73.000
379.362; -122.525;-1001.000; -885.000
379.492;  -22.825; -373.000; -424.000
379.623;   70.550;    0.000;  111.000
379.753; -117.075;-1107.000; -974.000
379.883;  159.200;   59.000;  156.000
380.013;  -40.275;-1081.000;-1017.000
380.143; -119.275;-1097.000;-1056.000
380.273; -108.775; -985.000; -861.000
380.403;  -16.700; -344.000; -257.000
380.533;  -58.150; -651.000; -664.000
380.663;   37.650;  173.000;  128.000
380.793; -117.500;-1027.000;-1074.000
380.923;  -31.925; -103.000;  -34.000
381.053; -108.150; -613.000; -623.000
381.183;  -55.350; -106.000; -248.000
381.313;   20.675; -656.000; -470.000
381.443;    0.600; -692.000; -473.000
381.573;  123.975; -402.000; -409.000
381.703;  151.825;-1249.000;-1095.000
381.833; -157.925;-1454.000;-1336.000
381.963;   90.150; -134.000;  -87.000
382.093; 1207.925; -925.000; -909.000
382.223;  335.375; -713.000; -602.000
382.353;  -31.150; -801.000; -608.000
382.482;  272.150;-1091.000; -964.000
382.612;  627.900; -872.000; -644.000
382.742;  330.275; -695.000; -622.000
382.872;  194.775; -565.000; -551.000
383.002;   35.050;  347.000; -132.000
383.131;  -23.725; -226.000; -160.000
383.261;  -61.875; -706.000; -768.000
383.391;  272.925; -552.000; -377.000
383.521; 3396.675;  451.000;  263.000
383.650;  786.550; -947.000; -904.000
383.780;  -13.425; -783.000; -656.000
383.910;  113.350;  880.000;  802.000
384.039;  -28.900; -794.000; -656.000
384.169;  123.000;-1205.000;-1017.000
384.299;  -59.250; -650.000; -662.000
384.428;  -90.675; -764.000; -680.000
384.558;  -64.650; -308.000; -275.000
384.687;  -50.425; -414.000; -334.000
384.817;  -14.175;   75.000;   -2.000
384.947;   13.850; -234.000; -141.000
385.076;  256.600;  982.000;  912.000
385.206;   86.350;  369.000;  480.000
385.335;  -60.725; -549.000; -417.000
385.465;  -92.575; -655.000; -663.000
385.594;   92.725;  -53.000;  -44.000
385.724;  317.775; -868.000; -838.000
385.853;   79.850; -296.000; -270.000
385.982; 1131.300; -743.000; -787.000
386.112; 1758.100;-1052.000; -871.000
386.241;   95.175; -307.000; -312.000
386.371;    6.950; -174.000;  -87.000
386.500;  -26.775; -825.000; -789.000
386.629;    4.550; -874.000; -817.000
386.759;   59.825;  -43.000;   68.000
386.888;  -35.750; -170.000; -250.000
387.017; -102.475; -648.000; -620.000
387.147; -110.700; -771.000; -798.000
387.276;  -17.125; -410.000; -397.000
387.405;  -11.500; -398.000; -342.000
387.535;  -56.125; -452.000; -361.000
387.664;  -76.100; -692.000; -620.000
387.793;   34.400; -198.000; -113.000
387.922;  408.875;  255.000;  200.000
388.052;  -13.625; -576.000; -423.000
388.181;  -25.025; -342.000; -472.000
388.310;  -37.075; -889.000; -710.000
388.439;  -87.975; -749.000; -742.000
388.568;  151.150;  365.000;  244.000
388.697;  839.975; -756.000; -653.000
388.826;  160.125; -768.000; -666.000
388.956;   21.925; -285.000; -307.000
389.085;  -48.525; -347.000; -287.000
389.214; -121.900; -842.000; -872.000
389.343;  -67.625; -645.000; -413.000
389.472;  391.375;  126.000;  149.000
389.601;  493.925;   91.000;    0.000
389.730;  -21.425; -568.000; -687.000
389.859;   36.775;  226.000;   46.000
389.988;  115.825; -423.000; -408.000
390.117;  113.025; -168.000; -146.000
390.246;  -31.575; -331.000; -320.000
390.375;   47.175; -673.000; -626.000
390.504;  -86.625; -703.000; -621.000
390.633;  -96.100; -672.000; -726.000
390.761;  -95.500; -732.000; -645.000
390.890;    0.575;   -4.000; -130.000
391.019;  -39.325; -421.000; -441.000
391.148; -144.400; -826.000; -855.000
391.277;  -94.650; -576.000; -493.000
391.406;  -96.475; -821.000; -805.000
391.534;   -1.750;  574.000; -301.000
391.663;  -83.200; -583.000; -645.000
391.792; -110.125; -673.000; -701.000
391.921;   55.450;   -3.000;   15.000
392.050;  115.875; -287.000; -228.000
392.178;  -77.750;-1206.000;-1061.000
392.307;   86.250; -758.000; -712.000
392.436;   34.475; -427.000; -641.000
392.564;    9.900;  166.000;   -6.000
392.693;  -96.000; -860.000; -682.000
392.822;  115.700; -529.000; -534.000
392.950;   43.100; -880.000; -714.000
393.079;  274.850; -188.000; -328.000
393.208;  -12.800; -488.000; -511.000
393.336;  -26.350; -170.000; -145.000
393.465;  -50.325; -317.000; -199.000
393.593;   -6.675;   62.000;   79.000
393.722; -150.600;-1121.000; -916.000
393.850;  -44.425; -188.000;  -61.000
393.979; -152.700; -926.000; -805.000
394.107;  -78.975; -517.000; -537.000
394.236;  -33.650; -570.000; -507.000
394.364;  153.800;  383.000;  206.000
394.493;  201.650; -911.000; -767.000
394.621;  -49.750; -955.000; -916.000
394.750;  751.900; -873.000; -923.000
394.878; 3071.475; -247.000; -149.000
395.007; 4103.475; -721.000; -807.000
395.135;  284.400; -790.000; -721.000
395.263;  -97.100;-1038.000;-1040.000
395.392;  -18.700;  -25.000; -107.000
395.520; -148.450; -818.000; -679.000
395.648; -109.575; -865.000; -915.000
395.777;  -32.350; -366.000; -405.000
395.905;  -68.150; -449.000; -564.000
396.033;   11.250;  217.000;  172.000
396.162;  363.950; -399.000; -453.000
396.290;  332.425;  -17.000;   -2.000
396.418;   46.775; -555.000; -514.000
396.546; -102.100; -571.000; -466.000
396.674; -111.750; -850.000; -878.000
396.803;    0.925;  -72.000;  -23.000
396.931;   45.225; -179.000; -199.000
397.059;   -9.625;-1026.000; -989.000
397.187; -133.050;-1026.000; -975.000
397.315; -147.125; -884.000; -649.000
397.443; -108.600; -592.000; -443.000
397.572; -114.350; -578.000; -424.000
397.700;  -47.925; -607.000; -614.000
397.828;    0.175;  120.000;  -90.000
397.956;  -52.300; -508.000; -478.000
398.084;  -72.025; -767.000; -626.000
398.212;   26.075;  137.000;  124.000
398.340;   -1.650;  -56.000;  159.000
398.468;   -2.575; -390.000; -169.000
398.596; -144.350; -993.000; -953.000
398.724; -125.500; -762.000; -767.000
398.852; -167.025;-1024.000; -976.000
398.980;  -74.400; -560.000; -560.000
399.108;  -81.725; -982.000; -735.000
399.236;    6.475;   13.000;    8.000
399.363;    1.900;  222.000;  196.000
399.491;  -71.175; -404.000; -398.000
399.619; -116.800; -829.000; -800.000
399.747; -117.625; -859.000; -771.000
399.875;   54.925;  220.000;  234.000
400.003;  -74.375; -359.000; -284.000
400.130;  -91.200; -421.000; -341.000
400.258;  -28.975;  -83.000;   38.000
400.386;  -68.650; -352.000; -168.000
400.514;  -75.700; -526.000; -587.000
400.641; -110.725; -928.000; -802.000
400.769; -155.050; -979.000; -888.000
400.897; -128.200; -838.000; -793.000
401.025;  -24.300; -166.000; -152.000
401.152;   -4.750;  220.000;   38.000
401.280;  -80.000; -430.000; -429.000
401.408; -118.625; -712.000; -576.000
401.535; -114.050; -735.000; -758.000
401.663; -205.800;-1134.000;-1054.000
401.790;  -93.600; -514.000; -525.000
401.918;   39.925;  436.000;  405.000
402.046;  -22.500;  134.000;  122.000
402.173;  -32.750;  -18.000;    7.000
402.301;  -87.650; -519.000; -397.000
402.428;   27.225;  528.000;  383.000
402.556; -163.575;-1188.000; -913.000
402.683;  -50.750;  -20.000;   -1.000
402.811;  -34.875;  -37.000; -206.000
402.938;  -23.575;   20.000;   27.000
403.066;  139.850; -574.000; -558.000
403.193;  276.425;  299.000;  239.000
403.321;  193.900; -396.000; -574.000
403.448;  263.500;   83.000;   27.000
403.575;  110.350;  -90.000;  -46.000
403.703; -110.350; -732.000; -557.000
403.830;  -74.175; -531.000; -496.000
403.957; -146.350;-1117.000;-1023.000
404.085;   -5.150;  -61.000; -172.000
404.212;   98.325;  -50.000;   63.000
404.339;  265.300; -566.000; -306.000
404.467; 6111.100; -612.000; -524.000
404.594; 3742.325; -287.000; -227.000
404.721;  791.875; -869.000; -764.000
404.848;   59.550; -113.000; -202.000
404.976; -109.900; -856.000; -783.000
405.103;  -25.025;  -14.000;  -82.000
405.230;   -9.775;  190.000;  226.000
405.357;   12.525;  117.000;   44.000
405.484;  278.600;  -49.000;    5.000
405.612;   22.800; -548.000; -563.000
405.739;  -66.550; -488.000; -243.000
405.866;   68.650;  669.000;  385.000
405.993;  -42.900; -398.000; -102.000
406.120; -138.625; -801.000; -887.000
406.247;  -63.500; -323.000; -342.000
406.374;  344.975;  540.000;  629.000
406.501;   23.000; -632.000; -702.000
406.628;  -97.925; -621.000; -589.000
406.755; -106.450; -803.000; -620.000
406.882;  -51.200; -228.000; -277.000
407.009; -114.400; -719.000; -628.000
407.136;    6.750; -480.000; -401.000
407.263;   44.100; -939.000; -829.000
407.390; -101.150; -692.000; -614.000
407.517; -186.475;-1139.000;-1187.000
407.644;  -66.200; -332.000; -256.000
407.771;  -80.275; -249.000; -287.000
407.898;   -5.400;  168.000;  328.000
408.025;  -79.325; -421.000; -313.000
408.151;  -16.525;   82.000;  153.000
408.278;  -68.475; -267.000; -216.000
408.405; -130.575; -931.000; -899.000
408.532;  -81.925; -549.000; -542.000
408.659; -126.850; -677.000; -648.000
408.785; -201.800;-1298.000;-1170.000
408.912;  -74.125; -412.000; -296.000
409.039; -105.050; -610.000; -686.000
409.166; -121.575; -591.000; -555.000
409.292; -109.525; -571.000; -534.000
409.419; -118.725; -665.000; -649.000
409.546;  -92.525; -431.000; -192.000
409.672; -123.750; -713.000; -545.000
409.799;  -14.225;  -36.000;   34.000
409.926;  -59.550; -180.000; -179.000
410.052; -177.550;-1127.000;-1091.000
410.179;  -77.100; -368.000; -392.000
410.305;  -89.225; -375.000; -493.000
410.432;  -57.950; -220.000; -333.000
410.558;  -90.375; -305.000; -380.000
410.685; -127.675; -688.000; -431.000
410.812; -104.375; -409.000; -588.000
410.938; -159.900; -964.000; -808.000
411.065; -105.775; -671.000; -645.000
411.191;  -33.200; -189.000; -174.000
411.317; -116.450; -823.000; -742.000
411.444;  -68.075; -317.000; -246.000
411.570;  -79.675; -339.000; -294.000
411.697; -147.100; -758.000; -752.000
411.823; -181.100; -989.000; -999.000
411.949;  -56.175;  -56.000;   17.000
412.076; -128.050; -539.000; -519.000
412.202; -140.025; -758.000; -757.000
412.329; -145.500; -798.000; -752.000
412.455; -130.975; -821.000; -657.000
412.581;  -21.400;  -15.000;  172.000
412.707;  -90.975; -540.000; -457.000
412.834;   -6.050;  156.000;  219.000
412.960; -110.825; -785.000; -784.000
413.086; -102.725; -743.000; -701.000
413.212;  113.850;  604.000;  578.000
413.339;  -90.575; -685.000; -701.000
413.465;  -25.550; -364.000; -310.000
413.591; -101.325; -757.000; -474.000
413.717;  -67.375; -358.000; -366.000
413.843; -146.500; -839.000; -861.000
413.969;  -65.825;  -47.000; -292.000
414.096; -115.200; -679.000; -679.000
414.222;  -19.850;  -33.000;   85.000
414.348;  -58.425; -652.000; -385.000
414.474;   51.600;   38.000;  -52.000
414.600;  -13.775; -126.000; -144.000
414.726;  -31.600;  -96.000;  -55.000
414.852;  -65.050; -365.000; -342.000
414.978;   14.225;  104.000;  -18.000
415.104;   35.975;   38.000;   80.000
415.230;   20.775; -329.000; -330.000
415.356;   35.075; -409.000; -514.000
415.482;  186.975;   13.000;  -35.000
415.608;  275.775; -247.000; -323.000
415.734;  979.325;   67.000;   38.000
415.860;20657.300; -875.000; -767.000
415.986;14626.950; -685.000; -607.000
416.111; 1217.400; -798.000; -652.000
416.237;  257.975; -424.000; -571.000
416.363; 1200.475; -765.000; -733.000
416.489; 4345.350; -324.000; -251.000
416.615;  459.200; -707.000; -742.000
416.741;  -29.250; -677.000; -784.000
416.866;  -85.625; -673.000; -736.000
416.992; -138.300; -801.000; -818.000
417.118;  -35.750;  -41.000;  -80.000
417.244;  -84.100; -798.000; -531.000
417.369;  -86.525; -801.000; -612.000
417.495;  -24.425; -325.000; -254.000
417.621;  -95.050;-1015.000; -803.000
417.746;  -13.300; -579.000; -572.000
417.872;   39.875; -254.000; -144.000
417.998;   29.375; -515.000; -530.000
418.123; 1122.950;-1073.000; -845.000
418.249; 5558.400; -512.000; -601.000
418.374;  776.350; -916.000; -824.000
418.500;  105.050; -383.000; -482.000
418.626;  110.425;   70.000;  -59.000
418.751;   98.475; -549.000; -448.000
418.877;  203.725; -637.000; -643.000
419.002; 1904.675; -688.000; -560.000
419.128;13189.725; -930.000; -721.000
419.253; 3113.350; -967.000; -837.000
419.379;  415.125; -391.000; -338.000
419.504;  404.425;  325.000;  415.000
419.629;  527.975; -393.000; -212.000
419.755; 3885.450; -317.000; -254.000
419.880;22463.600;  -98.000;   67.000
420.006;11943.475; -280.000; -221.000
420.131;30374.475; -662.000; -775.000
420.256; 4227.325; -315.000; -316.000
420.382;  545.250; -665.000; -687.000
420.507;   47.475; -649.000; -778.000
420.632;   70.450; -337.000; -339.000
420.758;  170.525; -251.000; -425.000
420.883; -101.350; -876.000; -672.000
421.008; -119.675; -775.000; -619.000
421.133;  -96.225; -509.000; -467.000
421.259;  -58.700; -325.000; -259.000
421.384; -122.275; -834.000; -693.000
421.509;  -69.375;-1052.000; -862.000
421.634;  857.875; -936.000; -820.000
421.759;  341.900; -359.000; -327.000
421.885;  -78.600; -717.000; -656.000
422.010;  -91.425; -673.000; -542.000
422.135; -147.900; -695.000; -727.000
422.260;   34.100;  340.000;  280.000
422.385;  -43.325;   12.000;  -98.000
422.510;  -19.875;  151.000;  -26.000
422.635;   -1.725;  -87.000;  -43.000
422.760;   70.550; -766.000; -791.000
422.885;   44.675;  -57.000;  -80.000
423.010;  -39.225; -112.000; -169.000
423.135; -100.525; -481.000; -561.000
423.260;  -26.600; -150.000; -245.000
423.385;   50.825;  476.000;  222.000
423.510;   12.975;   71.000;  -22.000
423.635;   57.775;  133.000;   45.000
423.760;   30.975;  383.000;  328.000
423.885;   41.000;  336.000;  391.000
424.010;   -3.100;  -68.000;  -13.000
424.135;  -24.150;    5.000;  -33.000
424.259;  -92.450; -654.000; -457.000
424.384;  -57.025; -279.000; -272.000
424.509;  -39.775; -260.000; -186.000
424.634; -101.975; -761.000; -623.000
424.759;  -31.600; -688.000; -544.000
424.883;  -20.850; -506.000; -527.000
425.008;  155.700; -502.000; -410.000
425.133; 2086.550; -679.000; -653.000
425.258;  906.175; -517.000; -381.000
425.382;  915.275; -867.000; -774.000
425.507; 2228.925; -487.000; -543.000
425.632;  383.450; -802.000; -663.000
425.756;  473.850; -256.000; -146.000
425.881; 7192.825; -831.000; -857.000
426.006;19079.925; -604.000; -355.000
426.130; 2863.450; -696.000; -508.000
426.255;  375.300; -611.000; -491.000
426.379;  164.425; -189.000; -577.000
426.504;  384.350;  660.000;  544.000
426.629; 4179.575; -519.000; -466.000
426.753; 2787.675;   64.000;  -46.000
426.878;  327.875; -252.000; -288.000
427.002;  169.900; -651.000; -668.000
427.127; 1671.925;  -35.000; -158.000
427.251;11955.525;  372.000;  401.000
427.375; 3286.475; -191.000; -173.000
427.500; 2038.775; -616.000; -610.000
427.624;  650.075; -234.000; -400.000
427.749;   66.525; -216.000; -225.000
427.873;  -49.850; -499.000; -412.000
427.997;  -60.025; -222.000; -230.000
428.122;   66.375;  795.000;  703.000
428.246;   60.975;  433.000;  434.000
428.371; -138.575; -869.000; -773.000
428.495; -116.275; -624.000; -646.000
428.619;  -43.250; -186.000; -117.000
428.743;    3.525;   65.000;  132.000
428.868;   -9.750; -732.000; -643.000
428.992; 1215.625; -219.000; -326.000
429.116;  454.350; -329.000; -357.000
429.240;  203.700;  419.000;  426.000
429.365;  -40.225; -454.000; -574.000
429.489;  -63.850; -638.000; -647.000
429.613;   15.425; -236.000; -177.000
429.737;   40.175; -563.000; -432.000
429.861;  270.850; -247.000; -133.000
429.985; 5803.950; -425.000; -305.000
430.109; 6291.825; -770.000; -908.000
430.234;  684.100;   76.000;  -50.000
430.358;   64.500; -250.000; -160.000
430.482;  -91.650; -672.000; -564.000
430.606;  -62.975; -655.000; -375.000
430.730;  -26.400; -437.000; -388.000
430.854;   39.350; -909.000; -835.000
430.978; -101.625; -795.000; -764.000
431.102;  -96.450; -499.000; -422.000
431.226; -146.100; -874.000; -815.000
431.350;   18.325;  345.000;  422.000
431.474;  -85.000; -661.000; -373.000
431.597; -160.075;-1060.000; -848.000
431.721;  -76.825; -276.000; -267.000
431.845; -125.325; -704.000; -472.000
431.969;  -82.350; -304.000; -349.000
432.093;  -89.700; -395.000; -317.000
432.217;  -20.650;   32.000;   82.000
432.341;  -94.625; -523.000; -518.000
432.464;  -11.800;   96.000;   40.000
432.588;  105.050; -401.000; -329.000
432.712;   62.175;  -52.000;  -52.000
432.836;   45.950;  213.000;  263.000
432.959;  -25.250; -372.000; -311.000
433.083;   99.500;   11.000;    2.000
433.207;  385.525;  285.000;  930.000
433.330; 5356.775; -391.000; -200.000
433.454; 6479.300; -654.000; -638.000
433.578; 3734.750;  583.000;  278.000
433.701;  650.750; -623.000; -675.000
433.825;  104.950; -292.000; -299.000
433.949;  109.750;   28.000;  -72.000
434.072;   13.400; -410.000; -323.000
434.196;  -35.000; -309.000; -117.000
434.319; 3680.525;25482.000;25124.000
434.443;  719.400; -656.000; -603.000
434.566; 2780.725;  281.000;   62.000
434.690;  434.725; -637.000; -383.000
434.813;   54.325; -251.000; -173.000
434.937;  -82.325; -569.000; -696.000
435.060;  -46.675; -423.000; -332.000
435.184;  194.200; -492.000; -217.000
435.307;  102.050;  159.000;  102.000
435.431;  -23.250;  -40.000;   24.000
435.554;  -89.700; -399.000; -240.000
435.677;  -79.300; -350.000; -258.000
435.801;  -41.575;  -25.000;   49.000
435.924;  -32.325;    1.000;  -67.000
436.048; -146.825;-1019.000; -732.000
436.171;  -92.150; -240.000;  -66.000
436.294;  -32.375; -248.000; -229.000
436.417;   86.925; -963.000; -849.000
436.541; -105.000; -814.000; -840.000
436.664;  -65.000; -242.000; -316.000
436.787;  -33.950;   13.000;  113.000
436.910; -125.550; -792.000; -422.000
437.034;  -14.575;  142.000;  143.000
437.157;   20.100;  -11.000;    0.000
437.280;  -70.325; -392.000; -292.000
437.403; -118.500; -982.000; -869.000
437.526;  428.625; -903.000; -865.000
437.649; 1639.700; -505.000; -332.000
437.772;  183.650; -692.000; -540.000
437.896;   90.225;  700.000;  544.000
438.019; -106.025; -758.000; -503.000
438.142; -111.825; -596.000; -506.000
438.265;  -41.450; -639.000; -670.000
438.388;  384.250; -520.000; -410.000
438.511;   37.725; -597.000; -394.000
438.634;  -56.525; -247.000; -125.000
438.757; -141.675; -693.000; -619.000
438.880;  -40.625;  -34.000;  -57.000
439.003;  -97.100; -417.000; -437.000
439.126;  -73.700; -287.000; -167.000
439.248;  -60.300;  -98.000; -139.000
439.371;  -55.825;    9.000;  -53.000
439.494;   29.625;  510.000;  439.000
439.617;  -68.350;   65.000;  -88.000
439.740; -179.875; -968.000; -816.000
439.863; -148.950; -755.000; -595.000
439.986; -122.125; -476.000; -431.000
440.108;  -63.875; -161.000; -112.000
440.231; -166.975; -950.000; -836.000
440.354;  -50.775;  -64.000; -150.000
440.477;   -8.000; -566.000; -542.000
440.599;  -40.100; -200.000; -225.000
440.722; -128.425; -709.000; -586.000
440.845;   61.575;  751.000;  928.000
440.968; -110.875; -415.000; -311.000
441.090;  -85.125; -199.000;  -33.000
441.213; -173.850;-1021.000; -825.000
441.336;  -59.125; -159.000;   -5.000
441.458;  -81.525; -549.000; -396.000
441.581; -104.650; -628.000; -629.000
441.703;  -82.025; -152.000;   13.000
441.826; -126.625; -557.000; -400.000
441.948;  -55.625;   56.000;   51.000
442.071;   26.975;  555.000;  424.000
442.193; -129.775; -531.000; -485.000
442.316;    2.550;  152.000;   97.000
442.438;   38.500; -233.000;  -10.000
442.561;   47.475;  272.000;  262.000
442.683;  370.575; -809.000; -522.000
442.806;  848.100;   -8.000;   74.000
442.928;  -23.325; -859.000; -604.000
443.051;  -84.900; -577.000; -373.000
443.173;  -91.275; -341.000; -339.000
443.295; -100.425; -263.000; -371.000
443.418;  -75.950; -321.000;  -29.000
443.540;  -24.075; -106.000;   -4.000
443.662; -130.625; -563.000; -465.000
443.785;  -25.150;  335.000;  199.000
443.907; -111.375; -362.000; -208.000
444.029; -135.200; -767.000; -494.000
444.152; -144.650; -644.000; -554.000
444.274;  -42.250;  -18.000;  -24.000
444.396; -106.350; -461.000; -221.000
444.518; -138.900; -691.000; -454.000
444.640; -114.475; -268.000; -111.000
444.763;  -35.550;  388.000;  249.000
444.885; -121.550; -432.000; -392.000
445.007;  -39.175;   35.000;   86.000
445.129; -122.625; -610.000; -515.000
445.251; -108.850; -372.000; -439.000
445.373; -144.325; -537.000; -386.000
445.495;  -13.900;  242.000;  350.000
445.617;   53.600;  853.000;  753.000
445.739;  -83.875; -215.000;  -97.000
445.861;  -40.675; -245.000; -112.000
445.984;  -56.300; -267.000; -101.000
446.105;  134.800; -418.000; -251.000
446.227;  451.250; -176.000;  -19.000
446.349;  -23.250; -358.000; -249.000
446.471; -111.000; -615.000; -448.000
446.593;  -66.650; -316.000;   19.000
446.715;  -28.125;  -67.000;   41.000
446.837;   56.600;  697.000;  832.000
446.959; -101.675; -457.000; -478.000
447.081; -143.650; -628.000; -518.000
447.203;   31.000;  862.000;  834.000
447.325;  -95.475; -270.000;   42.000
447.446;  -11.700;  286.000;  530.000
447.568; -160.700; -921.000; -803.000
447.690;  -96.600; -236.000; -245.000
447.812; -158.075; -798.000; -519.000
447.933;  -33.550;  155.000;  127.000
448.055;  -75.200; -306.000; -261.000
448.177;  104.275;   31.000;   79.000
448.299;   20.400; -935.000; -727.000
448.420;   -1.450;  -25.000;  159.000
448.542;  -47.575;   -3.000;   33.000
448.664;  -31.250;  109.000;  322.000
448.785;  -45.925;  265.000;   83.000
448.907;  -94.525; -614.000; -353.000
449.028;  -62.500; -771.000; -471.000
449.150;   46.850;  492.000;  589.000
449.272; -193.550;-1044.000; -913.000
449.393;   17.425;  612.000;  694.000
449.515; -141.200; -634.000; -581.000
449.636;  -66.575; -264.000; -155.000
449.758;   65.575;  763.000;  622.000
449.879; -102.600; -498.000; -396.000
450.001;  -84.850; -149.000;  -49.000
450.122;  -49.100;  -95.000;  162.000
450.244;  -32.200;   37.000;  364.000
450.365; -105.175; -495.000; -301.000
450.486;  -26.125;   80.000;  268.000
450.608;   24.750;  393.000;  326.000
450.729;   57.800;  578.000;  645.000
450.850;   -3.350; -574.000; -466.000
450.972;  828.350; -552.000; -389.000
451.093; 5257.500;  190.000;  588.000
451.214; 2234.950; -516.000; -337.000
451.336;  378.700;  773.000;  579.000
451.457;   63.975;  264.000;  393.000
451.578;  -47.750; -118.000;  -74.000
451.699; -122.250; -546.000; -540.000
451.821;  -74.625; -284.000;  -50.000
451.942;   15.425;  278.000;  285.000
452.063;   27.275;  228.000;  419.000
452.184;  601.600;  -54.000;  -49.000
452.305; 1122.475;  103.000;  170.000
452.427;  134.750; -549.000; -301.000
452.548;  -16.500;   23.000;   79.000
452.669;  -65.225; -257.000;  -89.000
452.790;  -62.075;    3.000;  -18.000
452.911;   -9.350;  195.000;  259.000
453.032;  -93.225; -289.000;  -60.000
453.153;  -51.975;  -29.000;   81.000
453.274;   47.350;  737.000;  868.000
453.395;  -59.275;  -51.000;  175.000
453.516;   71.225; 1317.000; 1388.000
453.637;  -88.900; -205.000; -150.000
453.758;  -81.800;   15.000;   69.000
453.879; -134.900; -462.000; -250.000
454.000;   68.250; 1086.000;  948.000
454.121; -117.525; -554.000; -326.000
454.242; -125.550; -599.000; -383.000
454.362;  -74.550;  -99.000;  114.000
454.483;  -55.000; -309.000; -229.000
454.604;   44.425;  512.000;  580.000
454.725; -142.975; -627.000; -555.000
454.846; -130.575; -474.000; -406.000
454.967;  -31.950;  230.000;  539.000
455.087;  -36.175;  179.000;  153.000
455.208;    4.700;  554.000;  856.000
455.329;  -68.350;  -22.000;   82.000
455.450;   33.425;  473.000;  633.000
455.570;  -89.800; -234.000; -211.000
455.691;  -46.050;  201.000;  407.000
455.812; -102.500; -270.000;  -92.000
455.932;  -60.800;  107.000;  -97.000
456.053;  -92.200;   36.000;   24.000
456.173; -125.750; -433.000; -355.000
456.294; -152.250; -476.000; -303.000
456.415;  -59.375;  -73.000;   70.000
456.535;  -41.325;  297.000;  273.000
456.656;  -62.800;  132.000;  240.000
456.776;  -71.125;    3.000;  298.000
456.897;  -17.150;  308.000;  513.000
457.017;  -73.450; -153.000;   -3.000
457.138; -118.425; -402.000; -249.000
457.258;  -23.325;  263.000;  224.000
457.379;  -13.575;  509.000;  521.000
457.499;  -38.225;  443.000;  432.000
457.620; -127.775; -407.000; -231.000
457.740;  -94.750; -132.000;  -11.000
457.860;  -58.625;   87.000;   44.000
457.981;  -52.100;  132.000;  124.000
458.101;  -77.900;  -89.000;   40.000
458.221;  -22.850;  336.000;  402.000
458.342;  -81.650;   -4.000;  -37.000
458.462;   39.075;  617.000;  352.000
458.582;  -35.250; -302.000; -294.000
458.703;   17.450;  303.000;  154.000
458.823;  -40.500;   22.000;  163.000
458.943;   21.850;  341.000;  467.000
459.063;  -28.625; 1124.000;  192.000
459.183;  -29.375;  328.000;  313.000
459.304;   -3.500;  315.000;  517.000
459.424;  -76.150; -246.000;  -89.000
459.544;  341.525;  388.000;  764.000
459.664;  871.000;  499.000;  506.000
459.784;  314.350; 1004.000; 1175.000
459.904;   38.775;  867.000;  744.000
460.024;   47.175;  867.000;  684.000
460.144;    3.500;  449.000;  554.000
460.264;  -22.200;  515.000;  327.000
460.385;  -97.725; -145.000; -119.000
460.505;   25.550;  905.000;  858.000
460.625;  -95.675;  -17.000;  -68.000
460.745;  -29.000;  396.000;  541.000
460.864;  -59.875;  153.000;  469.000
460.984;    8.950;  499.000;  573.000
461.104;  144.775; 1656.000; 1775.000
461.224;   13.800;  657.000;  650.000
461.344;  -24.900;  431.000;  360.000
461.464;  -52.175;  258.000;  513.000
461.584;  -31.350;  283.000;  466.000
461.704;  -72.525;   58.000;  108.000
461.824;  -67.125;  238.000;  259.000
461.943;  -62.100;  191.000;  130.000
462.063;  -73.025;    2.000;  324.000
462.183;   25.600;  639.000;  717.000
462.303;   95.350; 1678.000; 1230.000
462.422;   28.900;  781.000;  840.000
462.542;  -52.950;  271.000;  391.000
462.662;   17.525;  353.000;  380.000
462.782;  252.500;  833.000;  572.000
462.901;  495.225;  545.000;  717.000
463.021;  276.600; 1702.000; 1638.000
463.141;  -25.050;  337.000;  770.000
463.260;  -14.325;  614.000;  474.000
463.380;    0.175;  902.000;  884.000
463.499;  -31.775;  342.000;  332.000
463.619;  -46.725;  581.000;  559.000
463.738;  104.725; 1644.000;  903.000
463.858;   10.775;  657.000;  811.000
463.978;  -27.950;  542.000;  396.000
464.097;   33.850;  921.000; 1114.000
464.217;  108.300; 1196.000; 1143.000
464.336;  112.575; 1068.000; 1130.000
464.455;  -33.000;  328.000;  659.000
464.575;   19.750;  597.000;  602.000
464.694;  166.600; 1204.000; 1179.000
464.814;  114.275; 1190.000; 1138.000
464.933;   70.950; 1095.000; 1027.000
465.052;   93.025; 1412.000; 1054.000
465.172;   80.450;  922.000;  799.000
465.291;  128.875; 1376.000; 1320.000
465.410;    2.900;  462.000;  735.000
465.530;   67.475; 1355.000; 1310.000
465.649;   76.175; 1209.000; 1273.000
465.768;  118.850; 1673.000; 1508.000
465.888;   49.950;  941.000; 1174.000
466.007;   80.225; 1335.000; 1440.000
466.126;   -4.675;  721.000;  641.000
466.245;   35.000; 1176.000; 1187.000
466.364;   25.000;  950.000; 1060.000
466.484;   39.300; 1024.000; 1213.000
466.603;   41.275; 1101.000; 1222.000
466.722;  103.175; 1490.000; 1769.000
466.841;   70.725; 1151.000; 1401.000
466.960;   15.475; 1069.000;  972.000
467.079;  121.750; 1971.000; 1786.000
467.198;   46.050; 1238.000; 1181.000
467.317;   72.075; 1768.000; 1162.000
467.436;   62.225; 1709.000; 1261.000
467.555;  127.200; 1796.000; 1746.000
467.674;   55.425; 1227.000; 1329.000
467.793;   46.775; 1376.000; 1374.000
467.912;   80.325; 1658.000; 1539.000
468.031;  132.525; 2038.000; 1930.000
468.150;  131.675; 1842.000; 1837.000
468.269;  199.150; 2313.000; 2090.000
468.388;  188.350; 2168.000; 2339.000
468.507;  243.925; 2884.000; 2903.000
468.626;  211.900; 2555.000; 2541.000
468.744;  144.925; 2018.000; 2174.000
468.863;  199.750; 2312.000; 2523.000
468.982;   96.675; 1503.000; 1555.000
469.101;  214.525; 2788.000; 2692.000
469.220;  152.625; 2333.000; 2176.000
469.338;  237.225; 2935.000; 3051.000
469.457;  198.825; 2719.000; 2545.000
469.576;  342.050; 3953.000; 3784.000
469.695;  234.025; 2877.000; 3066.000
469.813;  419.325; 4148.000; 4192.000
469.932;  430.250; 4255.000; 4485.000
470.051;  438.625; 4075.000; 4161.000
470.169;  889.600; 4470.000; 4338.000
470.288; 1509.350; 4700.000; 4809.000
470.406;  861.400; 5059.000; 5194.000
470.525;  630.725; 6101.000; 5787.000
470.644;  658.000; 6847.000; 6794.000
470.762;  820.450; 8397.000; 7873.000
470.881;  914.475; 8651.000; 8464.000
470.999; 1039.875; 9685.000; 9151.000
471.118; 1124.950;11174.000;10711.000

