
Integration time [ms]: 200.000
Averaging Nr. [scans]: 10
Smoothing Nr. [pixels]: 0
Data measured with spectrometer [name]: 2101012U2
Wave   ;Sample   ;Dark     ;Reference
[nm]   ;[counts] ;[counts] ;[counts] 

197.733;  115.200;  516.000;  404.000
197.879; -170.500; -610.000; -634.000
198.025; -108.800; -475.000; -420.000
198.171; -142.700; -602.000; -612.000
198.317;  -76.200; -401.000; -316.000
198.463; -129.800; -655.000; -404.000
198.609;   56.800;  181.000; -137.000
198.755; -137.300; -644.000; -410.000
198.901; -154.200; -505.000; -424.000
199.047; -132.100; -615.000; -488.000
199.193;  -77.300; -230.000; -468.000
199.339; -103.300; -222.000; -369.000
199.485;  103.200;  330.000;  271.000
199.631;   24.700;  227.000;  310.000
199.777; -126.500; -466.000; -398.000
199.923; -147.700; -610.000; -424.000
200.069;   -5.800; -141.000;  -58.000
200.215;   98.000;  128.000;  453.000
200.361;   84.500;  243.000;  477.000
200.507; -130.900; -600.000; -373.000
200.653;  -28.200; -371.000; -194.000
200.798;  -72.000; -215.000; -125.000
200.944;  -18.100; -146.000;  -41.000
201.090;   92.700;   61.000;  222.000
201.236;   -4.200; -116.000; -158.000
201.382;  279.200;  874.000;  903.000
201.528;    3.200;  -58.000;  -48.000
201.674;  -84.500; -386.000; -293.000
201.819; -135.200; -540.000; -439.000
201.965; -153.200; -699.000; -447.000
202.111;  -68.500; -273.000; -226.000
202.257;  -90.200; -250.000; -238.000
202.402;   16.500;   13.000;  -36.000
202.548;  -44.400; -169.000; -116.000
202.694;  153.400;  410.000; -183.000
202.840; -117.900; -603.000; -531.000
202.985; -153.100; -681.000; -639.000
203.131; -239.200; -832.000; -666.000
203.277;  -85.400; -199.000; -262.000
203.423;  -89.800; -434.000; -520.000
203.568;  -70.500; -462.000; -237.000
203.714; -123.000; -535.000; -542.000
203.860; -194.500; -682.000; -641.000
204.005;   12.400;  112.000;  167.000
204.151;  136.100;  561.000;  556.000
204.296;  -62.200; -354.000; -221.000
204.442; -135.900; -600.000; -547.000
204.588; -127.000; -592.000; -579.000
204.733;   57.600;  178.000;  168.000
204.879; -266.200;-1018.000; -822.000
205.025;   23.100;  -99.000;  126.000
205.170;   26.300;  -17.000;   94.000
205.316;  170.100;  438.000;  661.000
205.461; -139.900; -698.000; -554.000
205.607;  179.000;  609.000;  665.000
205.752; -165.200; -626.000; -551.000
205.898; -112.900; -501.000; -391.000
206.043; -121.500; -578.000; -506.000
206.189;  -75.400; -243.000; -285.000
206.334;  205.500;  554.000;  606.000
206.480;  189.200;  409.000;  239.000
206.625; -185.200; -529.000; -552.000
206.771; -101.200; -451.000; -373.000
206.916;  -75.900; -210.000; -537.000
207.062; -156.600; -545.000; -591.000
207.207; -126.600; -546.000; -443.000
207.353;  118.600;  185.000;  460.000
207.498;   49.200;  196.000;   85.000
207.643; -111.800; -501.000; -370.000
207.789; -233.000;-1069.000; -910.000
207.934; -209.100; -665.000; -713.000
208.080;  -28.000; -154.000;   66.000
208.225;  -41.800;  -22.000;  -57.000
208.370; -149.800; -727.000; -619.000
208.516; -162.800; -741.000; -487.000
208.661;  -29.500; -127.000;  -69.000
208.806;  -65.800; -165.000; -171.000
208.952; -266.200;-1044.000; -731.000
209.097;  179.300;  378.000;  349.000
209.242;  -77.000; -307.000; -382.000
209.387;  142.500;  392.000;  350.000
209.533;  -91.100; -321.000; -350.000
209.678;  166.800;  472.000;  543.000
209.823; -133.700; -408.000; -310.000
209.969; -208.800; -860.000; -757.000
210.114; -222.200; -907.000; -719.000
210.259; -235.500; -939.000; -889.000
210.404;   15.300; -171.000;  103.000
210.549;   28.800;  108.000;    3.000
210.695;  -14.500;   -3.000;  -95.000
210.840;   77.900;   94.000;   67.000
210.985; -139.300; -484.000; -303.000
211.130;  165.200;  268.000;  406.000
211.275;   51.300;  207.000;  199.000
211.420; -116.900; -300.000; -289.000
211.566; -136.400; -536.000; -489.000
211.711;   25.700;  218.000;  157.000
211.856; -118.400; -545.000; -519.000
212.001;   30.100;  151.000;   44.000
212.146;   26.300;  153.000;   49.000
212.291;  -47.700; -210.000; -186.000
212.436;  -32.100; -280.000;   -6.000
212.581; -182.600; -685.000; -653.000
212.726; -136.500; -487.000; -538.000
212.871;  -94.700; -552.000; -217.000
213.016; -288.100;-1172.000;-1029.000
213.161;  151.000;  406.000;  291.000
213.306; -144.700; -435.000; -577.000
213.451; -188.500; -778.000; -689.000
213.596;  -57.800; -455.000; -347.000
213.741; -124.100; -448.000; -538.000
213.886; -160.500; -498.000; -517.000
214.031;  -53.900; -294.000; -124.000
214.176; -115.600; -408.000; -341.000
214.321;  -43.400; -296.000; -157.000
214.466;  -23.500; -163.000;  -43.000
214.611;   -4.900;  -61.000;  -10.000
214.756; -239.700; -948.000; -858.000
214.901;    5.500; -388.000; -226.000
215.046; -236.600; -797.000; -825.000
215.191;   44.000;  128.000;   35.000
215.336;  -40.900; -157.000;  -19.000
215.480; -167.600; -684.000; -505.000
215.625;  -19.100; -175.000;  -19.000
215.770; -176.800; -757.000; -662.000
215.915;  -10.100;   -5.000;  -97.000
216.060;   -1.100; -113.000;  -21.000
216.205; -225.200; -731.000; -779.000
216.349; -137.400; -470.000; -533.000
216.494; -273.500; -939.000; -867.000
216.639; -243.700; -823.000; -888.000
216.784; -160.300; -577.000; -525.000
216.929;  124.700;  392.000;  281.000
217.073;    0.700; -244.000;  -31.000
217.218;    5.400;   78.000;  -47.000
217.363; -179.600; -656.000; -618.000
217.507; -176.400; -623.000; -588.000
217.652; -237.900; -845.000; -874.000
217.797; -188.000; -708.000; -659.000
217.942; -214.000; -856.000; -720.000
218.086;  168.100;  608.000;  539.000
218.231;  -23.400; -174.000;  -26.000
218.376;  -63.800; -337.000; -229.000
218.520;   25.500;  -41.000;   96.000
218.665;  -82.300; -338.000; -204.000
218.810;  -50.000; -275.000; -233.000
218.954;   52.200;  201.000;   35.000
219.099; -212.600; -713.000; -963.000
219.243; -136.900; -589.000; -554.000
219.388;  -16.300; -264.000; -136.000
219.532;  -27.400; -116.000; -116.000
219.677; -148.300; -564.000; -521.000
219.822;    5.200;   33.000;   89.000
219.966;   26.000;   17.000;  -99.000
220.111;  -77.900; -328.000;  -40.000
220.255; -180.300; -797.000; -750.000
220.400;  -37.200; -180.000; -146.000
220.544; -122.000; -516.000; -450.000
220.689; -116.800; -422.000; -451.000
220.833;  -38.600; -123.000;  -58.000
220.978; -103.700; -393.000; -563.000
221.122;   79.500;  319.000;  307.000
221.267; -221.100; -906.000; -837.000
221.411; -105.500; -478.000; -394.000
221.555;    4.300; -104.000;  -23.000
221.700; -120.700; -329.000; -222.000
221.844;   57.000;  255.000;  272.000
221.989;  -71.700; -328.000; -311.000
222.133;  -66.400; -289.000; -307.000
222.277;  -36.200;    5.000;   78.000
222.422;   33.200;  227.000;  113.000
222.566;  -47.400; -381.000; -214.000
222.711;  -98.500; -414.000; -479.000
222.855; -147.500; -643.000; -586.000
222.999; -176.200; -642.000; -717.000
223.144;  -46.900; -195.000; -194.000
223.288;  129.900;  423.000;  251.000
223.432;   67.800;  184.000;  230.000
223.576;   22.100;  152.000;  -21.000
223.721;   81.200;  364.000;  273.000
223.865; -120.600; -472.000; -475.000
224.009;  474.500; 1673.000; 1631.000
224.153; -147.800; -660.000; -671.000
224.298; -118.200; -531.000; -489.000
224.442;  -37.000;  -74.000;  -33.000
224.586;    8.700; -169.000; -106.000
224.730; -223.700; -858.000; -670.000
224.875; -185.300; -739.000; -688.000
225.019;   54.400;  102.000;  188.000
225.163;  134.700;  208.000;  341.000
225.307;   33.800;   97.000;  -91.000
225.451;  110.300;  360.000;  481.000
225.595;   53.800;  264.000;  176.000
225.739;  -28.700; -170.000;  -94.000
225.884;   43.600;   86.000;    5.000
226.028; -187.200; -760.000; -626.000
226.172;  -93.500; -260.000; -273.000
226.316; -237.100; -941.000; -902.000
226.460; -139.700; -645.000; -493.000
226.604;  -76.500; -406.000; -400.000
226.748; -213.300; -836.000; -733.000
226.892;  -27.200; -227.000; -181.000
227.036;  -92.100; -537.000; -447.000
227.180;  -93.900; -551.000; -375.000
227.324; -120.500; -561.000; -580.000
227.468; -216.500; -819.000; -717.000
227.612;   22.800;  242.000;  -28.000
227.756; -217.200; -845.000; -698.000
227.900;  101.200;  342.000;  441.000
228.044; -107.200; -509.000; -290.000
228.188;  139.600;  448.000;  568.000
228.332; -167.700; -546.000; -472.000
228.476;  -51.200; -223.000; -149.000
228.620;  -28.400; -210.000; -150.000
228.764;  140.400;  431.000;  349.000
228.908;  -34.400; -155.000;   30.000
229.052; -135.400; -615.000; -528.000
229.195;  -18.500; -172.000;   13.000
229.339;  -55.300; -235.000; -305.000
229.483;  -22.600;    5.000; -162.000
229.627;    2.200; -156.000;  139.000
229.771;  -51.300; -218.000; -294.000
229.915;   32.500;  230.000;   79.000
230.059; -182.000; -648.000; -663.000
230.202;  -77.700; -370.000; -317.000
230.346;  -34.900; -107.000;  107.000
230.490; -113.800; -489.000; -521.000
230.634; -206.500; -736.000; -553.000
230.777;  153.400;  478.000;  509.000
230.921; -123.400; -450.000; -359.000
231.065; -126.400; -246.000; -286.000
231.209;   79.100;  261.000;  265.000
231.352;   37.300;   54.000;   40.000
231.496;   75.200;  568.000;  188.000
231.640; -167.900; -693.000; -621.000
231.783;  131.700;  546.000;  525.000
231.927; -112.800; -294.000; -365.000
232.071; -237.700; -962.000; -736.000
232.214; -214.100; -980.000; -764.000
232.358; -183.200; -683.000; -599.000
232.502;   29.600;  -19.000;    7.000
232.645; -235.500;-1090.000; -927.000
232.789;  -52.400; -257.000; -218.000
232.933;  -82.900; -407.000; -224.000
233.076; -261.800;-1038.000; -897.000
233.220; -182.900; -752.000; -777.000
233.363; -172.300; -669.000; -477.000
233.507;  132.900;  371.000;  129.000
233.650; -203.300; -764.000; -834.000
233.794;  100.300;  438.000;  461.000
233.938; -115.200; -530.000; -362.000
234.081;  -27.500;  -93.000;   31.000
234.225; -152.400; -631.000; -539.000
234.368; -220.600; -773.000; -723.000
234.512;  -56.600; -385.000; -299.000
234.655; -152.300; -582.000; -555.000
234.798; -127.100; -493.000; -466.000
234.942; -256.300; -884.000;-1002.000
235.085; -151.300; -651.000; -443.000
235.229; -138.100; -405.000; -410.000
235.372;  -92.500; -247.000; -191.000
235.516;  -91.300; -397.000; -321.000
235.659;   45.400;   92.000;  121.000
235.802;  -24.700;  -38.000;  -22.000
235.946;   57.700;  335.000;  215.000
236.089;   76.800;  126.000;  250.000
236.233;   97.000;  275.000;  298.000
236.376;  -80.800; -235.000; -378.000
236.519; -104.100; -297.000; -319.000
236.663;    5.000; -215.000; -117.000
236.806; -276.300;-1029.000; -999.000
236.949;  153.100;  543.000;  431.000
237.092;  153.200;  412.000;  391.000
237.236; -184.300; -589.000; -502.000
237.379;  147.000;  352.000;  428.000
237.522; -205.900; -879.000; -768.000
237.666;  -37.800; -271.000;   18.000
237.809; -233.400; -851.000; -823.000
237.952;   69.000;  469.000;  271.000
238.095; -122.000; -447.000; -442.000
238.238;  187.500;  688.000;  700.000
238.382;   39.500;  166.000;  103.000
238.525; -143.100; -598.000; -511.000
238.668; -271.900;-1060.000; -985.000
238.811; -156.000; -638.000; -643.000
238.954; -106.900; -483.000; -334.000
239.097;  235.300;  617.000;  664.000
239.241;   87.500;  394.000;  326.000
239.384;  -45.400; -254.000; -214.000
239.527;  -83.600; -424.000; -224.000
239.670; -276.800; -994.000;-1091.000
239.813; -223.500; -696.000; -658.000
239.956;  179.200;  579.000;  473.000
240.099; -205.100; -778.000; -725.000
240.242;  157.700;  428.000;  432.000
240.385;  108.900;  466.000;  450.000
240.528; -127.200; -706.000; -473.000
240.671;   77.600;  189.000;  134.000
240.814;  -87.800; -441.000; -158.000
240.957; -160.300; -767.000; -578.000
241.100; -232.000; -779.000; -755.000
241.243; -299.900;-1234.000; -893.000
241.386; -135.400; -508.000; -379.000
241.529; -156.000; -735.000; -547.000
241.672; -125.000; -566.000; -495.000
241.815; -221.500; -832.000; -808.000
241.958;  -58.000; -125.000; -182.000
242.101; -144.900; -545.000; -390.000
242.244;  -87.700; -270.000; -325.000
242.387;  -66.000; -304.000; -246.000
242.530;  141.200;  470.000;  134.000
242.673;  -96.400; -381.000; -309.000
242.815; -252.600; -925.000; -899.000
242.958; -119.600; -482.000; -381.000
243.101;   44.100;  132.000;  187.000
243.244; -163.200; -564.000; -521.000
243.387;  -74.900; -313.000; -316.000
243.530; -208.400; -657.000; -674.000
243.672;    9.400;   43.000;  -92.000
243.815;  -61.600; -355.000; -283.000
243.958;   12.400;   98.000;  -26.000
244.101;   34.800;   59.000;  -16.000
244.243;  -27.700;  -47.000;  101.000
244.386; -187.200; -761.000; -630.000
244.529;  -26.400; -132.000; -139.000
244.672; -295.100;-1154.000; -951.000
244.814; -213.000; -621.000; -794.000
244.957; -102.200; -380.000; -304.000
245.100; -142.100; -489.000; -489.000
245.242; -110.000; -387.000; -374.000
245.385;   27.700;  -59.000;  -39.000
245.528; -210.300; -871.000; -705.000
245.670;  222.800;  612.000;  634.000
245.813; -186.200; -599.000; -547.000
245.956;  -40.100; -324.000; -275.000
246.098; -122.500; -508.000; -650.000
246.241;   25.200;  194.000;   48.000
246.383;  -24.500; -119.000;  -73.000
246.526; -164.000; -454.000; -525.000
246.669; -224.600; -889.000; -780.000
246.811;   43.100;  172.000;   -1.000
246.954; -125.000; -512.000; -426.000
247.096;  -33.900;  -84.000;   -6.000
247.239; -113.900; -482.000; -445.000
247.381; -133.200; -647.000; -488.000
247.524;  213.500;  645.000;  679.000
247.666;   -9.700;   58.000;   11.000
247.809; -229.700; -887.000; -691.000
247.951;  -54.100;  -75.000;  138.000
248.094;   75.900;  432.000;  308.000
248.236; -304.100;-1262.000;-1238.000
248.378;   11.900; -356.000;  -81.000
248.521;  -45.600; -334.000; -337.000
248.663;  -56.900; -236.000; -267.000
248.806;  -55.500; -300.000; -266.000
248.948; -181.200; -886.000; -763.000
249.090; -107.100; -428.000; -398.000
249.233;  -77.600; -344.000; -381.000
249.375; -115.900; -474.000; -451.000
249.518;   -3.100;  -83.000; -133.000
249.660;   -9.200; -103.000;    3.000
249.802; -338.500;-1303.000;-1189.000
249.945; -125.300; -612.000; -540.000
250.087; -234.700; -834.000; -768.000
250.229;  -98.800; -362.000; -480.000
250.371; -130.700; -494.000; -439.000
250.514; -111.700; -310.000; -244.000
250.656;    6.300;   69.000;  102.000
250.798; -225.300; -849.000; -800.000
250.940; -128.800; -322.000; -322.000
251.083;  -44.500; -335.000; -111.000
251.225;  121.700;  338.000;  310.000
251.367;  -78.700; -274.000; -373.000
251.509;  -48.900; -265.000; -210.000
251.651; -178.400; -731.000; -671.000
251.794;  158.900;  538.000;  632.000
251.936; -217.300; -821.000; -747.000
252.078; -121.300; -540.000; -461.000
252.220; -135.700; -645.000; -477.000
252.362;  167.000;  344.000;  462.000
252.504; -145.800; -677.000; -584.000
252.646; -204.100; -875.000; -722.000
252.788;   23.700;   14.000; -128.000
252.931;  -45.300; -257.000; -253.000
253.073;  -71.500; -376.000; -317.000
253.215;   27.400;  141.000;  122.000
253.357;  -24.600;   82.000; -153.000
253.499;  -61.300; -374.000; -234.000
253.641; -165.500; -749.000; -594.000
253.783; -196.000; -609.000; -527.000
253.925; -174.300; -586.000; -591.000
254.067; -219.000; -744.000; -667.000
254.209;  -67.500; -391.000; -259.000
254.351; -257.100; -865.000; -883.000
254.493; -110.000; -441.000; -417.000
254.635; -208.500; -936.000; -818.000
254.777; -178.400; -752.000; -687.000
254.918; -138.700; -512.000; -430.000
255.060; -108.100; -551.000; -395.000
255.202; -107.400; -473.000; -261.000
255.344; -142.900; -658.000; -455.000
255.486; -125.400; -471.000; -406.000
255.628; -201.600; -780.000; -781.000
255.770; -126.700; -676.000; -536.000
255.912; -139.000; -559.000; -468.000
256.053; -175.800; -730.000; -508.000
256.195;  311.700; 1008.000;  903.000
256.337; -178.600; -861.000; -595.000
256.479;  158.200;  532.000;  416.000
256.621;  -87.900; -394.000; -212.000
256.762; -186.600; -789.000; -742.000
256.904;  145.300;  485.000;  487.000
257.046;  -51.900; -381.000; -271.000
257.188;  -68.800; -351.000; -264.000
257.329; -166.000; -525.000; -464.000
257.471; -212.300; -939.000; -807.000
257.613; -109.500; -584.000; -498.000
257.755; -298.300;-1073.000; -982.000
257.896;   71.400;  286.000;  392.000
258.038; -126.600; -403.000; -352.000
258.180;  -94.700; -354.000; -279.000
258.321; -165.100; -581.000; -457.000
258.463;   19.700;  -71.000;  133.000
258.605; -150.400; -562.000; -570.000
258.746; -208.100; -886.000; -772.000
258.888; -291.500;-1026.000;-1020.000
259.029;   52.900;  121.000;   -8.000
259.171; -152.500; -614.000; -550.000
259.313;    5.300;  -49.000;  -47.000
259.454; -144.700; -536.000; -414.000
259.596; -114.300; -483.000; -390.000
259.737; -115.500; -590.000; -474.000
259.879;   78.500;  217.000;  311.000
260.020;  206.400;  901.000;  636.000
260.162;  -56.700; -146.000; -253.000
260.303; -185.900; -768.000; -687.000
260.445; -163.000; -609.000; -613.000
260.586;   83.100;  392.000;  157.000
260.728;  -67.800; -360.000; -248.000
260.869; -105.800; -350.000; -343.000
261.011;  178.400;  706.000;  537.000
261.152;  -97.800; -479.000; -319.000
261.293; -162.100; -576.000; -595.000
261.435;  -69.200; -219.000; -184.000
261.576;  -92.200; -455.000; -325.000
261.718;  193.800;  420.000;  470.000
261.859; -243.500; -940.000; -949.000
262.000; -234.300; -951.000;-1016.000
262.142;    4.000;  -52.000;  -60.000
262.283; -221.100; -808.000; -691.000
262.424; -162.500; -666.000; -625.000
262.566; -292.100;-1161.000; -983.000
262.707; -215.500; -840.000; -830.000
262.848; -233.700; -769.000; -726.000
262.990; -116.100; -362.000; -345.000
263.131;  218.600;  650.000;  681.000
263.272;   26.700;  -61.000;  -41.000
263.413; -153.500; -589.000; -561.000
263.555; -101.900; -669.000; -143.000
263.696; -166.300; -550.000; -641.000
263.837; -127.000; -449.000; -551.000
263.978;   41.100;   -5.000;  -77.000
264.119;  -81.800; -283.000; -264.000
264.261; -223.100; -847.000; -630.000
264.402;   -1.800;   33.000;   40.000
264.543; -121.500; -509.000; -524.000
264.684;  -10.500;   61.000;  -50.000
264.825; -135.400; -816.000; -538.000
264.966;   30.600;  -84.000;  -67.000
265.107; -190.800; -646.000; -670.000
265.248; -243.500; -825.000; -812.000
265.390;   -2.500;  152.000;   -9.000
265.531;  -29.100; -238.000; -107.000
265.672; -161.600; -557.000; -630.000
265.813;  160.100;  563.000;  439.000
265.954; -296.700; -959.000; -940.000
266.095;  -11.500; -372.000; -322.000
266.236; -175.600; -686.000; -548.000
266.377;  -90.300; -243.000; -297.000
266.518; -124.500; -619.000; -547.000
266.659;   89.200;  170.000;  268.000
266.800;   87.900;   83.000;   85.000
266.941; -156.200; -487.000; -478.000
267.082;   69.100;  354.000;   99.000
267.223; -102.600; -344.000; -273.000
267.364; -212.200; -892.000; -686.000
267.504;   -1.200;    3.000;  135.000
267.645;    8.600;  160.000;   67.000
267.786;  -66.900; -147.000;  -86.000
267.927; -118.700; -473.000; -379.000
268.068;  -17.200; -186.000;  -61.000
268.209;  -64.600; -175.000; -413.000
268.350;  -88.000; -388.000; -532.000
268.490; -146.600; -648.000; -521.000
268.631;   83.800;  127.000;  225.000
268.772; -183.600; -874.000; -647.000
268.913;  -99.700; -328.000; -476.000
269.054;   -8.900; -117.000;   12.000
269.194;  -91.800; -418.000; -402.000
269.335; -289.800;-1137.000;-1074.000
269.476;   -1.300;   33.000;  -35.000
269.617;  -52.100; -347.000; -392.000
269.757; -151.300; -713.000; -646.000
269.898; -179.300; -856.000; -613.000
270.039;  -82.000; -415.000; -405.000
270.180; -257.000; -952.000; -816.000
270.320;  -17.400; -190.000; -250.000
270.461;  -57.100; -277.000; -249.000
270.602;  -20.200; -186.000; -156.000
270.742; -241.500; -868.000; -943.000
270.883; -127.800; -442.000; -390.000
271.023; -114.600; -358.000; -357.000
271.164; -144.100; -607.000; -528.000
271.305; -183.200; -666.000; -654.000
271.445; -200.000; -722.000; -683.000
271.586; -100.900; -462.000; -283.000
271.726;  -69.500; -397.000; -322.000
271.867;  -96.100; -594.000; -534.000
272.008;  352.800; -473.000; -285.000
272.148;  272.600;  462.000;  468.000
272.289;   39.300; -113.000; -181.000
272.429;   38.600;   19.000;  185.000
272.570; -148.300; -633.000; -737.000
272.710; -189.200; -825.000; -775.000
272.851;  -19.000;  113.000; -130.000
272.991; -306.700;-1173.000;-1077.000
273.131;  -89.400; -419.000; -459.000
273.272; -188.600; -683.000; -723.000
273.412;   21.400; -143.000;  -31.000
273.553;  -74.800; -488.000; -507.000
273.693;  308.700;  913.000;  858.000
273.834; -182.200; -894.000; -692.000
273.974; -145.600; -664.000; -615.000
274.114; -181.900; -772.000; -560.000
274.255;  167.500;  414.000;  373.000
274.395;   54.300; -180.000; -125.000
274.535;   87.300;  199.000;  350.000
274.676;   66.700;  225.000;   94.000
274.816;   61.000;  110.000;   34.000
274.956; -137.200; -624.000; -690.000
275.097; -145.400;-1014.000; -922.000
275.237; -217.200; -913.000; -803.000
275.377; -203.300; -778.000; -689.000
275.517; -264.900; -878.000; -937.000
275.658; -118.000; -590.000; -555.000
275.798; -102.400; -606.000; -413.000
275.938;   40.500;  215.000;  323.000
276.078; -150.700; -626.000; -395.000
276.218;   29.500;   99.000;  104.000
276.359; -221.500;-1026.000;-1024.000
276.499; -143.000; -605.000; -446.000
276.639;  -25.500; -305.000; -151.000
276.779;  -40.200; -475.000; -357.000
276.919; -178.900; -783.000; -624.000
277.059;  -22.300; -261.000; -212.000
277.199;  -36.900; -357.000; -259.000
277.340;  141.000;  287.000;  175.000
277.480; -182.800; -840.000; -693.000
277.620;   89.300;  192.000;   16.000
277.760; -388.900;-1533.000;-1294.000
277.900;   60.400;  113.000;   33.000
278.040;   50.400;  137.000;  159.000
278.180;   92.800;  270.000;  170.000
278.320;   45.500;   21.000;   56.000
278.460;  -96.400; -443.000; -469.000
278.600; -189.400; -708.000; -598.000
278.740;  107.900;  448.000;  224.000
278.880;  -91.400; -768.000; -791.000
279.020;   35.900; -194.000; -144.000
279.160; -156.400; -672.000; -595.000
279.300; -200.400; -926.000; -873.000
279.440; -170.100; -709.000; -622.000
279.579;  -52.800;-1014.000; -929.000
279.719;  -57.900; -410.000; -394.000
279.859;  139.000;   -4.000;   41.000
279.999;   77.000; -208.000;  101.000
280.139;  -30.700; -435.000; -387.000
280.279; -143.000; -708.000; -745.000
280.419;  -22.400; -229.000; -147.000
280.559;  -46.600; -259.000; -180.000
280.698; -146.100; -790.000; -639.000
280.838; -181.400; -778.000; -800.000
280.978; -178.700; -846.000; -790.000
281.118; -230.000; -811.000; -704.000
281.257;   53.800;   24.000;    6.000
281.397; -207.400;-1094.000; -960.000
281.537; -152.100; -599.000; -712.000
281.677;  -35.900; -150.000; -101.000
281.816; -169.500; -700.000; -630.000
281.956;  -37.900; -193.000; -257.000
282.096;  -96.600; -539.000; -396.000
282.235; -196.000; -672.000; -638.000
282.375;   -6.700; -243.000;  -98.000
282.515; -169.700; -715.000; -707.000
282.654;   79.700;   29.000;  106.000
282.794;   87.800;  388.000;  244.000
282.934;  -65.400; -530.000; -491.000
283.073; -257.500;-1030.000; -857.000
283.213;  -78.300; -460.000; -467.000
283.353;  -24.900; -408.000; -349.000
283.492;  -25.900; -264.000; -296.000
283.632;  -32.600; -254.000; -168.000
283.771; -181.200; -859.000; -730.000
283.911;  -96.900; -369.000; -260.000
284.050; -209.600; -794.000; -748.000
284.190; -300.200;-1229.000;-1096.000
284.329; -261.900;-1055.000; -964.000
284.469; -107.200; -516.000; -591.000
284.608; -105.200; -559.000; -598.000
284.748; -150.000; -614.000; -570.000
284.887;    4.200;  -87.000;  -20.000
285.027; -216.900; -844.000; -892.000
285.166;  -46.200; -192.000; -249.000
285.306;   70.400; -116.000;  -33.000
285.445;  -79.700; -229.000; -343.000
285.584; -149.000; -630.000; -494.000
285.724;  -77.800; -282.000; -322.000
285.863; -214.000; -857.000; -507.000
286.002; -104.600; -366.000; -276.000
286.142; -179.100; -715.000; -622.000
286.281; -143.000; -525.000; -493.000
286.420; -117.200; -554.000; -417.000
286.560;  231.700;  653.000;  623.000
286.699; -235.200; -958.000; -912.000
286.838; -142.000; -590.000; -591.000
286.978; -147.900; -533.000; -537.000
287.117; -252.700;-1085.000; -950.000
287.256;  -24.700; -228.000; -211.000
287.395;  -49.900; -197.000; -378.000
287.535;  -69.500; -370.000; -298.000
287.674; -135.700; -509.000; -484.000
287.813;  136.200;  661.000;  533.000
287.952; -251.500;-1010.000; -871.000
288.091; -273.200;-1049.000; -915.000
288.231;   39.700;   13.000;   15.000
288.370; -334.300;-1217.000;-1200.000
288.509; -172.900; -728.000; -645.000
288.648; -145.700; -770.000; -548.000
288.787;  -26.300; -243.000;  -87.000
288.926;  -88.200; -454.000; -475.000
289.065;  288.900;  859.000;  672.000
289.204;  -87.000; -377.000; -217.000
289.344; -185.700; -791.000; -690.000
289.483;  105.300;  416.000;  304.000
289.622;  -18.100; -291.000; -149.000
289.761;    8.900; -309.000; -166.000
289.900; -204.100; -785.000; -626.000
290.039;    5.700;  -12.000;  -95.000
290.178;  -42.200; -274.000; -180.000
290.317; -104.200; -618.000; -479.000
290.456; -101.700; -463.000; -451.000
290.595; -248.100; -961.000; -833.000
290.734; -230.500; -904.000; -891.000
290.873;  -68.800; -456.000; -420.000
291.011; -222.900; -833.000; -843.000
291.150; -175.800; -770.000; -682.000
291.289;  -32.800; -343.000; -110.000
291.428; -147.500; -599.000; -480.000
291.567; -113.200; -370.000; -442.000
291.706;   57.700;  109.000;  154.000
291.845; -166.700; -597.000; -505.000
291.984; -301.800;-1234.000;-1061.000
292.122;  182.900;  602.000;  582.000
292.261;  181.000;  620.000;  463.000
292.400;   43.600; -144.000;  211.000
292.539; -208.700; -959.000; -813.000
292.678;  -60.400; -325.000; -300.000
292.816; -283.100;-1136.000; -965.000
292.955; -146.300; -844.000; -684.000
293.094;  -28.300; -173.000; -337.000
293.233; -104.600; -556.000; -400.000
293.371;  -25.600; -225.000;  -84.000
293.510; -202.500; -866.000; -780.000
293.649; -240.600; -959.000; -924.000
293.787; -109.000;-1083.000;-1012.000
293.926;   37.800; -113.000;  -32.000
294.065;  -78.300; -379.000; -290.000
294.203;  130.600;  298.000;  406.000
294.342;   91.300;   74.000;  156.000
294.481;11066.500;51180.000; -836.000
294.619;   -1.900; -425.000; -582.000
294.758; -287.000;-1230.000;-1137.000
294.896;  216.300; -125.000;    5.000
295.035; -227.900;-1040.000;-1006.000
295.174; -228.900;-1082.000; -954.000
295.312;  -75.000; -323.000; -203.000
295.451;    0.100; -307.000; -428.000
295.589;  -55.300; -389.000; -518.000
295.728;  100.700; -292.000; -165.000
295.866;   57.200;  -36.000;  -51.000
296.005; -110.300; -584.000; -341.000
296.143;  -97.600; -558.000; -596.000
296.282; -173.400; -957.000; -881.000
296.420; -125.800; -657.000; -557.000
296.559; -131.300; -892.000; -633.000
296.697;   75.300; -847.000; -665.000
296.835;   94.500;-1141.000;-1002.000
296.974;   96.600;  -23.000;   39.000
297.112;   10.400; -443.000; -504.000
297.251; -107.100; -815.000; -755.000
297.389;  180.000; -576.000; -438.000
297.527;  154.100; -145.000;  -83.000
297.666; -110.600; -486.000; -438.000
297.804;  -68.000; -404.000; -264.000
297.942;    7.700; -136.000; -161.000
298.081;   26.300; -183.000;   63.000
298.219;  169.000;  -17.000;  -19.000
298.357;  122.800; -144.000;  -71.000
298.495;   61.700; -810.000; -812.000
298.634;  208.100;  245.000;  219.000
298.772;  125.400; -220.000; -338.000
298.910;  -31.400; -309.000; -182.000
299.048;   22.100; -130.000; -153.000
299.187;  -42.200; -350.000; -250.000
299.325;   71.700;   52.000;  122.000
299.463;  115.400; -389.000; -299.000
299.601;  269.200; -327.000; -271.000
299.739; -157.600; -908.000; -883.000
299.877; -169.600; -791.000; -703.000
300.016; -110.800;-1095.000; -935.000
300.154;  368.800;  -19.000; -161.000
300.292;  109.700; -428.000; -348.000
300.430;   88.900; -408.000; -291.000
300.568; -181.200; -940.000; -874.000
300.706;  -69.400; -366.000; -469.000
300.844; -130.700;-1108.000; -979.000
300.982;  278.500;  246.000;  282.000
301.120; -187.000; -965.000; -866.000
301.258;  -89.100; -812.000; -705.000
301.396;   94.400;  104.000;  -41.000
301.534;  176.300; -218.000; -293.000
301.672;   18.600; -664.000; -521.000
301.810;   96.100; -613.000; -545.000
301.948;  332.200;   53.000;  149.000
302.086; 1150.900; -250.000;  -32.000
302.224; 1871.700; -610.000; -585.000
302.362;  118.400; -558.000; -622.000
302.500;  -20.000; -923.000; -893.000
302.638;  247.500;  128.000;  245.000
302.776;   46.000; -352.000; -408.000
302.913;  153.500;  447.000;  236.000
303.051;   57.100;  -86.000;  -23.000
303.189;  164.700;   90.000;  118.000
303.327;  -51.000; -341.000; -256.000
303.465; -155.600; -832.000; -588.000
303.603; -180.900; -805.000; -604.000
303.740;  223.800;  417.000;  241.000
303.878;   60.300; -800.000; -759.000
304.016; -174.000; -915.000; -790.000
304.154; -227.700;-1123.000;-1152.000
304.291;  -21.500; -505.000; -554.000
304.429;   76.600;  102.000;   74.000
304.567; -260.200; -908.000; -893.000
304.705;  -73.400; -408.000; -515.000
304.842;  203.000; -616.000; -540.000
304.980;  175.200;  215.000;   35.000
305.118;   94.000; -367.000; -365.000
305.255;  -95.900; -945.000; -927.000
305.393;  143.300;  178.000;  239.000
305.531; -193.400;-1173.000; -956.000
305.668; -122.500; -663.000; -582.000
305.806;  232.500; -358.000; -439.000
305.943;  213.800; -629.000; -637.000
306.081;  127.300; -378.000; -267.000
306.219; -200.400; -863.000; -748.000
306.356;   31.800;  158.000;   27.000
306.494;  233.600;  981.000;  761.000
306.631;   23.900;  -11.000;  -55.000
306.769;   26.500; -613.000; -485.000
306.906;   17.600; -284.000; -258.000
307.044;  -58.800; -473.000; -488.000
307.181; -102.800; -410.000; -332.000
307.319;   74.900;  112.000;   87.000
307.456; -314.700;-1191.000;-1153.000
307.594; -161.400; -980.000; -727.000
307.731;   43.200; -371.000; -164.000
307.868;   14.700;  -15.000;   20.000
308.006; -221.700; -961.000; -847.000
308.143;  -99.300; -618.000; -330.000
308.281;  479.000;  -37.000; -254.000
308.418;   60.400; -748.000; -640.000
308.555;  -80.700; -400.000; -250.000
308.693; -128.500; -577.000; -573.000
308.830; -176.700; -712.000; -657.000
308.967;   16.900; -215.000;  -95.000
309.105;  -24.700; -507.000; -396.000
309.242;  142.600; -468.000; -367.000
309.379;  910.500; -577.000; -655.000
309.517;  -32.000; -936.000; -948.000
309.654; -167.400; -910.000; -734.000
309.791;  -95.800; -662.000; -580.000
309.928; -185.100; -977.000; -914.000
310.065;  384.400;  819.000;  697.000
310.203;   10.400; -825.000; -850.000
310.340;   62.600; -465.000; -321.000
310.477; -129.600; -412.000; -516.000
310.614; -116.700; -383.000; -473.000
310.751;  -75.200; -427.000; -518.000
310.889;  -11.100;    1.000;   11.000
311.026; -268.800;-1161.000; -939.000
311.163;  -41.400; -386.000; -380.000
311.300; -107.800; -512.000; -479.000
311.437; -127.200; -658.000; -619.000
311.574; -290.500;-1226.000; -985.000
311.711;  -79.000; -595.000; -433.000
311.848;  -35.000; -380.000; -388.000
311.985;   69.900;  270.000;   93.000
312.122; -210.100; -932.000; -762.000
312.259; -186.000; -941.000; -994.000
312.396; -105.300; -508.000; -551.000
312.533; -167.600; -812.000; -790.000
312.670; -192.500;-1070.000; -898.000
312.807;  -42.600; -352.000; -367.000
312.944;  -96.600; -513.000; -611.000
313.081;  -41.100; -150.000; -415.000
313.218; -180.100;-1111.000; -867.000
313.355;   50.800; -531.000; -449.000
313.492;   48.700; -455.000; -292.000
313.629;  307.400;  815.000;  735.000
313.766; -249.900;-1176.000;-1008.000
313.902;   23.000; -186.000;   21.000
314.039;  -53.600; -372.000; -289.000
314.176;  107.900;  286.000;  192.000
314.313; -106.400; -569.000; -473.000
314.450; -126.300; -788.000; -684.000
314.587;  -74.600; -468.000; -480.000
314.723;   46.900;  -78.000;  130.000
314.860;  124.900;  318.000;  332.000
314.997;   96.700;  223.000;  142.000
315.134;  -39.800; -385.000; -368.000
315.270;  -35.100; -480.000; -496.000
315.407; -234.300;-1094.000; -967.000
315.544;  -93.400; -657.000; -538.000
315.681; -106.000; -681.000; -565.000
315.817;   81.200; -133.000; -176.000
315.954;   55.500; -613.000; -392.000
316.091; -208.500;-1045.000;-1023.000
316.227;   20.600;  -71.000; -179.000
316.364;   43.100;   23.000;    6.000
316.500;  -24.700; -113.000; -300.000
316.637;  -31.200; -181.000; -302.000
316.774; -136.200; -625.000; -358.000
316.910; -128.600; -598.000; -629.000
317.047;  -76.300; -487.000; -351.000
317.183;  -97.900; -435.000; -566.000
317.320;   25.100; -367.000; -321.000
317.456; -114.400; -733.000; -805.000
317.593; -128.800; -598.000; -641.000
317.729;   61.200;  168.000;  -67.000
317.866; -395.700;-1434.000;-1285.000
318.002; -147.200; -708.000; -948.000
318.139; -156.200; -883.000; -867.000
318.275; -190.500;-1003.000; -738.000
318.412;  -64.100; -517.000; -336.000
318.548;  -44.500; -751.000; -720.000
318.685; -160.600; -985.000; -888.000
318.821; -145.000; -762.000; -735.000
318.957;   10.800;   34.000;  -23.000
319.094;  111.600;  297.000;  154.000
319.230;  -76.900; -756.000; -742.000
319.367;  248.900; -471.000; -520.000
319.503;  171.700; -538.000; -436.000
319.639; -184.900; -877.000; -793.000
319.775;  -84.400; -750.000; -685.000
319.912;  -91.000; -424.000; -519.000
320.048; -176.200;-1184.000;-1184.000
320.184;  186.000;   59.000;   70.000
320.321;  -83.200; -497.000; -467.000
320.457;  179.200;  475.000;  662.000
320.593;  -91.000; -375.000; -382.000
320.729; -155.600; -732.000; -734.000
320.866; -107.000; -577.000; -635.000
321.002; -156.500; -759.000; -809.000
321.138;    1.500; -135.000; -211.000
321.274;  160.100; -148.000; -115.000
321.410;  -17.400; -585.000; -353.000
321.546;  -22.600;-1011.000; -911.000
321.683;  152.600;  400.000;  185.000
321.819;   54.400;  -48.000; -117.000
321.955; -189.400; -743.000; -722.000
322.091;  -49.300; -585.000; -540.000
322.227;   13.000; -382.000; -202.000
322.363;  -29.000; -320.000; -215.000
322.499;  -43.400; -343.000; -331.000
322.635;  356.900;  636.000;  443.000
322.771;  115.000; -139.000;   12.000
322.907;  220.800;  129.000;  327.000
323.043;  -17.000; -115.000; -206.000
323.179;  -48.700; -394.000; -363.000
323.315;  100.900; -401.000; -371.000
323.451;  232.300; -328.000; -236.000
323.587;  222.900;  -60.000;  -77.000
323.723;   35.100; -682.000; -601.000
323.859;   22.100; -258.000;  -76.000
323.995;  -19.800; -467.000; -409.000
324.131; -219.000; -967.000; -892.000
324.267;  -31.000; -254.000; -276.000
324.402; -197.400; -960.000; -983.000
324.538;   28.800; -279.000; -104.000
324.674;  120.200;  164.000;   77.000
324.810;  300.500;  226.000;  308.000
324.946;   89.900; -810.000; -658.000
325.082;  -99.600; -568.000; -475.000
325.217;   27.100;  -62.000;   16.000
325.353; -186.500; -764.000; -659.000
325.489; -117.400; -540.000; -506.000
325.625; -127.000; -579.000; -525.000
325.760;  161.900;  517.000;  376.000
325.896;  -35.100; -515.000; -702.000
326.032;  -22.800; -403.000; -352.000
326.168;  -95.200; -462.000; -369.000
326.303;  -81.600; -352.000; -461.000
326.439;   -2.600; -336.000; -276.000
326.575;   73.100; -190.000;  -29.000
326.710;   46.900; -156.000;  -30.000
326.846;   23.300;  146.000;  103.000
326.982; -158.200; -530.000; -548.000
327.117;  -95.800; -481.000; -442.000
327.253; -132.200; -745.000; -742.000
327.388; -297.500;-1137.000;-1153.000
327.524;  -64.700; -811.000; -578.000
327.659;   -5.300;  -58.000;  -22.000
327.795;   37.000;   69.000;   45.000
327.931; -149.800; -723.000; -499.000
328.066;  -25.500; -417.000; -276.000
328.202;   19.100;   12.000; -129.000
328.337;  271.100;  957.000;  713.000
328.473;   35.300;  -12.000;  -74.000
328.608;  -15.600; -256.000; -267.000
328.743; -129.100; -799.000; -664.000
328.879;   74.800;  214.000;  114.000
329.014; -102.900; -102.000; -122.000
329.150; -151.200; -358.000; -483.000
329.285;  -94.600; -465.000; -466.000
329.421;  -77.300; -548.000; -246.000
329.556;   -6.000;  -36.000;   85.000
329.691; -138.200; -633.000; -615.000
329.827; -121.600; -626.000; -480.000
329.962;  -43.000;  131.000; -301.000
330.097; -164.200; -673.000; -585.000
330.233;  -55.400; -410.000; -223.000
330.368; -203.200; -839.000; -628.000
330.503;    3.200;    3.000;   98.000
330.638;   36.400;  -93.000; -125.000
330.774;  -86.600; -609.000; -530.000
330.909;  -57.800; -434.000; -244.000
331.044; -143.500; -714.000; -708.000
331.179; -321.200;-1217.000;-1109.000
331.315;   55.400;   77.000;   20.000
331.450;  101.100;  157.000;  285.000
331.585; -134.800; -805.000; -706.000
331.720; -127.300; -510.000; -460.000
331.855;   18.000;  -35.000; -102.000
331.990;  481.800;   62.000;  138.000
332.126;  272.000; -110.000;   71.000
332.261;  -38.500; -379.000; -265.000
332.396;   23.700; -135.000; -242.000
332.531; -201.500;-1074.000;-1031.000
332.666;   86.700; -519.000; -363.000
332.801; -183.600; -726.000; -807.000
332.936;   12.700; -192.000; -122.000
333.071; -267.500; -870.000; -817.000
333.206;   78.500;  307.000;  379.000
333.341;  113.300;  344.000;  418.000
333.476; -123.900; -627.000; -623.000
333.611;  -24.900; -251.000; -173.000
333.746;  -56.700; -381.000; -464.000
333.881; -208.300; -973.000; -935.000
334.016; -226.600; -936.000; -917.000
334.151; -184.500; -746.000; -702.000
334.286;   82.300;  152.000;  186.000
334.421;   17.700; -125.000; -178.000
334.556; -121.100; -611.000; -567.000
334.690; -138.400; -631.000; -577.000
334.825;  139.600;  381.000;   83.000
334.960;  -56.100; -285.000; -413.000
335.095;   42.000;  135.000;  -91.000
335.230; -149.600; -722.000; -738.000
335.365; -237.200;-1084.000; -990.000
335.499; -263.800;-1108.000;-1037.000
335.634;   71.700;    9.000;  534.000
335.769; -173.600; -755.000; -720.000
335.904;  -57.500; -603.000; -561.000
336.038;  -79.700; -735.000; -657.000
336.173; -181.200;-1206.000;-1194.000
336.308;   24.700; -116.000; -189.000
336.443;   58.900; -544.000; -634.000
336.577; -108.100; -936.000; -787.000
336.712;  154.100;   -4.000;  -12.000
336.847;  -19.700; -724.000; -607.000
336.981;  147.400; -272.000; -208.000
337.116;  576.500;  615.000;  501.000
337.250;  325.100; -434.000; -421.000
337.385;  451.400; -297.000; -208.000
337.520;  159.500; -632.000; -603.000
337.654;  -36.600; -215.000; -126.000
337.789; -229.400; -989.000; -933.000
337.923;   10.900; -104.000; -205.000
338.058; -161.700; -673.000; -738.000
338.192;  -19.500; -611.000; -488.000
338.327;   38.600;  -18.000; -155.000
338.461;  -83.500; -299.000; -469.000
338.596; -143.600; -780.000; -638.000
338.730; -178.500; -767.000; -803.000
338.865;  182.600;  -46.000; -140.000
338.999;  -74.700; -846.000; -702.000
339.134;  -45.100; -634.000; -536.000
339.268;   22.900; -741.000; -603.000
339.403;  640.900; -740.000; -775.000
339.537;  215.200; -894.000; -820.000
339.671; -169.900; -829.000; -813.000
339.806;  -58.900; -556.000; -512.000
339.940;   78.400; -261.000; -235.000
340.074; -144.700; -685.000; -510.000
340.209;  -28.100; -351.000; -230.000
340.343; -109.700; -517.000; -573.000
340.477;  354.100;  998.000; 1036.000
340.612;  -82.800;-1033.000; -900.000
340.746;  264.500; -199.000; -243.000
340.880; -105.700; -924.000; -785.000
341.014;   -3.800;  -45.000; -154.000
341.149; -166.400; -756.000; -718.000
341.283; -167.600; -839.000; -754.000
341.417; -160.500;-1124.000; -938.000
341.551;  279.200; -768.000; -708.000
341.685;    0.000; -633.000; -611.000
341.820;  -43.600; -562.000; -493.000
341.954;  -50.600; -218.000; -349.000
342.088; -289.500;-1102.000;-1019.000
342.222;  131.800;  565.000;  618.000
342.356;  -68.500; -395.000; -335.000
342.490; -157.200; -880.000; -841.000
342.624;  -39.300; -339.000; -242.000
342.758;   26.900; -364.000; -312.000
342.892;  -78.100; -710.000; -585.000
343.026;  -25.500;  -58.000; -116.000
343.160;  -74.500; -426.000; -376.000
343.294;  -84.000; -474.000; -337.000
343.428;  -29.300; -488.000; -448.000
343.562;   16.200; -172.000;  -23.000
343.696;  -29.300; -385.000; -314.000
343.830;    6.700; -362.000; -356.000
343.964;   62.100; -231.000; -168.000
344.098; 1719.800;  199.000;   70.000
344.232; 1485.200; -266.000; -127.000
344.366;  229.800; -567.000; -453.000
344.500;  198.100; -665.000; -744.000
344.634;  122.900; -324.000; -164.000
344.768;   10.600; -531.000; -341.000
344.902;   81.100;  278.000;  256.000
345.035; -113.400; -556.000; -496.000
345.169; -209.100; -933.000; -656.000
345.303;  -10.000; -308.000; -482.000
345.437; -103.600; -826.000; -717.000
345.571; -113.400; -675.000; -594.000
345.704;  -61.100; -309.000; -532.000
345.838;   15.000; -331.000; -284.000
345.972;  -29.700; -543.000; -495.000
346.106;  329.900; -179.000; -190.000
346.239;  836.200; -312.000; -243.000
346.373;   71.900; -343.000; -302.000
346.507; -244.200; -950.000; -962.000
346.640;  312.200;  -30.000;   13.000
346.774;  -37.300; -650.000; -797.000
346.908;   -2.800; -138.000;  -11.000
347.041; -115.200; -646.000; -593.000
347.175;   52.800;  259.000;   27.000
347.309;  -99.800; -698.000; -628.000
347.442; -174.600; -883.000; -732.000
347.576;  631.200;  670.000;  668.000
347.709;  420.300; -123.000;  -52.000
347.843; -148.100; -933.000; -825.000
347.976;  139.000;  235.000;  294.000
348.110; -333.600;-1268.000;-1186.000
348.243; -163.400; -679.000; -772.000
348.377;   49.700;  -26.000;   60.000
348.510;  143.200;  403.000;  540.000
348.644;  -13.000;  -37.000; -159.000
348.777;   46.300;  180.000;  191.000
348.911;  -47.200; -142.000; -112.000
349.044;  370.700;  471.000;  448.000
349.178;  345.700;-1069.000;-1006.000
349.311;  262.900;  141.000;  255.000
349.444;    0.000; -927.000; -813.000
349.578;   -9.100; -347.000; -200.000
349.711; -130.700; -959.000; -862.000
349.845;   11.300; -661.000; -591.000
349.978; -266.300;-1224.000;-1137.000
350.111; -131.000; -546.000; -612.000
350.244;  -98.500; -596.000; -700.000
350.378;   46.500; -392.000; -393.000
350.511;  -56.500; -393.000; -426.000
350.644; -193.400; -808.000; -806.000
350.778;   55.200;  168.000;  104.000
350.911;   79.900;  134.000;  140.000
351.044; -136.000; -685.000; -615.000
351.177;  -64.400; -321.000; -281.000
351.310;   34.400;    3.000; -131.000
351.444; -121.100; -888.000; -788.000
351.577;  254.300;  140.000;   90.000
351.710;  258.300;  593.000;  417.000
351.843;  -33.300; -165.000;  -77.000
351.976;   46.200;  149.000;  -79.000
352.109; -124.300; -621.000; -612.000
352.242;  -39.400; -464.000; -419.000
352.376;  -92.400; -580.000; -636.000
352.509;  375.100; -437.000; -356.000
352.642;   65.100; -654.000; -604.000
352.775;  131.200; -141.000;  -98.000
352.908; -176.900; -933.000; -904.000
353.041; -177.400; -814.000; -824.000
353.174;  -88.700; -551.000; -424.000
353.307; -149.300; -753.000; -764.000
353.440;  209.600;  541.000;  453.000
353.573; -168.000; -957.000;-1008.000
353.706;  -79.800; -384.000; -558.000
353.839;  -12.300; -264.000; -220.000
353.971; -153.300; -657.000; -512.000
354.104; -165.700; -896.000; -835.000
354.237;   -6.000; -627.000; -662.000
354.370; -141.600; -846.000; -879.000
354.503; -327.600;-1231.000;-1308.000
354.636;  -45.200; -529.000; -348.000
354.769; -232.900; -937.000; -860.000
354.902;   18.600; -230.000; -139.000
355.034;    2.300; -164.000; -220.000
355.167;    1.400; -262.000; -162.000
355.300; -180.300;-1061.000; -880.000
355.433; 1772.500;  -71.000;  -14.000
355.565; 2762.200; -402.000; -384.000
355.698;  740.700; -356.000; -296.000
355.831;   -4.900; -882.000; -801.000
355.964;  219.600; -285.000; -170.000
356.096; -132.200; -856.000; -843.000
356.229;   50.300; -523.000; -530.000
356.362;  617.900; -373.000; -266.000
356.494; 1053.000; -229.000; -162.000
356.627;  954.000;  269.000;  377.000
356.760; 1267.400;  120.000;   53.000
356.892; 1739.000; -286.000; -601.000
357.025; 1326.600;  403.000;  389.000
357.157; 1250.600; -167.000; -179.000
357.290; 1181.000; -856.000; -713.000
357.423;  389.400; -667.000; -556.000
357.555;  242.300; -217.000; -228.000
357.688;  287.400; -483.000; -364.000
357.820;  825.500; -870.000; -877.000
357.953; 6808.600; -563.000; -589.000
358.085; 1486.400; -632.000; -612.000
358.218; 2278.600;-1131.000; -932.000
358.350;  451.300;  -58.000;  312.000
358.483; -210.500;-1300.000;-1187.000
358.615;   18.500;-1182.000;-1078.000
358.747;  -32.500;-1187.000;-1058.000
358.880;   95.100; -810.000; -744.000
359.012;   54.400; -376.000; -202.000
359.145;  -42.300; -480.000; -511.000
359.277;  113.400; -962.000; -913.000
359.409; 5548.900;  536.000;  231.000
359.542; 1410.000; -738.000; -688.000
359.674;  151.600;   46.000;   13.000
359.806;  -50.100; -565.000; -438.000
359.939;  -41.300; -617.000; -516.000
360.071;   -4.300; -583.000; -579.000
360.203;  -12.500; -411.000; -364.000
360.335;  140.500;  164.000;  -16.000
360.468;  365.600; -249.000; -307.000
360.600; 4516.700; -547.000; -454.000
360.732; 4924.400; -546.000; -423.000
360.864;  703.600;-1216.000;-1044.000
360.996;  602.900; -516.000; -554.000
361.129;  113.200; -389.000; -598.000
361.261;   99.200;  110.000; -113.000
361.393;   15.200; -252.000; -214.000
361.525;  100.200;   94.000;  244.000
361.657;  -21.100; -821.000; -703.000
361.789;   70.100; -139.000; -155.000
361.921;  505.800; -642.000; -593.000
362.053;  546.100;  524.000;  541.000
362.185;  140.200;  288.000;   72.000
362.318; -124.800; -709.000; -705.000
362.450;  319.400;  294.000;  444.000
362.582;  277.900; -913.000; -870.000
362.714;  -19.900; -353.000; -332.000
362.846; -129.000; -606.000; -490.000
362.978; -259.000; -941.000; -811.000
363.109;  131.500; -161.000; -260.000
363.241;  879.500; -739.000; -749.000
363.373;  786.400; -649.000; -564.000
363.505; 1210.900; -186.000;  -91.000
363.637;  321.600; -787.000; -601.000
363.769; -231.300;-1067.000;-1080.000
363.901;  -97.100; -596.000; -654.000
364.033; -176.700;-1103.000;-1062.000
364.165;   45.300; -283.000; -283.000
364.296;  204.400; -316.000; -177.000
364.428;  146.700;-1344.000;-1220.000
364.560;  -69.600; -679.000; -661.000
364.692;  -80.600; -738.000; -835.000
364.824;  585.300; -588.000; -456.000
364.955;  786.700; -402.000; -564.000
365.087; 1563.800;-1097.000; -852.000
365.219;   86.100; -686.000; -816.000
365.351; -104.200; -526.000; -572.000
365.482;  179.000;  300.000;  240.000
365.614;  -48.000; -402.000; -314.000
365.746; -168.300; -729.000; -752.000
365.877; -139.800; -706.000; -672.000
366.009;  551.100;  -35.000;  -62.000
366.141; -152.200;-1249.000;-1134.000
366.272; -157.300; -803.000; -719.000
366.404; -159.700;-1005.000; -874.000
366.535;   23.000; -139.000;  -12.000
366.667; -130.000; -644.000; -649.000
366.799;  111.700;  353.000;  203.000
366.930; -215.400; -862.000; -996.000
367.062;  260.900; -639.000; -613.000
367.193;  262.400; -872.000; -842.000
367.325; -102.500; -580.000; -684.000
367.456;  157.800; -246.000;   31.000
367.588;  348.700; -371.000; -318.000
367.719;   90.900;  -44.000;  -45.000
367.851;    1.200; -222.000; -241.000
367.982;  -68.500; -875.000; -732.000
368.113;  261.300; -475.000; -358.000
368.245; -185.600; -960.000; -841.000
368.376;    1.900; -254.000; -302.000
368.508;   37.000; -188.000; -263.000
368.639; -266.600;-1166.000;-1034.000
368.770;   18.900; -670.000; -589.000
368.902;  -66.200; -836.000; -926.000
369.033; -158.800; -906.000; -855.000
369.164;  -83.000; -720.000; -653.000
369.296; -148.100; -452.000; -601.000
369.427;   81.900; -209.000; -144.000
369.558;  -58.800; -593.000; -377.000
369.689; -127.500; -721.000; -569.000
369.821; -199.500; -951.000; -845.000
369.952;   33.000;   42.000; -108.000
370.083;    7.000; -229.000; -108.000
370.214; -136.800; -735.000; -650.000
370.345;   58.000;   65.000;   81.000
370.477; -131.800; -810.000; -790.000
370.608;  542.100; -328.000; -264.000
370.739;  -68.100;-1233.000;-1292.000
370.870;  -42.500;-1102.000; -923.000
371.001;  222.500; -378.000; -467.000
371.132; -115.700; -754.000; -735.000
371.263;   15.300;  -42.000; -148.000
371.394; -198.400; -841.000; -748.000
371.525;  119.700;  345.000;  225.000
371.657; -119.100; -808.000; -670.000
371.788;  196.900;  103.000;  199.000
371.919;  373.700; -384.000; -304.000
372.050; 6922.800;  -91.000; -156.000
372.181; 1973.600; -188.000; -294.000
372.311;  747.000;   42.000; -127.000
372.442;  106.500; -457.000; -451.000
372.573;  -38.700; -444.000; -340.000
372.704; -188.500;-1008.000; -980.000
372.835;  227.900; -228.000; -289.000
372.966;  -80.800; -646.000; -554.000
373.097; -114.000; -575.000; -711.000
373.228;  -20.500; -717.000; -542.000
373.359;  307.900; -824.000; -536.000
373.490; 1849.400; -881.000; -727.000
373.620; 2241.000;-1001.000; -803.000
373.751; 3482.600; -332.000; -396.000
373.882; 1496.300; -663.000; -733.000
374.013;  202.900; -449.000; -262.000
374.143;  -61.700; -581.000; -659.000
374.274; -145.400; -987.000; -908.000
374.405;  424.500; -388.000; -276.000
374.536;  910.300; -526.000; -387.000
374.666; 2181.000; -759.000; -807.000
374.797;  461.700; -817.000; -868.000
374.928; 1792.400; -710.000; -560.000
375.058; 1752.600; -535.000; -500.000
375.189;  188.800;  -59.000;  -93.000
375.320; -175.400; -928.000;-1034.000
375.450;  -37.400; -625.000; -616.000
375.581;  -58.600; -526.000; -436.000
375.712;   -3.500; -574.000; -250.000
375.842;  629.600; -438.000; -415.000
375.973;  457.800; -554.000; -513.000
376.103;  -35.900; -665.000; -648.000
376.234; -122.400; -531.000; -552.000
376.364;    0.100; -944.000; -867.000
376.495;  716.400;  925.000;  529.000
376.625;   34.400; -472.000; -485.000
376.756;  148.200; -709.000; -678.000
376.886; -115.200;-1178.000;-1026.000
377.017;   64.200;-1048.000;-1061.000
377.147;  629.400; -786.000; -782.000
377.278;  161.900;  174.000;  228.000
377.408; -200.700; -801.000; -815.000
377.538; -179.300; -707.000; -693.000
377.669;  -97.300; -537.000; -613.000
377.799; -121.800; -645.000; -635.000
377.929;  -57.500; -610.000; -428.000
378.060; -220.600; -781.000; -847.000
378.190;  -38.300; -726.000; -531.000
378.320;  -69.100; -401.000; -406.000
378.451;   39.300; -131.000;  -22.000
378.581;   27.400;  -67.000; -110.000
378.711;  401.300; 1035.000;  866.000
378.841;   17.500; -533.000; -675.000
378.972; -107.500; -871.000; -751.000
379.102;   66.500; -652.000; -579.000
379.232;   17.400; -126.000;  -73.000
379.362; -162.600;-1001.000; -885.000
379.492;   83.300; -373.000; -424.000
379.623;  293.000;    0.000;  111.000
379.753; -128.100;-1107.000; -974.000
379.883;  418.900;   59.000;  156.000
380.013;   17.500;-1081.000;-1017.000
380.143; -181.600;-1097.000;-1056.000
380.273; -136.200; -985.000; -861.000
380.403;   35.600; -344.000; -257.000
380.533;    3.300; -651.000; -664.000
380.663;  217.000;  173.000;  128.000
380.793; -143.500;-1027.000;-1074.000
380.923;    7.000; -103.000;  -34.000
381.053; -126.400; -613.000; -623.000
381.183;   10.300; -106.000; -248.000
381.313;  127.600; -656.000; -470.000
381.443;  142.400; -692.000; -473.000
381.573;  469.500; -402.000; -409.000
381.703;  564.100;-1249.000;-1095.000
381.833; -217.000;-1454.000;-1336.000
381.963;  269.900; -134.000;  -87.000
382.093; 2692.400; -925.000; -909.000
382.223;  730.400; -713.000; -602.000
382.353;   -6.100; -801.000; -608.000
382.482;  769.100;-1091.000; -964.000
382.612; 1524.400; -872.000; -644.000
382.742;  876.500; -695.000; -622.000
382.872;  597.000; -565.000; -551.000
383.002;  215.000;  347.000; -132.000
383.131;   47.800; -226.000; -160.000
383.261;  -52.200; -706.000; -768.000
383.391;  600.000; -552.000; -377.000
383.521; 5751.700;  451.000;  263.000
383.650; 1223.400; -947.000; -904.000
383.780;   -6.600; -783.000; -656.000
383.910;  339.700;  880.000;  802.000
384.039;  113.100; -794.000; -656.000
384.169;  438.300;-1205.000;-1017.000
384.299;   34.900; -650.000; -662.000
384.428; -109.700; -764.000; -680.000
384.558;  -50.800; -308.000; -275.000
384.687;  -45.100; -414.000; -334.000
384.817;  100.100;   75.000;   -2.000
384.947;  116.200; -234.000; -141.000
385.076;  644.500;  982.000;  912.000
385.206;  277.500;  369.000;  480.000
385.335;  -45.800; -549.000; -417.000
385.465;  -99.500; -655.000; -663.000
385.594;  312.500;  -53.000;  -44.000
385.724;  858.400; -868.000; -838.000
385.853;  298.900; -296.000; -270.000
385.982; 2735.600; -743.000; -787.000
386.112; 3982.700;-1052.000; -871.000
386.241;  331.700; -307.000; -312.000
386.371;   53.400; -174.000;  -87.000
386.500;   23.300; -825.000; -789.000
386.629;   77.500; -874.000; -817.000
386.759;  189.900;  -43.000;   68.000
386.888;   60.000; -170.000; -250.000
387.017;  -80.000; -648.000; -620.000
387.147; -107.100; -771.000; -798.000
387.276;   75.300; -410.000; -397.000
387.405;   93.600; -398.000; -342.000
387.535;  -41.700; -452.000; -361.000
387.664;  -74.700; -692.000; -620.000
387.793;  183.500; -198.000; -113.000
387.922; 1107.100;  255.000;  200.000
388.052;  118.100; -576.000; -423.000
388.181;   98.300; -342.000; -472.000
388.310;   98.300; -889.000; -710.000
388.439;  -23.500; -749.000; -742.000
388.568;  430.100;  365.000;  244.000
388.697; 2057.900; -756.000; -653.000
388.826;  425.600; -768.000; -666.000
388.956;  154.200; -285.000; -307.000
389.085;   17.700; -347.000; -287.000
389.214; -184.700; -842.000; -872.000
389.343;  -68.100; -645.000; -413.000
389.472;  803.100;  126.000;  149.000
389.601; 1071.800;   91.000;    0.000
389.730;   70.400; -568.000; -687.000
389.859;  222.600;  226.000;   46.000
389.988;  415.700; -423.000; -408.000
390.117;  316.000; -168.000; -146.000
390.246;   44.700; -331.000; -320.000
390.375;  262.500; -673.000; -626.000
390.504;  -69.300; -703.000; -621.000
390.633; -137.600; -672.000; -726.000
390.761;  -70.500; -732.000; -645.000
390.890;  147.900;   -4.000; -130.000
391.019;  -21.100; -421.000; -441.000
391.148; -180.300; -826.000; -855.000
391.277;  -93.500; -576.000; -493.000
391.406; -102.500; -821.000; -805.000
391.534;  103.700;  574.000; -301.000
391.663;  -58.000; -583.000; -645.000
391.792; -106.800; -673.000; -701.000
391.921;  206.500;   -3.000;   15.000
392.050;  429.000; -287.000; -228.000
392.178;  -42.000;-1206.000;-1061.000
392.307;  328.300; -758.000; -712.000
392.436;  192.400; -427.000; -641.000
392.564;   88.000;  166.000;   -6.000
392.693; -103.200; -860.000; -682.000
392.822;  455.800; -529.000; -534.000
392.950;  204.500; -880.000; -714.000
393.079;  678.200; -188.000; -328.000
393.208;  102.300; -488.000; -511.000
393.336;   46.000; -170.000; -145.000
393.465;  -48.400; -317.000; -199.000
393.593;   84.100;   62.000;   79.000
393.722; -257.100;-1121.000; -916.000
393.850;  -27.000; -188.000;  -61.000
393.979; -227.300; -926.000; -805.000
394.107;  -76.300; -517.000; -537.000
394.236;    1.500; -570.000; -507.000
394.364;  617.100;  383.000;  206.000
394.493;  937.200; -911.000; -767.000
394.621;   46.600; -955.000; -916.000
394.750; 1386.500; -873.000; -923.000
394.878; 5552.900; -247.000; -149.000
395.007; 7127.700; -721.000; -807.000
395.135;  515.100; -790.000; -721.000
395.263; -155.500;-1038.000;-1040.000
395.392;   70.700;  -25.000; -107.000
395.520; -221.000; -818.000; -679.000
395.648; -148.700; -865.000; -915.000
395.777;   34.800; -366.000; -405.000
395.905;  -39.300; -449.000; -564.000
396.033;  114.000;  217.000;  172.000
396.162; 1622.000; -399.000; -453.000
396.290; 1333.500;  -17.000;   -2.000
396.418;  266.700; -555.000; -514.000
396.546; -115.600; -571.000; -466.000
396.674; -139.900; -850.000; -878.000
396.803;   86.500;  -72.000;  -23.000
396.931;  258.500; -179.000; -199.000
397.059;  159.400;-1026.000; -989.000
397.187; -189.500;-1026.000; -975.000
397.315; -245.400; -884.000; -649.000
397.443; -138.400; -592.000; -443.000
397.572;  -93.100; -578.000; -424.000
397.700;   28.800; -607.000; -614.000
397.828;   68.400;  120.000;  -90.000
397.956;  -51.900; -508.000; -478.000
398.084;  -71.700; -767.000; -626.000
398.212;  121.300;  137.000;  124.000
398.340;   99.200;  -56.000;  159.000
398.468;  118.100; -390.000; -169.000
398.596; -211.600; -993.000; -953.000
398.724; -207.800; -762.000; -767.000
398.852; -261.400;-1024.000; -976.000
398.980;  -66.900; -560.000; -560.000
399.108;  -75.300; -982.000; -735.000
399.236;  125.200;   13.000;    8.000
399.363;   92.100;  222.000;  196.000
399.491;  -79.500; -404.000; -398.000
399.619; -185.700; -829.000; -800.000
399.747; -163.400; -859.000; -771.000
399.875;  233.400;  220.000;  234.000
400.003;  -82.900; -359.000; -284.000
400.130; -117.800; -421.000; -341.000
400.258;  -13.500;  -83.000;   38.000
400.386;  -39.300; -352.000; -168.000
400.514;  -33.900; -526.000; -587.000
400.641; -119.100; -928.000; -802.000
400.769; -229.700; -979.000; -888.000
400.897; -129.600; -838.000; -793.000
401.025;   33.200; -166.000; -152.000
401.152;   69.000;  220.000;   38.000
401.280; -110.900; -430.000; -429.000
401.408; -165.800; -712.000; -576.000
401.535; -137.300; -735.000; -758.000
401.663; -324.800;-1134.000;-1054.000
401.790;  -93.600; -514.000; -525.000
401.918;  169.400;  436.000;  405.000
402.046;   17.100;  134.000;  122.000
402.173;  -15.700;  -18.000;    7.000
402.301;  -75.300; -519.000; -397.000
402.428;  158.600;  528.000;  383.000
402.556; -214.000;-1188.000; -913.000
402.683;    2.000;  -20.000;   -1.000
402.811;    6.700;  -37.000; -206.000
402.938;   45.900;   20.000;   27.000
403.066;  455.400; -574.000; -558.000
403.193;  650.300;  299.000;  239.000
403.321;  531.400; -396.000; -574.000
403.448;  652.100;   83.000;   27.000
403.575;  320.700;  -90.000;  -46.000
403.703; -111.000; -732.000; -557.000
403.830;  -71.800; -531.000; -496.000
403.957; -202.000;-1117.000;-1023.000
404.085;   90.000;  -61.000; -172.000
404.212;  277.700;  -50.000;   63.000
404.339;  543.000; -566.000; -306.000
404.467;10864.000; -612.000; -524.000
404.594; 6942.100; -287.000; -227.000
404.721; 1663.800; -869.000; -764.000
404.848;  207.400; -113.000; -202.000
404.976; -167.400; -856.000; -783.000
405.103;   76.000;  -14.000;  -82.000
405.230;   81.400;  190.000;  226.000
405.357;   65.000;  117.000;   44.000
405.484;  607.200;  -49.000;    5.000
405.612;  142.400; -548.000; -563.000
405.739;  -72.400; -488.000; -243.000
405.866;  235.300;  669.000;  385.000
405.993;  -34.300; -398.000; -102.000
406.120; -242.000; -801.000; -887.000
406.247;  -49.200; -323.000; -342.000
406.374; 1018.300;  540.000;  629.000
406.501;  243.500; -632.000; -702.000
406.628; -115.200; -621.000; -589.000
406.755; -147.000; -803.000; -620.000
406.882;   -5.300; -228.000; -277.000
407.009; -153.200; -719.000; -628.000
407.136;  149.700; -480.000; -401.000
407.263;  322.500; -939.000; -829.000
407.390;  -92.900; -692.000; -614.000
407.517; -244.700;-1139.000;-1187.000
407.644;  -44.300; -332.000; -256.000
407.771;  -55.200; -249.000; -287.000
407.898;  101.100;  168.000;  328.000
408.025;  -82.100; -421.000; -313.000
408.151;   57.900;   82.000;  153.000
408.278;  -39.900; -267.000; -216.000
408.405; -160.100; -931.000; -899.000
408.532;  -44.300; -549.000; -542.000
408.659; -198.200; -677.000; -648.000
408.785; -328.600;-1298.000;-1170.000
408.912;  -61.500; -412.000; -296.000
409.039; -175.000; -610.000; -686.000
409.166; -156.900; -591.000; -555.000
409.292; -169.800; -571.000; -534.000
409.419; -195.900; -665.000; -649.000
409.546;  -90.200; -431.000; -192.000
409.672; -156.500; -713.000; -545.000
409.799;    5.700;  -36.000;   34.000
409.926;  -42.400; -180.000; -179.000
410.052; -297.100;-1127.000;-1091.000
410.179;  -67.800; -368.000; -392.000
410.305; -111.100; -375.000; -493.000
410.432;  -44.100; -220.000; -333.000
410.558; -104.000; -305.000; -380.000
410.685; -143.500; -688.000; -431.000
410.812; -112.700; -409.000; -588.000
410.938; -227.400; -964.000; -808.000
411.065; -150.500; -671.000; -645.000
411.191;   29.100; -189.000; -174.000
411.317; -204.700; -823.000; -742.000
411.444;  -43.800; -317.000; -246.000
411.570; -101.200; -339.000; -294.000
411.697; -202.700; -758.000; -752.000
411.823; -297.100; -989.000; -999.000
411.949;   14.400;  -56.000;   17.000
412.076; -147.800; -539.000; -519.000
412.202; -191.800; -758.000; -757.000
412.329; -177.800; -798.000; -752.000
412.455; -184.800; -821.000; -657.000
412.581;  -17.900;  -15.000;  172.000
412.707;  -89.700; -540.000; -457.000
412.834;  119.900;  156.000;  219.000
412.960; -108.000; -785.000; -784.000
413.086; -143.400; -743.000; -701.000
413.212;  393.300;  604.000;  578.000
413.339;  -89.900; -685.000; -701.000
413.465;   32.300; -364.000; -310.000
413.591; -126.100; -757.000; -474.000
413.717;  -44.300; -358.000; -366.000
413.843; -222.300; -839.000; -861.000
413.969;  -71.100;  -47.000; -292.000
414.096; -120.600; -679.000; -679.000
414.222;   79.600;  -33.000;   85.000
414.348;    8.800; -652.000; -385.000
414.474;  234.300;   38.000;  -52.000
414.600;   44.000; -126.000; -144.000
414.726;   31.300;  -96.000;  -55.000
414.852;  -38.800; -365.000; -342.000
414.978;  164.400;  104.000;  -18.000
415.104;  145.500;   38.000;   80.000
415.230;  110.900; -329.000; -330.000
415.356;  130.200; -409.000; -514.000
415.482;  470.600;   13.000;  -35.000
415.608;  562.600; -247.000; -323.000
415.734; 1901.000;   67.000;   38.000
415.860;38832.000; -875.000; -767.000
415.986;25330.100; -685.000; -607.000
416.111; 2137.400; -798.000; -652.000
416.237;  474.200; -424.000; -571.000
416.363; 2279.900; -765.000; -733.000
416.489; 7588.900; -324.000; -251.000
416.615;  708.700; -707.000; -742.000
416.741;  -52.300; -677.000; -784.000
416.866; -124.800; -673.000; -736.000
416.992; -188.600; -801.000; -818.000
417.118;   15.600;  -41.000;  -80.000
417.244;  -91.600; -798.000; -531.000
417.369;  -83.300; -801.000; -612.000
417.495;   45.200; -325.000; -254.000
417.621;  -95.000;-1015.000; -803.000
417.746;   97.300; -579.000; -572.000
417.872;  196.500; -254.000; -144.000
417.998;  143.400; -515.000; -530.000
418.123; 2169.100;-1073.000; -845.000
418.249; 9836.600; -512.000; -601.000
418.374; 1262.000; -916.000; -824.000
418.500;  238.900; -383.000; -482.000
418.626;  272.700;   70.000;  -59.000
418.751;  259.200; -549.000; -448.000
418.877;  397.700; -637.000; -643.000
419.002; 3739.900; -688.000; -560.000
419.128;23297.700; -930.000; -721.000
419.253; 5111.400; -967.000; -837.000
419.379;  775.000; -391.000; -338.000
419.504;  767.700;  325.000;  415.000
419.629;  963.200; -393.000; -212.000
419.755; 7099.000; -317.000; -254.000
419.880;37633.800;  -98.000;   67.000
420.006;21710.100; -280.000; -221.000
420.131;52945.200; -662.000; -775.000
420.256; 6923.100; -315.000; -316.000
420.382;  997.700; -665.000; -687.000
420.507;  157.900; -649.000; -778.000
420.632;  328.400; -337.000; -339.000
420.758;  524.500; -251.000; -425.000
420.883; -119.100; -876.000; -672.000
421.008; -119.600; -775.000; -619.000
421.133;  -73.300; -509.000; -467.000
421.259;  -35.500; -325.000; -259.000
421.384; -165.800; -834.000; -693.000
421.509;  -25.900;-1052.000; -862.000
421.634; 2337.900; -936.000; -820.000
421.759;  921.100; -359.000; -327.000
421.885;  -68.400; -717.000; -656.000
422.010;  -81.000; -673.000; -542.000
422.135; -197.000; -695.000; -727.000
422.260;  119.300;  340.000;  280.000
422.385;   12.100;   12.000;  -98.000
422.510;   96.100;  151.000;  -26.000
422.635;  118.600;  -87.000;  -43.000
422.760;  234.200; -766.000; -791.000
422.885;  155.100;  -57.000;  -80.000
423.010;   24.800; -112.000; -169.000
423.135; -139.100; -481.000; -561.000
423.260;   33.200; -150.000; -245.000
423.385;  224.600;  476.000;  222.000
423.510;  143.700;   71.000;  -22.000
423.635;  232.300;  133.000;   45.000
423.760;  176.700;  383.000;  328.000
423.885;  198.300;  336.000;  391.000
424.010;   82.500;  -68.000;  -13.000
424.135;   59.300;    5.000;  -33.000
424.259;  -86.500; -654.000; -457.000
424.384;  -50.300; -279.000; -272.000
424.509;    3.600; -260.000; -186.000
424.634; -156.200; -761.000; -623.000
424.759;    8.600; -688.000; -544.000
424.883;   30.400; -506.000; -527.000
425.008;  395.600; -502.000; -410.000
425.133; 3922.800; -679.000; -653.000
425.258; 1598.200; -517.000; -381.000
425.382; 2127.400; -867.000; -774.000
425.507; 4758.800; -487.000; -543.000
425.632;  745.700; -802.000; -663.000
425.756;  872.900; -256.000; -146.000
425.881;12685.600; -831.000; -857.000
426.006;30620.400; -604.000; -355.000
426.130; 4436.100; -696.000; -508.000
426.255;  642.700; -611.000; -491.000
426.379;  365.800; -189.000; -577.000
426.504;  844.200;  660.000;  544.000
426.629; 7949.900; -519.000; -466.000
426.753; 4851.500;   64.000;  -46.000
426.878;  609.700; -252.000; -288.000
427.002;  291.500; -651.000; -668.000
427.127; 3274.100;  -35.000; -158.000
427.251;21462.400;  372.000;  401.000
427.375; 5426.000; -191.000; -173.000
427.500; 4357.000; -616.000; -610.000
427.624; 1397.700; -234.000; -400.000
427.749;  233.700; -216.000; -225.000
427.873;   -2.100; -499.000; -412.000
427.997;  -13.300; -222.000; -230.000
428.122;  241.500;  795.000;  703.000
428.246;  217.900;  433.000;  434.000
428.371; -205.400; -869.000; -773.000
428.495; -170.200; -624.000; -646.000
428.619;   49.500; -186.000; -117.000
428.743;  104.200;   65.000;  132.000
428.868;   81.300; -732.000; -643.000
428.992; 2730.400; -219.000; -326.000
429.116; 1022.900; -329.000; -357.000
429.240;  591.800;  419.000;  426.000
429.365;   14.900; -454.000; -574.000
429.489;  -31.400; -638.000; -647.000
429.613;   88.200; -236.000; -177.000
429.737;  144.300; -563.000; -432.000
429.861;  610.700; -247.000; -133.000
429.985;10965.000; -425.000; -305.000
430.109;10824.000; -770.000; -908.000
430.234; 1258.000;   76.000;  -50.000
430.358;  188.600; -250.000; -160.000
430.482;  -87.400; -672.000; -564.000
430.606;  -35.200; -655.000; -375.000
430.730;   80.500; -437.000; -388.000
430.854;  297.500; -909.000; -835.000
430.978;  -57.100; -795.000; -764.000
431.102;  -89.200; -499.000; -422.000
431.226; -156.400; -874.000; -815.000
431.350;  163.500;  345.000;  422.000
431.474;  -86.700; -661.000; -373.000
431.597; -249.200;-1060.000; -848.000
431.721;  -74.800; -276.000; -267.000
431.845; -188.600; -704.000; -472.000
431.969;  -97.800; -304.000; -349.000
432.093; -108.800; -395.000; -317.000
432.217;   24.600;   32.000;   82.000
432.341; -101.300; -523.000; -518.000
432.464;   95.700;   96.000;   40.000
432.588;  482.400; -401.000; -329.000
432.712;  212.900;  -52.000;  -52.000
432.836;  160.800;  213.000;  263.000
432.959;   14.800; -372.000; -311.000
433.083;  230.900;   11.000;    2.000
433.207;  797.900;  285.000;  930.000
433.330; 9843.100; -391.000; -200.000
433.454;11032.600; -654.000; -638.000
433.578; 6566.600;  583.000;  278.000
433.701; 1061.800; -623.000; -675.000
433.825;  297.400; -292.000; -299.000
433.949;  389.800;   28.000;  -72.000
434.072;  161.100; -410.000; -323.000
434.196;   22.200; -309.000; -117.000
434.319; 7947.100;25482.000;25124.000
434.443; 1558.200; -656.000; -603.000
434.566; 4970.000;  281.000;   62.000
434.690;  722.100; -637.000; -383.000
434.813;  171.900; -251.000; -173.000
434.937;  -73.500; -569.000; -696.000
435.060;  -19.400; -423.000; -332.000
435.184;  691.800; -492.000; -217.000
435.307;  417.300;  159.000;  102.000
435.431;   23.700;  -40.000;   24.000
435.554;  -51.000; -399.000; -240.000
435.677;  -86.700; -350.000; -258.000
435.801;   -9.500;  -25.000;   49.000
435.924;   36.800;    1.000;  -67.000
436.048; -173.600;-1019.000; -732.000
436.171;  -65.600; -240.000;  -66.000
436.294;    6.400; -248.000; -229.000
436.417;  212.600; -963.000; -849.000
436.541; -127.700; -814.000; -840.000
436.664;  -66.300; -242.000; -316.000
436.787;   48.000;   13.000;  113.000
436.910; -179.300; -792.000; -422.000
437.034;  134.800;  142.000;  143.000
437.157;  189.000;  -11.000;    0.000
437.280;  -34.300; -392.000; -292.000
437.403;  -91.100; -982.000; -869.000
437.526; 1374.000; -903.000; -865.000
437.649; 4357.600; -505.000; -332.000
437.772;  599.200; -692.000; -540.000
437.896;  303.600;  700.000;  544.000
438.019; -134.100; -758.000; -503.000
438.142;  -94.200; -596.000; -506.000
438.265;   65.100; -639.000; -670.000
438.388; 1228.300; -520.000; -410.000
438.511;  193.100; -597.000; -394.000
438.634;  -48.500; -247.000; -125.000
438.757; -227.200; -693.000; -619.000
438.880;   14.200;  -34.000;  -57.000
439.003;  -88.700; -417.000; -437.000
439.126;  -68.700; -287.000; -167.000
439.248;  -55.600;  -98.000; -139.000
439.371;  -23.000;    9.000;  -53.000
439.494;  143.100;  510.000;  439.000
439.617;  -30.300;   65.000;  -88.000
439.740; -285.600; -968.000; -816.000
439.863; -190.900; -755.000; -595.000
439.986; -161.100; -476.000; -431.000
440.108;  -45.400; -161.000; -112.000
440.231; -262.500; -950.000; -836.000
440.354;  -19.800;  -64.000; -150.000
440.477;  135.600; -566.000; -542.000
440.599;   69.700; -200.000; -225.000
440.722; -164.600; -709.000; -586.000
440.845;  238.100;  751.000;  928.000
440.968; -157.800; -415.000; -311.000
441.090;  -65.700; -199.000;  -33.000
441.213; -281.000;-1021.000; -825.000
441.336;  -42.500; -159.000;   -5.000
441.458;  -46.200; -549.000; -396.000
441.581; -113.000; -628.000; -629.000
441.703;  -40.100; -152.000;   13.000
441.826; -180.800; -557.000; -400.000
441.948;  -18.500;   56.000;   51.000
442.071;  140.800;  555.000;  424.000
442.193; -165.900; -531.000; -485.000
442.316;   93.000;  152.000;   97.000
442.438;  125.300; -233.000;  -10.000
442.561;  211.900;  272.000;  262.000
442.683; 1204.700; -809.000; -522.000
442.806; 2223.500;   -8.000;   74.000
442.928;   53.500; -859.000; -604.000
443.051;  -88.400; -577.000; -373.000
443.173; -123.300; -341.000; -339.000
443.295; -113.100; -263.000; -371.000
443.418;  -82.500; -321.000;  -29.000
443.540;   37.400; -106.000;   -4.000
443.662; -164.800; -563.000; -465.000
443.785;   53.000;  335.000;  199.000
443.907; -136.400; -362.000; -208.000
444.029; -192.400; -767.000; -494.000
444.152; -250.000; -644.000; -554.000
444.274;   18.900;  -18.000;  -24.000
444.396; -148.100; -461.000; -221.000
444.518; -207.500; -691.000; -454.000
444.640; -134.200; -268.000; -111.000
444.763;    4.800;  388.000;  249.000
444.885; -159.800; -432.000; -392.000
445.007;   -4.000;   35.000;   86.000
445.129; -163.000; -610.000; -515.000
445.251; -111.300; -372.000; -439.000
445.373; -202.000; -537.000; -386.000
445.495;   88.300;  242.000;  350.000
445.617;  178.700;  853.000;  753.000
445.739;  -26.800; -215.000;  -97.000
445.861;   12.100; -245.000; -112.000
445.984;   10.100; -267.000; -101.000
446.105;  509.200; -418.000; -251.000
446.227; 1189.600; -176.000;  -19.000
446.349;   21.600; -358.000; -249.000
446.471; -159.600; -615.000; -448.000
446.593;  -51.300; -316.000;   19.000
446.715;   41.300;  -67.000;   41.000
446.837;  203.100;  697.000;  832.000
446.959; -149.600; -457.000; -478.000
447.081; -181.200; -628.000; -518.000
447.203;  186.000;  862.000;  834.000
447.325; -116.200; -270.000;   42.000
447.446;   86.000;  286.000;  530.000
447.568; -257.800; -921.000; -803.000
447.690; -104.900; -236.000; -245.000
447.812; -208.300; -798.000; -519.000
447.933;   18.800;  155.000;  127.000
448.055;  -56.900; -306.000; -261.000
448.177;  375.200;   31.000;   79.000
448.299;  226.700; -935.000; -727.000
448.420;  101.700;  -25.000;  159.000
448.542;  -13.700;   -3.000;   33.000
448.664;   27.700;  109.000;  322.000
448.785;   51.300;  265.000;   83.000
448.907;  -87.400; -614.000; -353.000
449.028;  -26.800; -771.000; -471.000
449.150;  182.700;  492.000;  589.000
449.272; -283.800;-1044.000; -913.000
449.393;  122.600;  612.000;  694.000
449.515; -176.800; -634.000; -581.000
449.636;  -31.800; -264.000; -155.000
449.758;  227.400;  763.000;  622.000
449.879; -139.200; -498.000; -396.000
450.001;  -98.300; -149.000;  -49.000
450.122;  -26.900;  -95.000;  162.000
450.244;   51.700;   37.000;  364.000
450.365; -136.000; -495.000; -301.000
450.486;   10.800;   80.000;  268.000
450.608;  141.700;  393.000;  326.000
450.729;  250.900;  578.000;  645.000
450.850;   87.400; -574.000; -466.000
450.972; 1538.000; -552.000; -389.000
451.093; 9137.500;  190.000;  588.000
451.214; 3535.200; -516.000; -337.000
451.336;  722.300;  773.000;  579.000
451.457;  186.700;  264.000;  393.000
451.578;   12.000; -118.000;  -74.000
451.699; -158.800; -546.000; -540.000
451.821;  -74.900; -284.000;  -50.000
451.942;   49.100;  278.000;  285.000
452.063;  151.900;  228.000;  419.000
452.184; 1205.000;  -54.000;  -49.000
452.305; 2087.900;  103.000;  170.000
452.427;  254.100; -549.000; -301.000
452.548;   21.100;   23.000;   79.000
452.669;    0.600; -257.000;  -89.000
452.790;  -13.000;    3.000;  -18.000
452.911;   83.000;  195.000;  259.000
453.032;  -75.000; -289.000;  -60.000
453.153;   11.400;  -29.000;   81.000
453.274;  210.700;  737.000;  868.000
453.395;  -40.400;  -51.000;  175.000
453.516;  335.700; 1317.000; 1388.000
453.637;  -67.000; -205.000; -150.000
453.758;  -14.100;   15.000;   69.000
453.879; -123.100; -462.000; -250.000
454.000;  235.000; 1086.000;  948.000
454.121; -133.500; -554.000; -326.000
454.242; -186.500; -599.000; -383.000
454.362;  -53.400;  -99.000;  114.000
454.483;   -6.300; -309.000; -229.000
454.604;  225.000;  512.000;  580.000
454.725; -211.400; -627.000; -555.000
454.846; -188.200; -474.000; -406.000
454.967;   17.100;  230.000;  539.000
455.087;   20.300;  179.000;  153.000
455.208;  124.400;  554.000;  856.000
455.329;  -25.000;  -22.000;   82.000
455.450;  140.800;  473.000;  633.000
455.570;  -70.600; -234.000; -211.000
455.691;  -17.300;  201.000;  407.000
455.812; -124.100; -270.000;  -92.000
455.932;  -52.600;  107.000;  -97.000
456.053;  -77.500;   36.000;   24.000
456.173; -143.400; -433.000; -355.000
456.294; -201.000; -476.000; -303.000
456.415;  -74.200;  -73.000;   70.000
456.535;   30.700;  297.000;  273.000
456.656;   25.300;  132.000;  240.000
456.776;  -83.900;    3.000;  298.000
456.897;   63.700;  308.000;  513.000
457.017;  -78.500; -153.000;   -3.000
457.138; -162.900; -402.000; -249.000
457.258;   55.800;  263.000;  224.000
457.379;   65.900;  509.000;  521.000
457.499;   38.400;  443.000;  432.000
457.620; -175.400; -407.000; -231.000
457.740; -126.800; -132.000;  -11.000
457.860;  -58.300;   87.000;   44.000
457.981;    8.600;  132.000;  124.000
458.101;  -79.400;  -89.000;   40.000
458.221;   20.100;  336.000;  402.000
458.342;  -48.000;   -4.000;  -37.000
458.462;  130.200;  617.000;  352.000
458.582;   12.100; -302.000; -294.000
458.703;   89.100;  303.000;  154.000
458.823;    2.000;   22.000;  163.000
458.943;  128.500;  341.000;  467.000
459.063;   18.800; 1124.000;  192.000
459.183;   32.800;  328.000;  313.000
459.304;   70.400;  315.000;  517.000
459.424;  -34.600; -246.000;  -89.000
459.544;  763.900;  388.000;  764.000
459.664; 1588.700;  499.000;  506.000
459.784;  587.900; 1004.000; 1175.000
459.904;  173.800;  867.000;  744.000
460.024;  207.700;  867.000;  684.000
460.144;   72.800;  449.000;  554.000
460.264;   30.700;  515.000;  327.000
460.385;  -86.800; -145.000; -119.000
460.505;  163.600;  905.000;  858.000
460.625;  -87.500;  -17.000;  -68.000
460.745;   23.700;  396.000;  541.000
460.864;   -8.100;  153.000;  469.000
460.984;   81.900;  499.000;  573.000
461.104;  371.500; 1656.000; 1775.000
461.224;  108.900;  657.000;  650.000
461.344;  -33.800;  431.000;  360.000
461.464;  -20.300;  258.000;  513.000
461.584;   41.900;  283.000;  466.000
461.704;  -54.800;   58.000;  108.000
461.824;  -23.700;  238.000;  259.000
461.943;   -6.400;  191.000;  130.000
462.063;  -79.300;    2.000;  324.000
462.183;  157.800;  639.000;  717.000
462.303;  360.000; 1678.000; 1230.000
462.422;  122.400;  781.000;  840.000
462.542;   23.800;  271.000;  391.000
462.662;  147.300;  353.000;  380.000
462.782;  566.000;  833.000;  572.000
462.901;  954.600;  545.000;  717.000
463.021;  610.000; 1702.000; 1638.000
463.141;   63.700;  337.000;  770.000
463.260;   46.900;  614.000;  474.000
463.380;  118.400;  902.000;  884.000
463.499;    2.800;  342.000;  332.000
463.619;   -9.900;  581.000;  559.000
463.738;  346.700; 1644.000;  903.000
463.858;   82.300;  657.000;  811.000
463.978;  -10.400;  542.000;  396.000
464.097;  202.900;  921.000; 1114.000
464.217;  309.300; 1196.000; 1143.000
464.336;  294.700; 1068.000; 1130.000
464.455;   10.300;  328.000;  659.000
464.575;  129.800;  597.000;  602.000
464.694;  419.200; 1204.000; 1179.000
464.814;  291.400; 1190.000; 1138.000
464.933;  208.500; 1095.000; 1027.000
465.052;  288.200; 1412.000; 1054.000
465.172;  240.100;  922.000;  799.000
465.291;  391.800; 1376.000; 1320.000
465.410;   88.900;  462.000;  735.000
465.530;  286.100; 1355.000; 1310.000
465.649;  210.800; 1209.000; 1273.000
465.768;  361.000; 1673.000; 1508.000
465.888;  219.200;  941.000; 1174.000
466.007;  292.100; 1335.000; 1440.000
466.126;   94.400;  721.000;  641.000
466.245;  159.900; 1176.000; 1187.000
466.364;  131.600;  950.000; 1060.000
466.484;  205.000; 1024.000; 1213.000
466.603;  160.000; 1101.000; 1222.000
466.722;  274.900; 1490.000; 1769.000
466.841;  243.900; 1151.000; 1401.000
466.960;  195.600; 1069.000;  972.000
467.079;  365.500; 1971.000; 1786.000
467.198;  189.200; 1238.000; 1181.000
467.317;  260.600; 1768.000; 1162.000
467.436;  236.000; 1709.000; 1261.000
467.555;  383.400; 1796.000; 1746.000
467.674;  208.900; 1227.000; 1329.000
467.793;  223.200; 1376.000; 1374.000
467.912;  244.200; 1658.000; 1539.000
468.031;  336.400; 2038.000; 1930.000
468.150;  358.900; 1842.000; 1837.000
468.269;  481.100; 2313.000; 2090.000
468.388;  447.600; 2168.000; 2339.000
468.507;  638.000; 2884.000; 2903.000
468.626;  631.200; 2555.000; 2541.000
468.744;  328.500; 2018.000; 2174.000
468.863;  528.800; 2312.000; 2523.000
468.982;  260.200; 1503.000; 1555.000
469.101;  520.500; 2788.000; 2692.000
469.220;  400.600; 2333.000; 2176.000
469.338;  598.200; 2935.000; 3051.000
469.457;  475.200; 2719.000; 2545.000
469.576;  767.500; 3953.000; 3784.000
469.695;  560.700; 2877.000; 3066.000
469.813;  930.600; 4148.000; 4192.000
469.932;  913.500; 4255.000; 4485.000
470.051;  985.800; 4075.000; 4161.000
470.169; 1754.700; 4470.000; 4338.000
470.288; 2979.600; 4700.000; 4809.000
470.406; 1714.900; 5059.000; 5194.000
470.525; 1306.300; 6101.000; 5787.000
470.644; 1428.600; 6847.000; 6794.000
470.762; 1735.400; 8397.000; 7873.000
470.881; 1982.800; 8651.000; 8464.000
470.999; 2210.500; 9685.000; 9151.000
471.118; 2373.800;11174.000;10711.000

