
Integration time [ms]: 100.000
Averaging Nr. [scans]: 40
Smoothing Nr. [pixels]: 0
Data measured with spectrometer [name]: 2101012U2
Wave   ;Sample   ;Dark     ;Reference
[nm]   ;[counts] ;[counts] ;[counts] 

197.733;   55.925;  516.000;  404.000
197.879;  -79.750; -610.000; -634.000
198.025;  -38.825; -475.000; -420.000
198.171;  -76.625; -602.000; -612.000
198.317;  -24.700; -401.000; -316.000
198.463;  -54.050; -655.000; -404.000
198.609;   24.825;  181.000; -137.000
198.755;  -73.850; -644.000; -410.000
198.901;  -52.525; -505.000; -424.000
199.047;  -59.500; -615.000; -488.000
199.193;  -30.025; -230.000; -468.000
199.339;  -54.150; -222.000; -369.000
199.485;   50.575;  330.000;  271.000
199.631;   16.525;  227.000;  310.000
199.777;  -38.275; -466.000; -398.000
199.923;  -56.575; -610.000; -424.000
200.069;    4.050; -141.000;  -58.000
200.215;   60.125;  128.000;  453.000
200.361;   51.925;  243.000;  477.000
200.507;  -64.775; -600.000; -373.000
200.653;  -11.275; -371.000; -194.000
200.798;  -27.525; -215.000; -125.000
200.944;    4.275; -146.000;  -41.000
201.090;   36.900;   61.000;  222.000
201.236;    7.075; -116.000; -158.000
201.382;  108.500;  874.000;  903.000
201.528;   13.225;  -58.000;  -48.000
201.674;  -60.175; -386.000; -293.000
201.819;  -49.725; -540.000; -439.000
201.965;  -80.000; -699.000; -447.000
202.111;  -12.900; -273.000; -226.000
202.257;  -41.425; -250.000; -238.000
202.402;   -0.900;   13.000;  -36.000
202.548;  -23.675; -169.000; -116.000
202.694;   82.450;  410.000; -183.000
202.840;  -72.650; -603.000; -531.000
202.985;  -55.700; -681.000; -639.000
203.131; -103.450; -832.000; -666.000
203.277;   -7.850; -199.000; -262.000
203.423;  -51.400; -434.000; -520.000
203.568;  -36.275; -462.000; -237.000
203.714;  -57.225; -535.000; -542.000
203.860;  -64.325; -682.000; -641.000
204.005;   12.050;  112.000;  167.000
204.151;   77.075;  561.000;  556.000
204.296;  -44.525; -354.000; -221.000
204.442;  -68.225; -600.000; -547.000
204.588;  -85.275; -592.000; -579.000
204.733;   25.150;  178.000;  168.000
204.879; -121.350;-1018.000; -822.000
205.025;   17.950;  -99.000;  126.000
205.170;  -10.175;  -17.000;   94.000
205.316;   85.550;  438.000;  661.000
205.461;  -86.700; -698.000; -554.000
205.607;   83.825;  609.000;  665.000
205.752;  -79.625; -626.000; -551.000
205.898;  -44.900; -501.000; -391.000
206.043;  -49.300; -578.000; -506.000
206.189;  -27.100; -243.000; -285.000
206.334;   66.750;  554.000;  606.000
206.480;   85.425;  409.000;  239.000
206.625;  -74.800; -529.000; -552.000
206.771;  -37.600; -451.000; -373.000
206.916;  -33.875; -210.000; -537.000
207.062;  -61.350; -545.000; -591.000
207.207;  -58.375; -546.000; -443.000
207.353;   53.925;  185.000;  460.000
207.498;   -3.450;  196.000;   85.000
207.643;  -37.000; -501.000; -370.000
207.789; -119.400;-1069.000; -910.000
207.934;  -77.050; -665.000; -713.000
208.080;  -31.025; -154.000;   66.000
208.225;    1.250;  -22.000;  -57.000
208.370;  -91.225; -727.000; -619.000
208.516;  -75.225; -741.000; -487.000
208.661;  -32.600; -127.000;  -69.000
208.806;   -5.075; -165.000; -171.000
208.952; -116.425;-1044.000; -731.000
209.097;   86.075;  378.000;  349.000
209.242;  -49.425; -307.000; -382.000
209.387;   84.300;  392.000;  350.000
209.533;  -49.000; -321.000; -350.000
209.678;   81.100;  472.000;  543.000
209.823;  -42.700; -408.000; -310.000
209.969;  -79.175; -860.000; -757.000
210.114; -106.100; -907.000; -719.000
210.259;  -98.675; -939.000; -889.000
210.404;  -16.625; -171.000;  103.000
210.549;    2.025;  108.000;    3.000
210.695;  -30.250;   -3.000;  -95.000
210.840;   30.900;   94.000;   67.000
210.985;  -55.125; -484.000; -303.000
211.130;   74.825;  268.000;  406.000
211.275;    6.325;  207.000;  199.000
211.420;  -26.525; -300.000; -289.000
211.566;  -76.175; -536.000; -489.000
211.711;   26.175;  218.000;  157.000
211.856;  -60.550; -545.000; -519.000
212.001;   16.075;  151.000;   44.000
212.146;   19.300;  153.000;   49.000
212.291;  -19.150; -210.000; -186.000
212.436;  -32.300; -280.000;   -6.000
212.581;  -72.100; -685.000; -653.000
212.726;  -66.675; -487.000; -538.000
212.871;  -48.150; -552.000; -217.000
213.016; -145.300;-1172.000;-1029.000
213.161;   59.200;  406.000;  291.000
213.306;  -70.200; -435.000; -577.000
213.451;  -75.700; -778.000; -689.000
213.596;  -43.500; -455.000; -347.000
213.741;  -33.750; -448.000; -538.000
213.886;  -75.875; -498.000; -517.000
214.031;  -15.200; -294.000; -124.000
214.176;  -41.350; -408.000; -341.000
214.321;   -5.100; -296.000; -157.000
214.466;  -25.625; -163.000;  -43.000
214.611;   16.725;  -61.000;  -10.000
214.756;  -99.200; -948.000; -858.000
214.901;  -16.125; -388.000; -226.000
215.046; -119.825; -797.000; -825.000
215.191;   26.175;  128.000;   35.000
215.336;  -14.175; -157.000;  -19.000
215.480;  -52.925; -684.000; -505.000
215.625;  -11.775; -175.000;  -19.000
215.770;  -72.275; -757.000; -662.000
215.915;  -10.325;   -5.000;  -97.000
216.060;   -7.625; -113.000;  -21.000
216.205; -112.950; -731.000; -779.000
216.349;  -71.200; -470.000; -533.000
216.494; -127.000; -939.000; -867.000
216.639; -105.325; -823.000; -888.000
216.784;  -96.250; -577.000; -525.000
216.929;   54.925;  392.000;  281.000
217.073;  -10.975; -244.000;  -31.000
217.218;   11.625;   78.000;  -47.000
217.363;  -81.550; -656.000; -618.000
217.507;  -67.100; -623.000; -588.000
217.652; -115.575; -845.000; -874.000
217.797;  -75.750; -708.000; -659.000
217.942; -103.700; -856.000; -720.000
218.086;   67.375;  608.000;  539.000
218.231;  -16.200; -174.000;  -26.000
218.376;  -21.100; -337.000; -229.000
218.520;    7.850;  -41.000;   96.000
218.665;  -27.575; -338.000; -204.000
218.810;  -48.450; -275.000; -233.000
218.954;   24.825;  201.000;   35.000
219.099; -118.950; -713.000; -963.000
219.243;  -63.325; -589.000; -554.000
219.388;  -31.825; -264.000; -136.000
219.532;  -13.500; -116.000; -116.000
219.677;  -71.175; -564.000; -521.000
219.822;   22.450;   33.000;   89.000
219.966;   -1.300;   17.000;  -99.000
220.111;  -25.850; -328.000;  -40.000
220.255;  -89.600; -797.000; -750.000
220.400;   -5.750; -180.000; -146.000
220.544;  -60.625; -516.000; -450.000
220.689;  -51.100; -422.000; -451.000
220.833;  -24.300; -123.000;  -58.000
220.978;  -28.175; -393.000; -563.000
221.122;   16.500;  319.000;  307.000
221.267; -106.175; -906.000; -837.000
221.411;  -58.250; -478.000; -394.000
221.555;    2.575; -104.000;  -23.000
221.700;  -46.625; -329.000; -222.000
221.844;   37.350;  255.000;  272.000
221.989;  -50.800; -328.000; -311.000
222.133;  -32.850; -289.000; -307.000
222.277;   -5.975;    5.000;   78.000
222.422;   25.400;  227.000;  113.000
222.566;  -40.600; -381.000; -214.000
222.711;  -36.925; -414.000; -479.000
222.855;  -82.800; -643.000; -586.000
222.999;  -70.600; -642.000; -717.000
223.144;  -15.200; -195.000; -194.000
223.288;   55.850;  423.000;  251.000
223.432;   32.500;  184.000;  230.000
223.576;   29.175;  152.000;  -21.000
223.721;   25.675;  364.000;  273.000
223.865;  -45.125; -472.000; -475.000
224.009;  232.050; 1673.000; 1631.000
224.153;  -73.975; -660.000; -671.000
224.298;  -68.500; -531.000; -489.000
224.442;  -17.450;  -74.000;  -33.000
224.586;  -10.475; -169.000; -106.000
224.730;  -91.650; -858.000; -670.000
224.875; -106.150; -739.000; -688.000
225.019;   11.425;  102.000;  188.000
225.163;   51.225;  208.000;  341.000
225.307;   29.350;   97.000;  -91.000
225.451;   47.075;  360.000;  481.000
225.595;   36.925;  264.000;  176.000
225.739;  -22.250; -170.000;  -94.000
225.884;   15.425;   86.000;    5.000
226.028;  -98.350; -760.000; -626.000
226.172;  -34.225; -260.000; -273.000
226.316; -116.375; -941.000; -902.000
226.460;  -65.025; -645.000; -493.000
226.604;  -44.550; -406.000; -400.000
226.748;  -74.100; -836.000; -733.000
226.892;  -39.675; -227.000; -181.000
227.036;  -40.850; -537.000; -447.000
227.180;  -48.075; -551.000; -375.000
227.324;  -53.575; -561.000; -580.000
227.468; -111.625; -819.000; -717.000
227.612;   11.275;  242.000;  -28.000
227.756; -106.600; -845.000; -698.000
227.900;   58.775;  342.000;  441.000
228.044;  -73.050; -509.000; -290.000
228.188;   57.325;  448.000;  568.000
228.332;  -90.725; -546.000; -472.000
228.476;  -18.425; -223.000; -149.000
228.620;  -38.200; -210.000; -150.000
228.764;   69.125;  431.000;  349.000
228.908;  -21.700; -155.000;   30.000
229.052;  -59.675; -615.000; -528.000
229.195;   -7.325; -172.000;   13.000
229.339;  -29.400; -235.000; -305.000
229.483;  -32.650;    5.000; -162.000
229.627;    1.000; -156.000;  139.000
229.771;  -39.825; -218.000; -294.000
229.915;    9.650;  230.000;   79.000
230.059;  -87.450; -648.000; -663.000
230.202;  -28.275; -370.000; -317.000
230.346;  -21.625; -107.000;  107.000
230.490;  -62.125; -489.000; -521.000
230.634; -108.575; -736.000; -553.000
230.777;   69.675;  478.000;  509.000
230.921;  -63.075; -450.000; -359.000
231.065;  -27.925; -246.000; -286.000
231.209;   15.375;  261.000;  265.000
231.352;   24.500;   54.000;   40.000
231.496;   22.250;  568.000;  188.000
231.640;  -63.100; -693.000; -621.000
231.783;   50.725;  546.000;  525.000
231.927;  -29.975; -294.000; -365.000
232.071; -126.825; -962.000; -736.000
232.214;  -96.100; -980.000; -764.000
232.358;  -85.150; -683.000; -599.000
232.502;   12.575;  -19.000;    7.000
232.645; -131.875;-1090.000; -927.000
232.789;  -15.550; -257.000; -218.000
232.933;  -39.025; -407.000; -224.000
233.076; -113.925;-1038.000; -897.000
233.220;  -94.550; -752.000; -777.000
233.363;  -70.125; -669.000; -477.000
233.507;   50.975;  371.000;  129.000
233.650;  -90.600; -764.000; -834.000
233.794;   38.450;  438.000;  461.000
233.938;  -51.925; -530.000; -362.000
234.081;  -21.850;  -93.000;   31.000
234.225;  -67.375; -631.000; -539.000
234.368; -109.450; -773.000; -723.000
234.512;  -33.700; -385.000; -299.000
234.655;  -90.575; -582.000; -555.000
234.798;  -60.600; -493.000; -466.000
234.942; -119.475; -884.000;-1002.000
235.085;  -49.850; -651.000; -443.000
235.229;  -75.975; -405.000; -410.000
235.372;  -40.850; -247.000; -191.000
235.516;  -56.275; -397.000; -321.000
235.659;   23.775;   92.000;  121.000
235.802;  -26.375;  -38.000;  -22.000
235.946;   28.225;  335.000;  215.000
236.089;   18.700;  126.000;  250.000
236.233;   58.125;  275.000;  298.000
236.376;  -33.550; -235.000; -378.000
236.519;  -38.275; -297.000; -319.000
236.663;  -35.300; -215.000; -117.000
236.806; -125.125;-1029.000; -999.000
236.949;   53.575;  543.000;  431.000
237.092;   63.225;  412.000;  391.000
237.236;  -77.400; -589.000; -502.000
237.379;   68.800;  352.000;  428.000
237.522; -113.375; -879.000; -768.000
237.666;   -7.725; -271.000;   18.000
237.809; -114.000; -851.000; -823.000
237.952;   42.775;  469.000;  271.000
238.095;  -67.125; -447.000; -442.000
238.238;   86.000;  688.000;  700.000
238.382;   -2.775;  166.000;  103.000
238.525;  -65.600; -598.000; -511.000
238.668; -122.675;-1060.000; -985.000
238.811;  -75.075; -638.000; -643.000
238.954;  -61.375; -483.000; -334.000
239.097;   84.475;  617.000;  664.000
239.241;   22.625;  394.000;  326.000
239.384;  -25.925; -254.000; -214.000
239.527;  -57.975; -424.000; -224.000
239.670; -138.600; -994.000;-1091.000
239.813; -112.375; -696.000; -658.000
239.956;   78.250;  579.000;  473.000
240.099; -102.550; -778.000; -725.000
240.242;   69.450;  428.000;  432.000
240.385;   42.975;  466.000;  450.000
240.528;  -66.700; -706.000; -473.000
240.671;   -2.850;  189.000;  134.000
240.814;  -34.200; -441.000; -158.000
240.957;  -93.600; -767.000; -578.000
241.100;  -90.575; -779.000; -755.000
241.243; -136.200;-1234.000; -893.000
241.386;  -61.075; -508.000; -379.000
241.529;  -87.600; -735.000; -547.000
241.672;  -51.700; -566.000; -495.000
241.815; -119.125; -832.000; -808.000
241.958;  -19.325; -125.000; -182.000
242.101;  -86.725; -545.000; -390.000
242.244;  -35.675; -270.000; -325.000
242.387;  -35.950; -304.000; -246.000
242.530;   52.325;  470.000;  134.000
242.673;  -49.100; -381.000; -309.000
242.815; -109.100; -925.000; -899.000
242.958;  -63.800; -482.000; -381.000
243.101;   16.350;  132.000;  187.000
243.244;  -79.400; -564.000; -521.000
243.387;  -48.250; -313.000; -316.000
243.530;  -92.225; -657.000; -674.000
243.672;    4.025;   43.000;  -92.000
243.815;  -50.600; -355.000; -283.000
243.958;    2.000;   98.000;  -26.000
244.101;   -2.950;   59.000;  -16.000
244.243;   -5.250;  -47.000;  101.000
244.386; -100.500; -761.000; -630.000
244.529;  -17.350; -132.000; -139.000
244.672; -155.525;-1154.000; -951.000
244.814;  -81.125; -621.000; -794.000
244.957;  -58.050; -380.000; -304.000
245.100;  -51.200; -489.000; -489.000
245.242;  -51.025; -387.000; -374.000
245.385;   -1.425;  -59.000;  -39.000
245.528; -118.625; -871.000; -705.000
245.670;   93.825;  612.000;  634.000
245.813;  -92.525; -599.000; -547.000
245.956;  -28.875; -324.000; -275.000
246.098;  -66.125; -508.000; -650.000
246.241;    2.425;  194.000;   48.000
246.383;  -24.500; -119.000;  -73.000
246.526;  -60.125; -454.000; -525.000
246.669; -110.725; -889.000; -780.000
246.811;   23.200;  172.000;   -1.000
246.954;  -70.650; -512.000; -426.000
247.096;  -15.000;  -84.000;   -6.000
247.239;  -65.825; -482.000; -445.000
247.381;  -64.475; -647.000; -488.000
247.524;   78.400;  645.000;  679.000
247.666;    8.175;   58.000;   11.000
247.809; -118.625; -887.000; -691.000
247.951;  -10.550;  -75.000;  138.000
248.094;   27.500;  432.000;  308.000
248.236; -144.650;-1262.000;-1238.000
248.378;  -35.400; -356.000;  -81.000
248.521;  -41.950; -334.000; -337.000
248.663;  -53.075; -236.000; -267.000
248.806;  -24.975; -300.000; -266.000
248.948; -102.450; -886.000; -763.000
249.090;  -40.875; -428.000; -398.000
249.233;  -72.250; -344.000; -381.000
249.375;  -59.875; -474.000; -451.000
249.518;  -17.725;  -83.000; -133.000
249.660;   -3.125; -103.000;    3.000
249.802; -164.550;-1303.000;-1189.000
249.945;  -60.525; -612.000; -540.000
250.087; -109.425; -834.000; -768.000
250.229;  -48.900; -362.000; -480.000
250.371;  -82.275; -494.000; -439.000
250.514;  -48.700; -310.000; -244.000
250.656;  -67.700;   69.000;  102.000
250.798; -112.325; -849.000; -800.000
250.940;  -73.550; -322.000; -322.000
251.083;  -21.325; -335.000; -111.000
251.225;   51.525;  338.000;  310.000
251.367;  -28.850; -274.000; -373.000
251.509;  -31.700; -265.000; -210.000
251.651;  -90.825; -731.000; -671.000
251.794;   48.575;  538.000;  632.000
251.936; -106.900; -821.000; -747.000
252.078;  -72.750; -540.000; -461.000
252.220;  -60.675; -645.000; -477.000
252.362;   39.375;  344.000;  462.000
252.504;  -67.200; -677.000; -584.000
252.646; -102.650; -875.000; -722.000
252.788;   -5.550;   14.000; -128.000
252.931;  -45.825; -257.000; -253.000
253.073;  -42.625; -376.000; -317.000
253.215;   -6.850;  141.000;  122.000
253.357;   -6.125;   82.000; -153.000
253.499;  -46.450; -374.000; -234.000
253.641;  -77.600; -749.000; -594.000
253.783; -101.950; -609.000; -527.000
253.925;  -88.325; -586.000; -591.000
254.067; -115.150; -744.000; -667.000
254.209;  -29.900; -391.000; -259.000
254.351; -145.100; -865.000; -883.000
254.493;  -70.425; -441.000; -417.000
254.635; -125.925; -936.000; -818.000
254.777;  -89.325; -752.000; -687.000
254.918;  -80.825; -512.000; -430.000
255.060;  -57.425; -551.000; -395.000
255.202;  -65.975; -473.000; -261.000
255.344;  -69.925; -658.000; -455.000
255.486;  -65.025; -471.000; -406.000
255.628;  -96.325; -780.000; -781.000
255.770;  -91.025; -676.000; -536.000
255.912;  -62.800; -559.000; -468.000
256.053;  -85.325; -730.000; -508.000
256.195;  136.750; 1008.000;  903.000
256.337; -111.600; -861.000; -595.000
256.479;   67.275;  532.000;  416.000
256.621;  -58.975; -394.000; -212.000
256.762;  -88.475; -789.000; -742.000
256.904;   33.675;  485.000;  487.000
257.046;  -39.800; -381.000; -271.000
257.188;  -43.800; -351.000; -264.000
257.329;  -55.125; -525.000; -464.000
257.471; -108.575; -939.000; -807.000
257.613;  -54.950; -584.000; -498.000
257.755; -143.475;-1073.000; -982.000
257.896;   36.050;  286.000;  392.000
258.038;  -71.700; -403.000; -352.000
258.180;  -36.775; -354.000; -279.000
258.321;  -82.450; -581.000; -457.000
258.463;   -1.325;  -71.000;  133.000
258.605;  -99.950; -562.000; -570.000
258.746;  -99.225; -886.000; -772.000
258.888; -152.700;-1026.000;-1020.000
259.029;    7.550;  121.000;   -8.000
259.171;  -80.100; -614.000; -550.000
259.313;    8.600;  -49.000;  -47.000
259.454;  -72.050; -536.000; -414.000
259.596;  -40.575; -483.000; -390.000
259.737;  -78.875; -590.000; -474.000
259.879;   35.100;  217.000;  311.000
260.020;   72.850;  901.000;  636.000
260.162;  -21.700; -146.000; -253.000
260.303; -116.825; -768.000; -687.000
260.445;  -80.775; -609.000; -613.000
260.586;   10.375;  392.000;  157.000
260.728;  -42.525; -360.000; -248.000
260.869;  -76.450; -350.000; -343.000
261.011;   81.150;  706.000;  537.000
261.152;  -70.200; -479.000; -319.000
261.293;  -74.225; -576.000; -595.000
261.435;  -36.150; -219.000; -184.000
261.576;  -55.350; -455.000; -325.000
261.718;   31.475;  420.000;  470.000
261.859; -119.000; -940.000; -949.000
262.000; -134.525; -951.000;-1016.000
262.142;  -19.575;  -52.000;  -60.000
262.283; -120.175; -808.000; -691.000
262.424;  -74.275; -666.000; -625.000
262.566; -150.300;-1161.000; -983.000
262.707;  -94.800; -840.000; -830.000
262.848; -124.575; -769.000; -726.000
262.990;  -39.375; -362.000; -345.000
263.131;   64.325;  650.000;  681.000
263.272;  -12.750;  -61.000;  -41.000
263.413;  -98.125; -589.000; -561.000
263.555;  -54.550; -669.000; -143.000
263.696;  -82.075; -550.000; -641.000
263.837;  -62.925; -449.000; -551.000
263.978;   -6.075;   -5.000;  -77.000
264.119;  -31.700; -283.000; -264.000
264.261; -118.075; -847.000; -630.000
264.402;   -5.900;   33.000;   40.000
264.543;  -78.450; -509.000; -524.000
264.684;   -2.875;   61.000;  -50.000
264.825;  -93.550; -816.000; -538.000
264.966;   -5.575;  -84.000;  -67.000
265.107; -103.875; -646.000; -670.000
265.248; -103.975; -825.000; -812.000
265.390;   -8.725;  152.000;   -9.000
265.531;  -19.875; -238.000; -107.000
265.672;  -88.725; -557.000; -630.000
265.813;   55.050;  563.000;  439.000
265.954; -139.500; -959.000; -940.000
266.095;  -19.450; -372.000; -322.000
266.236; -106.525; -686.000; -548.000
266.377;  -31.950; -243.000; -297.000
266.518;  -80.800; -619.000; -547.000
266.659;   27.900;  170.000;  268.000
266.800;    7.175;   83.000;   85.000
266.941;  -72.425; -487.000; -478.000
267.082;    0.925;  354.000;   99.000
267.223;  -36.950; -344.000; -273.000
267.364; -114.700; -892.000; -686.000
267.504;   -7.850;    3.000;  135.000
267.645;   -6.300;  160.000;   67.000
267.786;  -35.725; -147.000;  -86.000
267.927;  -72.000; -473.000; -379.000
268.068;  -16.150; -186.000;  -61.000
268.209;  -49.250; -175.000; -413.000
268.350;  -47.600; -388.000; -532.000
268.490;  -87.900; -648.000; -521.000
268.631;   23.425;  127.000;  225.000
268.772; -110.150; -874.000; -647.000
268.913;  -49.950; -328.000; -476.000
269.054;  -26.325; -117.000;   12.000
269.194;  -53.050; -418.000; -402.000
269.335; -151.425;-1137.000;-1074.000
269.476;  -11.825;   33.000;  -35.000
269.617;  -53.850; -347.000; -392.000
269.757;  -85.700; -713.000; -646.000
269.898; -112.025; -856.000; -613.000
270.039;  -56.850; -415.000; -405.000
270.180; -141.825; -952.000; -816.000
270.320;  -25.050; -190.000; -250.000
270.461;  -50.625; -277.000; -249.000
270.602;  -13.200; -186.000; -156.000
270.742; -123.750; -868.000; -943.000
270.883;  -49.300; -442.000; -390.000
271.023;  -69.600; -358.000; -357.000
271.164;  -74.625; -607.000; -528.000
271.305; -106.075; -666.000; -654.000
271.445;  -91.025; -722.000; -683.000
271.586;  -56.250; -462.000; -283.000
271.726;  -27.750; -397.000; -322.000
271.867;  -75.950; -594.000; -534.000
272.008;   59.625; -473.000; -285.000
272.148;   61.300;  462.000;  468.000
272.289;   -1.025; -113.000; -181.000
272.429;   -6.975;   19.000;  185.000
272.570;  -93.525; -633.000; -737.000
272.710; -112.150; -825.000; -775.000
272.851;  -23.900;  113.000; -130.000
272.991; -165.050;-1173.000;-1077.000
273.131;  -61.725; -419.000; -459.000
273.272; -104.575; -683.000; -723.000
273.412;  -19.750; -143.000;  -31.000
273.553;  -76.875; -488.000; -507.000
273.693;   99.300;  913.000;  858.000
273.834; -115.750; -894.000; -692.000
273.974;  -66.700; -664.000; -615.000
274.114; -110.900; -772.000; -560.000
274.255;   64.150;  414.000;  373.000
274.395;  -23.475; -180.000; -125.000
274.535;   38.100;  199.000;  350.000
274.676;    4.525;  225.000;   94.000
274.816;    4.950;  110.000;   34.000
274.956;  -98.575; -624.000; -690.000
275.097;  -97.500;-1014.000; -922.000
275.237; -117.350; -913.000; -803.000
275.377;  -93.250; -778.000; -689.000
275.517; -143.850; -878.000; -937.000
275.658;  -53.250; -590.000; -555.000
275.798;  -89.175; -606.000; -413.000
275.938;   35.550;  215.000;  323.000
276.078;  -85.575; -626.000; -395.000
276.218;    2.600;   99.000;  104.000
276.359; -129.275;-1026.000;-1024.000
276.499;  -78.475; -605.000; -446.000
276.639;  -23.500; -305.000; -151.000
276.779;  -49.450; -475.000; -357.000
276.919; -113.400; -783.000; -624.000
277.059;  -23.600; -261.000; -212.000
277.199;  -52.300; -357.000; -259.000
277.340;   42.075;  287.000;  175.000
277.480; -107.025; -840.000; -693.000
277.620;   18.275;  192.000;   16.000
277.760; -204.425;-1533.000;-1294.000
277.900;    5.400;  113.000;   33.000
278.040;   -6.275;  137.000;  159.000
278.180;   21.100;  270.000;  170.000
278.320;   -5.600;   21.000;   56.000
278.460;  -69.300; -443.000; -469.000
278.600;  -92.450; -708.000; -598.000
278.740;   36.875;  448.000;  224.000
278.880; -103.375; -768.000; -791.000
279.020;  -11.525; -194.000; -144.000
279.160;  -86.225; -672.000; -595.000
279.300; -121.850; -926.000; -873.000
279.440;  -95.625; -709.000; -622.000
279.579;  -77.625;-1014.000; -929.000
279.719;  -58.000; -410.000; -394.000
279.859;   38.750;   -4.000;   41.000
279.999;   -7.125; -208.000;  101.000
280.139;  -37.675; -435.000; -387.000
280.279;  -94.450; -708.000; -745.000
280.419;  -11.500; -229.000; -147.000
280.559;  -44.425; -259.000; -180.000
280.698;  -87.900; -790.000; -639.000
280.838; -125.700; -778.000; -800.000
280.978;  -83.100; -846.000; -790.000
281.118; -105.850; -811.000; -704.000
281.257;   14.450;   24.000;    6.000
281.397; -151.500;-1094.000; -960.000
281.537;  -87.600; -599.000; -712.000
281.677;  -33.200; -150.000; -101.000
281.816;  -82.000; -700.000; -630.000
281.956;  -17.525; -193.000; -257.000
282.096;  -49.400; -539.000; -396.000
282.235; -105.550; -672.000; -638.000
282.375;  -24.650; -243.000;  -98.000
282.515; -102.600; -715.000; -707.000
282.654;   21.675;   29.000;  106.000
282.794;   20.450;  388.000;  244.000
282.934;  -52.050; -530.000; -491.000
283.073; -136.500;-1030.000; -857.000
283.213;  -48.900; -460.000; -467.000
283.353;  -63.450; -408.000; -349.000
283.492;  -15.800; -264.000; -296.000
283.632;  -54.950; -254.000; -168.000
283.771;  -81.125; -859.000; -730.000
283.911;  -59.800; -369.000; -260.000
284.050;  -90.900; -794.000; -748.000
284.190; -158.950;-1229.000;-1096.000
284.329; -122.675;-1055.000; -964.000
284.469;  -84.100; -516.000; -591.000
284.608;  -49.525; -559.000; -598.000
284.748;  -84.650; -614.000; -570.000
284.887;  -11.125;  -87.000;  -20.000
285.027; -129.575; -844.000; -892.000
285.166;  -32.225; -192.000; -249.000
285.306;  -21.050; -116.000;  -33.000
285.445;  -43.700; -229.000; -343.000
285.584; -101.650; -630.000; -494.000
285.724;  -30.950; -282.000; -322.000
285.863; -123.450; -857.000; -507.000
286.002;  -42.675; -366.000; -276.000
286.142; -105.325; -715.000; -622.000
286.281;  -64.725; -525.000; -493.000
286.420;  -95.050; -554.000; -417.000
286.560;   87.725;  653.000;  623.000
286.699; -150.900; -958.000; -912.000
286.838;  -73.700; -590.000; -591.000
286.978;  -91.050; -533.000; -537.000
287.117; -135.875;-1085.000; -950.000
287.256;  -43.975; -228.000; -211.000
287.395;  -49.000; -197.000; -378.000
287.535;  -48.800; -370.000; -298.000
287.674;  -67.350; -509.000; -484.000
287.813;   38.225;  661.000;  533.000
287.952; -122.800;-1010.000; -871.000
288.091; -149.300;-1049.000; -915.000
288.231;   16.400;   13.000;   15.000
288.370; -168.875;-1217.000;-1200.000
288.509;  -79.600; -728.000; -645.000
288.648;  -97.725; -770.000; -548.000
288.787;  -44.625; -243.000;  -87.000
288.926;  -62.950; -454.000; -475.000
289.065;  102.350;  859.000;  672.000
289.204;  -61.725; -377.000; -217.000
289.344;  -85.750; -791.000; -690.000
289.483;    4.475;  416.000;  304.000
289.622;  -36.375; -291.000; -149.000
289.761;  -31.675; -309.000; -166.000
289.900;  -99.275; -785.000; -626.000
290.039;  -32.525;  -12.000;  -95.000
290.178;  -39.300; -274.000; -180.000
290.317;  -75.575; -618.000; -479.000
290.456;  -51.875; -463.000; -451.000
290.595; -139.725; -961.000; -833.000
290.734; -124.000; -904.000; -891.000
290.873;  -81.025; -456.000; -420.000
291.011; -101.325; -833.000; -843.000
291.150; -100.300; -770.000; -682.000
291.289;  -31.450; -343.000; -110.000
291.428; -113.975; -599.000; -480.000
291.567;  -58.475; -370.000; -442.000
291.706;  -14.825;  109.000;  154.000
291.845;  -88.425; -597.000; -505.000
291.984; -158.200;-1234.000;-1061.000
292.122;   73.850;  602.000;  582.000
292.261;   35.550;  620.000;  463.000
292.400;    0.575; -144.000;  211.000
292.539; -130.275; -959.000; -813.000
292.678;  -32.825; -325.000; -300.000
292.816; -150.575;-1136.000; -965.000
292.955;  -91.125; -844.000; -684.000
293.094;  -39.000; -173.000; -337.000
293.233;  -41.350; -556.000; -400.000
293.371;  -44.600; -225.000;  -84.000
293.510;  -96.725; -866.000; -780.000
293.649; -136.875; -959.000; -924.000
293.787; -108.400;-1083.000;-1012.000
293.926;  -32.800; -113.000;  -32.000
294.065;  -46.125; -379.000; -290.000
294.203;   20.250;  298.000;  406.000
294.342;   33.050;   74.000;  156.000
294.481; 4930.050;51180.000; -836.000
294.619;  -25.650; -425.000; -582.000
294.758; -149.625;-1230.000;-1137.000
294.896;   16.825; -125.000;    5.000
295.035; -135.825;-1040.000;-1006.000
295.174; -108.300;-1082.000; -954.000
295.312;  -51.475; -323.000; -203.000
295.451;  -36.800; -307.000; -428.000
295.589;  -80.275; -389.000; -518.000
295.728;   21.850; -292.000; -165.000
295.866;  -34.800;  -36.000;  -51.000
296.005;  -66.225; -584.000; -341.000
296.143;  -74.075; -558.000; -596.000
296.282;  -96.650; -957.000; -881.000
296.420;  -87.625; -657.000; -557.000
296.559;  -89.900; -892.000; -633.000
296.697;  -57.225; -847.000; -665.000
296.835;  -88.675;-1141.000;-1002.000
296.974;    7.625;  -23.000;   39.000
297.112;  -40.125; -443.000; -504.000
297.251;  -94.250; -815.000; -755.000
297.389;   -9.525; -576.000; -438.000
297.527;   -5.075; -145.000;  -83.000
297.666;  -56.225; -486.000; -438.000
297.804;  -64.475; -404.000; -264.000
297.942;   -9.350; -136.000; -161.000
298.081;  -27.775; -183.000;   63.000
298.219;    5.650;  -17.000;  -19.000
298.357;  -15.350; -144.000;  -71.000
298.495;  -57.900; -810.000; -812.000
298.634;   12.325;  245.000;  219.000
298.772;  -25.150; -220.000; -338.000
298.910;  -60.700; -309.000; -182.000
299.048;  -15.925; -130.000; -153.000
299.187;  -43.925; -350.000; -250.000
299.325;    0.875;   52.000;  122.000
299.463;  -35.150; -389.000; -299.000
299.601;    7.400; -327.000; -271.000
299.739; -135.275; -908.000; -883.000
299.877;  -74.675; -791.000; -703.000
300.016; -110.675;-1095.000; -935.000
300.154;   37.925;  -19.000; -161.000
300.292;  -36.225; -428.000; -348.000
300.430;  -31.325; -408.000; -291.000
300.568; -131.400; -940.000; -874.000
300.706;  -62.950; -366.000; -469.000
300.844; -140.800;-1108.000; -979.000
300.982;   62.250;  246.000;  282.000
301.120; -129.600; -965.000; -866.000
301.258;  -91.250; -812.000; -705.000
301.396;  -13.700;  104.000;  -41.000
301.534;  -21.900; -218.000; -293.000
301.672;  -79.325; -664.000; -521.000
301.810;  -53.775; -613.000; -545.000
301.948;    5.750;   53.000;  149.000
302.086;  210.375; -250.000;  -32.000
302.224;  241.925; -610.000; -585.000
302.362;  -56.050; -558.000; -622.000
302.500; -103.225; -923.000; -893.000
302.638;   30.800;  128.000;  245.000
302.776;  -47.450; -352.000; -408.000
302.913;   48.600;  447.000;  236.000
303.051;  -40.775;  -86.000;  -23.000
303.189;   23.225;   90.000;  118.000
303.327;  -51.400; -341.000; -256.000
303.465;  -81.275; -832.000; -588.000
303.603; -107.175; -805.000; -604.000
303.740;   62.150;  417.000;  241.000
303.878;  -85.725; -800.000; -759.000
304.016; -106.575; -915.000; -790.000
304.154; -155.750;-1123.000;-1152.000
304.291;  -69.675; -505.000; -554.000
304.429;  -11.300;  102.000;   74.000
304.567; -132.375; -908.000; -893.000
304.705;  -71.825; -408.000; -515.000
304.842;  -25.800; -616.000; -540.000
304.980;    3.200;  215.000;   35.000
305.118;  -16.725; -367.000; -365.000
305.255; -122.050; -945.000; -927.000
305.393;   43.975;  178.000;  239.000
305.531; -148.050;-1173.000; -956.000
305.668;  -67.150; -663.000; -582.000
305.806;   -6.650; -358.000; -439.000
305.943;  -11.500; -629.000; -637.000
306.081;  -11.075; -378.000; -267.000
306.219; -100.900; -863.000; -748.000
306.356;  -11.200;  158.000;   27.000
306.494;  119.825;  981.000;  761.000
306.631;   -3.250;  -11.000;  -55.000
306.769;  -20.425; -613.000; -485.000
306.906;  -34.900; -284.000; -258.000
307.044;  -54.775; -473.000; -488.000
307.181;  -63.550; -410.000; -332.000
307.319;   25.075;  112.000;   87.000
307.456; -166.225;-1191.000;-1153.000
307.594; -103.000; -980.000; -727.000
307.731;  -39.350; -371.000; -164.000
307.868;    3.275;  -15.000;   20.000
308.006; -117.025; -961.000; -847.000
308.143;  -57.575; -618.000; -330.000
308.281;   36.350;  -37.000; -254.000
308.418;  -52.650; -748.000; -640.000
308.555;  -73.175; -400.000; -250.000
308.693;  -65.425; -577.000; -573.000
308.830; -107.025; -712.000; -657.000
308.967;   -6.525; -215.000;  -95.000
309.105;  -38.225; -507.000; -396.000
309.242;    4.275; -468.000; -367.000
309.379;   42.600; -577.000; -655.000
309.517;  -90.525; -936.000; -948.000
309.654;  -95.800; -910.000; -734.000
309.791;  -69.550; -662.000; -580.000
309.928; -117.225; -977.000; -914.000
310.065;  136.300;  819.000;  697.000
310.203;  -83.175; -825.000; -850.000
310.340;  -25.950; -465.000; -321.000
310.477;  -72.300; -412.000; -516.000
310.614;  -52.075; -383.000; -473.000
310.751;  -69.175; -427.000; -518.000
310.889;  -21.275;    1.000;   11.000
311.026; -132.825;-1161.000; -939.000
311.163;  -36.250; -386.000; -380.000
311.300;  -77.875; -512.000; -479.000
311.437;  -70.700; -658.000; -619.000
311.574; -156.300;-1226.000; -985.000
311.711;  -46.500; -595.000; -433.000
311.848;  -27.325; -380.000; -388.000
311.985;   27.075;  270.000;   93.000
312.122; -114.350; -932.000; -762.000
312.259; -103.675; -941.000; -994.000
312.396;  -62.975; -508.000; -551.000
312.533;  -67.375; -812.000; -790.000
312.670; -134.075;-1070.000; -898.000
312.807;  -17.975; -352.000; -367.000
312.944;  -82.900; -513.000; -611.000
313.081;  -13.925; -150.000; -415.000
313.218;  -78.025;-1111.000; -867.000
313.355;   -6.600; -531.000; -449.000
313.492;  -11.900; -455.000; -292.000
313.629;  135.525;  815.000;  735.000
313.766; -142.725;-1176.000;-1008.000
313.902;  -16.600; -186.000;   21.000
314.039;  -56.950; -372.000; -289.000
314.176;   34.750;  286.000;  192.000
314.313;  -65.500; -569.000; -473.000
314.450;  -67.650; -788.000; -684.000
314.587;  -68.300; -468.000; -480.000
314.723;   16.900;  -78.000;  130.000
314.860;   34.675;  318.000;  332.000
314.997;   29.900;  223.000;  142.000
315.134;  -39.450; -385.000; -368.000
315.270;  -25.975; -480.000; -496.000
315.407; -117.200;-1094.000; -967.000
315.544;  -44.750; -657.000; -538.000
315.681;  -66.850; -681.000; -565.000
315.817;   48.975; -133.000; -176.000
315.954;   29.325; -613.000; -392.000
316.091; -106.525;-1045.000;-1023.000
316.227;  -24.800;  -71.000; -179.000
316.364;   -3.575;   23.000;    6.000
316.500;  -59.525; -113.000; -300.000
316.637;  -28.975; -181.000; -302.000
316.774;  -94.075; -625.000; -358.000
316.910;  -84.025; -598.000; -629.000
317.047;  -82.725; -487.000; -351.000
317.183;  -52.400; -435.000; -566.000
317.320;   32.700; -367.000; -321.000
317.456;  -23.075; -733.000; -805.000
317.593;  -85.750; -598.000; -641.000
317.729;    9.175;  168.000;  -67.000
317.866; -203.625;-1434.000;-1285.000
318.002;  -83.425; -708.000; -948.000
318.139; -123.200; -883.000; -867.000
318.275; -104.525;-1003.000; -738.000
318.412;  -78.850; -517.000; -336.000
318.548;  -78.375; -751.000; -720.000
318.685;  -99.475; -985.000; -888.000
318.821;  -74.700; -762.000; -735.000
318.957;  -24.975;   34.000;  -23.000
319.094;   29.450;  297.000;  154.000
319.230;  -90.475; -756.000; -742.000
319.367;    3.725; -471.000; -520.000
319.503;  -43.150; -538.000; -436.000
319.639;  -83.400; -877.000; -793.000
319.775; -100.700; -750.000; -685.000
319.912;  -75.075; -424.000; -519.000
320.048; -101.350;-1184.000;-1184.000
320.184;   91.250;   59.000;   70.000
320.321;  -62.025; -497.000; -467.000
320.457;   73.125;  475.000;  662.000
320.593;  -78.000; -375.000; -382.000
320.729;  -95.100; -732.000; -734.000
320.866;  -74.150; -577.000; -635.000
321.002;  -97.500; -759.000; -809.000
321.138;  -34.175; -135.000; -211.000
321.274;   23.025; -148.000; -115.000
321.410;  -68.275; -585.000; -353.000
321.546;  -90.300;-1011.000; -911.000
321.683;    8.000;  400.000;  185.000
321.819;  -12.425;  -48.000; -117.000
321.955; -119.550; -743.000; -722.000
322.091;  -64.300; -585.000; -540.000
322.227;  -48.925; -382.000; -202.000
322.363;  -54.925; -320.000; -215.000
322.499;  -71.100; -343.000; -331.000
322.635;   95.250;  636.000;  443.000
322.771;  -13.225; -139.000;   12.000
322.907;   46.800;  129.000;  327.000
323.043;  -47.500; -115.000; -206.000
323.179;  -53.125; -394.000; -363.000
323.315;  -50.100; -401.000; -371.000
323.451;   19.000; -328.000; -236.000
323.587;   56.600;  -60.000;  -77.000
323.723;  -38.000; -682.000; -601.000
323.859;  -25.125; -258.000;  -76.000
323.995;  -50.075; -467.000; -409.000
324.131; -124.225; -967.000; -892.000
324.267;  -34.950; -254.000; -276.000
324.402; -126.425; -960.000; -983.000
324.538;  -31.650; -279.000; -104.000
324.674;   -1.125;  164.000;   77.000
324.810;   45.225;  226.000;  308.000
324.946;  -58.750; -810.000; -658.000
325.082;  -79.125; -568.000; -475.000
325.217;  -21.250;  -62.000;   16.000
325.353; -106.400; -764.000; -659.000
325.489;  -94.700; -540.000; -506.000
325.625;  -72.050; -579.000; -525.000
325.760;   74.450;  517.000;  376.000
325.896;   17.075; -515.000; -702.000
326.032;  -59.150; -403.000; -352.000
326.168;  -56.825; -462.000; -369.000
326.303;  -69.900; -352.000; -461.000
326.439;   -8.475; -336.000; -276.000
326.575;  -12.325; -190.000;  -29.000
326.710;  -12.675; -156.000;  -30.000
326.846;  -21.775;  146.000;  103.000
326.982;  -81.300; -530.000; -548.000
327.117;  -83.275; -481.000; -442.000
327.253;  -79.400; -745.000; -742.000
327.388; -142.100;-1137.000;-1153.000
327.524;  -66.350; -811.000; -578.000
327.659;  -35.875;  -58.000;  -22.000
327.795;  -15.725;   69.000;   45.000
327.931;  -81.400; -723.000; -499.000
328.066;  -28.675; -417.000; -276.000
328.202;  -32.275;   12.000; -129.000
328.337;   79.075;  957.000;  713.000
328.473;   19.675;  -12.000;  -74.000
328.608;  -19.775; -256.000; -267.000
328.743; -109.650; -799.000; -664.000
328.879;   15.900;  214.000;  114.000
329.014;  -37.450; -102.000; -122.000
329.150;  -77.250; -358.000; -483.000
329.285;  -91.825; -465.000; -466.000
329.421;  -45.900; -548.000; -246.000
329.556;  -24.050;  -36.000;   85.000
329.691;  -75.000; -633.000; -615.000
329.827;  -87.000; -626.000; -480.000
329.962;  -39.550;  131.000; -301.000
330.097;  -80.550; -673.000; -585.000
330.233;  -36.000; -410.000; -223.000
330.368; -129.850; -839.000; -628.000
330.503;   -1.800;    3.000;   98.000
330.638;  -25.625;  -93.000; -125.000
330.774;  -76.450; -609.000; -530.000
330.909;  -59.850; -434.000; -244.000
331.044;  -89.225; -714.000; -708.000
331.179; -167.050;-1217.000;-1109.000
331.315;   -3.150;   77.000;   20.000
331.450;    4.150;  157.000;  285.000
331.585;  -92.825; -805.000; -706.000
331.720;  -87.175; -510.000; -460.000
331.855;   12.850;  -35.000; -102.000
331.990;  424.225;   62.000;  138.000
332.126;  224.925; -110.000;   71.000
332.261;   13.675; -379.000; -265.000
332.396;   23.875; -135.000; -242.000
332.531;  -68.800;-1074.000;-1031.000
332.666;  101.500; -519.000; -363.000
332.801; -103.800; -726.000; -807.000
332.936;  -16.325; -192.000; -122.000
333.071; -139.350; -870.000; -817.000
333.206;   22.025;  307.000;  379.000
333.341;   27.750;  344.000;  418.000
333.476;  -75.625; -627.000; -623.000
333.611;  -41.425; -251.000; -173.000
333.746;  -45.025; -381.000; -464.000
333.881; -128.900; -973.000; -935.000
334.016; -121.775; -936.000; -917.000
334.151; -131.450; -746.000; -702.000
334.286;   20.825;  152.000;  186.000
334.421;  -18.225; -125.000; -178.000
334.556;  -69.900; -611.000; -567.000
334.690;  -89.975; -631.000; -577.000
334.825;   45.425;  381.000;   83.000
334.960;  -62.550; -285.000; -413.000
335.095;    7.675;  135.000;  -91.000
335.230;  -95.325; -722.000; -738.000
335.365; -114.375;-1084.000; -990.000
335.499; -125.475;-1108.000;-1037.000
335.634;   34.200;    9.000;  534.000
335.769; -101.175; -755.000; -720.000
335.904;  -60.500; -603.000; -561.000
336.038;  -52.500; -735.000; -657.000
336.173; -103.750;-1206.000;-1194.000
336.308;    6.675; -116.000; -189.000
336.443;   75.250; -544.000; -634.000
336.577;  -57.550; -936.000; -787.000
336.712;   73.050;   -4.000;  -12.000
336.847;  -23.475; -724.000; -607.000
336.981;   65.075; -272.000; -208.000
337.116;  287.575;  615.000;  501.000
337.250;  141.400; -434.000; -421.000
337.385;  486.550; -297.000; -208.000
337.520;  232.375; -632.000; -603.000
337.654;  -28.700; -215.000; -126.000
337.789; -123.875; -989.000; -933.000
337.923;  -51.900; -104.000; -205.000
338.058; -112.175; -673.000; -738.000
338.192;  -73.400; -611.000; -488.000
338.327;   -7.700;  -18.000; -155.000
338.461;  -77.150; -299.000; -469.000
338.596;  -88.750; -780.000; -638.000
338.730;  -92.750; -767.000; -803.000
338.865;  146.850;  -46.000; -140.000
338.999;   13.950; -846.000; -702.000
339.134;    2.750; -634.000; -536.000
339.268;   35.425; -741.000; -603.000
339.403;  564.425; -740.000; -775.000
339.537;  270.100; -894.000; -820.000
339.671;  -92.050; -829.000; -813.000
339.806;  -28.425; -556.000; -512.000
339.940;   52.050; -261.000; -235.000
340.074;  -88.025; -685.000; -510.000
340.209;  -43.400; -351.000; -230.000
340.343;  -90.975; -517.000; -573.000
340.477;  130.825;  998.000; 1036.000
340.612;    4.900;-1033.000; -900.000
340.746;  247.350; -199.000; -243.000
340.880;  -99.225; -924.000; -785.000
341.014;  -25.700;  -45.000; -154.000
341.149; -121.025; -756.000; -718.000
341.283; -113.725; -839.000; -754.000
341.417; -126.725;-1124.000; -938.000
341.551;  -29.025; -768.000; -708.000
341.685;  -75.850; -633.000; -611.000
341.820;  -56.125; -562.000; -493.000
341.954;  -54.400; -218.000; -349.000
342.088; -149.175;-1102.000;-1019.000
342.222;   25.625;  565.000;  618.000
342.356;  -69.250; -395.000; -335.000
342.490; -119.950; -880.000; -841.000
342.624;  -54.050; -339.000; -242.000
342.758;  -57.450; -364.000; -312.000
342.892;  -88.675; -710.000; -585.000
343.026;  -50.575;  -58.000; -116.000
343.160;  -54.300; -426.000; -376.000
343.294;  -82.125; -474.000; -337.000
343.428;  -64.975; -488.000; -448.000
343.562;  -51.650; -172.000;  -23.000
343.696;  -38.250; -385.000; -314.000
343.830;  -65.300; -362.000; -356.000
343.964;  -23.375; -231.000; -168.000
344.098;  286.775;  199.000;   70.000
344.232;  286.225; -266.000; -127.000
344.366;   69.425; -567.000; -453.000
344.500;  -32.475; -665.000; -744.000
344.634;  -37.575; -324.000; -164.000
344.768;  -58.675; -531.000; -341.000
344.902;   10.825;  278.000;  256.000
345.035;  -76.400; -556.000; -496.000
345.169; -139.850; -933.000; -656.000
345.303;  -55.725; -308.000; -482.000
345.437; -112.175; -826.000; -717.000
345.571;  -60.500; -675.000; -594.000
345.704;  -69.650; -309.000; -532.000
345.838;  -36.600; -331.000; -284.000
345.972;  -66.675; -543.000; -495.000
346.106;  270.325; -179.000; -190.000
346.239;  476.750; -312.000; -243.000
346.373;    7.925; -343.000; -302.000
346.507; -136.550; -950.000; -962.000
346.640;   24.150;  -30.000;   13.000
346.774;  -95.675; -650.000; -797.000
346.908;  -30.500; -138.000;  -11.000
347.041; -107.575; -646.000; -593.000
347.175;   -0.900;  259.000;   27.000
347.309;  -96.550; -698.000; -628.000
347.442; -111.325; -883.000; -732.000
347.576;  106.750;  670.000;  668.000
347.709;   49.225; -123.000;  -52.000
347.843; -127.000; -933.000; -825.000
347.976;   14.900;  235.000;  294.000
348.110; -172.525;-1268.000;-1186.000
348.243;  -96.325; -679.000; -772.000
348.377;    6.475;  -26.000;   60.000
348.510;   35.175;  403.000;  540.000
348.644;  -54.775;  -37.000; -159.000
348.777;  -19.700;  180.000;  191.000
348.911;  -52.575; -142.000; -112.000
349.044;   86.400;  471.000;  448.000
349.178;  -38.850;-1069.000;-1006.000
349.311;  115.775;  141.000;  255.000
349.444;   43.125; -927.000; -813.000
349.578;   -8.625; -347.000; -200.000
349.711; -132.100; -959.000; -862.000
349.845;  -49.425; -661.000; -591.000
349.978; -172.675;-1224.000;-1137.000
350.111;  -90.550; -546.000; -612.000
350.244; -103.750; -596.000; -700.000
350.378;  -45.325; -392.000; -393.000
350.511;  -76.400; -393.000; -426.000
350.644;  -93.600; -808.000; -806.000
350.778;   14.375;  168.000;  104.000
350.911;    0.175;  134.000;  140.000
351.044;  -98.050; -685.000; -615.000
351.177;  -32.650; -321.000; -281.000
351.310;  -27.625;    3.000; -131.000
351.444;  -94.325; -888.000; -788.000
351.577;   28.100;  140.000;   90.000
351.710;   61.100;  593.000;  417.000
351.843;  -38.000; -165.000;  -77.000
351.976;   -9.850;  149.000;  -79.000
352.109;  -98.250; -621.000; -612.000
352.242;  -42.525; -464.000; -419.000
352.376;  -89.625; -580.000; -636.000
352.509;   21.450; -437.000; -356.000
352.642;  -95.825; -654.000; -604.000
352.775;   15.275; -141.000;  -98.000
352.908; -124.150; -933.000; -904.000
353.041; -111.025; -814.000; -824.000
353.174;  -63.375; -551.000; -424.000
353.307;  -74.375; -753.000; -764.000
353.440;   48.100;  541.000;  453.000
353.573; -105.525; -957.000;-1008.000
353.706;  -62.050; -384.000; -558.000
353.839;  -31.850; -264.000; -220.000
353.971;  -88.000; -657.000; -512.000
354.104; -104.200; -896.000; -835.000
354.237;  -85.300; -627.000; -662.000
354.370;  -91.000; -846.000; -879.000
354.503; -178.600;-1231.000;-1308.000
354.636;  -20.100; -529.000; -348.000
354.769; -134.775; -937.000; -860.000
354.902;  -12.825; -230.000; -139.000
355.034;  -38.850; -164.000; -220.000
355.167;   -5.750; -262.000; -162.000
355.300;  -84.125;-1061.000; -880.000
355.433; 1460.125;  -71.000;  -14.000
355.565; 2262.650; -402.000; -384.000
355.698;  619.375; -356.000; -296.000
355.831;   -4.200; -882.000; -801.000
355.964;   33.875; -285.000; -170.000
356.096;  -92.850; -856.000; -843.000
356.229;  -12.750; -523.000; -530.000
356.362;  520.125; -373.000; -266.000
356.494;  938.175; -229.000; -162.000
356.627;  330.125;  269.000;  377.000
356.760;  881.125;  120.000;   53.000
356.892; 1517.275; -286.000; -601.000
357.025;  362.775;  403.000;  389.000
357.157;  229.600; -167.000; -179.000
357.290; 1200.325; -856.000; -713.000
357.423;  356.700; -667.000; -556.000
357.555;  101.975; -217.000; -228.000
357.688;  136.925; -483.000; -364.000
357.820;  160.000; -870.000; -877.000
357.953; 1509.300; -563.000; -589.000
358.085;  237.950; -632.000; -612.000
358.218;  108.050;-1131.000; -932.000
358.350;   49.900;  -58.000;  312.000
358.483; -162.700;-1300.000;-1187.000
358.615; -124.425;-1182.000;-1078.000
358.747; -169.525;-1187.000;-1058.000
358.880;  -57.000; -810.000; -744.000
359.012;  -21.125; -376.000; -202.000
359.145;  -60.225; -480.000; -511.000
359.277;  -61.950; -962.000; -913.000
359.409; 1274.750;  536.000;  231.000
359.542;  277.625; -738.000; -688.000
359.674;   17.625;   46.000;   13.000
359.806;  -75.350; -565.000; -438.000
359.939;  -36.675; -617.000; -516.000
360.071;   26.225; -583.000; -579.000
360.203;  -26.475; -411.000; -364.000
360.335;   14.125;  164.000;  -16.000
360.468;  109.600; -249.000; -307.000
360.600; 1322.450; -547.000; -454.000
360.732; 4290.325; -546.000; -423.000
360.864;  640.825;-1216.000;-1044.000
360.996;   65.850; -516.000; -554.000
361.129;  -53.800; -389.000; -598.000
361.261;    5.025;  110.000; -113.000
361.393;  -65.400; -252.000; -214.000
361.525;   -3.300;   94.000;  244.000
361.657; -111.125; -821.000; -703.000
361.789;  -28.225; -139.000; -155.000
361.921;  -38.200; -642.000; -593.000
362.053;   91.425;  524.000;  541.000
362.185;   -6.700;  288.000;   72.000
362.318; -108.450; -709.000; -705.000
362.450;   27.600;  294.000;  444.000
362.582;  -77.600; -913.000; -870.000
362.714;  -52.700; -353.000; -332.000
362.846;  -93.525; -606.000; -490.000
362.978; -149.200; -941.000; -811.000
363.109;  -21.100; -161.000; -260.000
363.241;  149.600; -739.000; -749.000
363.373;  654.900; -649.000; -564.000
363.505; 1070.125; -186.000;  -91.000
363.637;  241.125; -787.000; -601.000
363.769; -128.475;-1067.000;-1080.000
363.901;  -74.775; -596.000; -654.000
364.033; -155.275;-1103.000;-1062.000
364.165;  -29.525; -283.000; -283.000
364.296;   79.100; -316.000; -177.000
364.428;  208.325;-1344.000;-1220.000
364.560;  -70.150; -679.000; -661.000
364.692;  -62.000; -738.000; -835.000
364.824;   -6.200; -588.000; -456.000
364.955;  520.425; -402.000; -564.000
365.087; 1711.075;-1097.000; -852.000
365.219;  140.575; -686.000; -816.000
365.351;  -81.475; -526.000; -572.000
365.482;   29.025;  300.000;  240.000
365.614;  -76.600; -402.000; -314.000
365.746; -105.700; -729.000; -752.000
365.877;  -93.500; -706.000; -672.000
366.009;  415.325;  -35.000;  -62.000
366.141;  -44.775;-1249.000;-1134.000
366.272; -100.325; -803.000; -719.000
366.404; -124.225;-1005.000; -874.000
366.535;  -12.450; -139.000;  -12.000
366.667;  -99.175; -644.000; -649.000
366.799;   28.425;  353.000;  203.000
366.930; -128.850; -862.000; -996.000
367.062;  201.875; -639.000; -613.000
367.193;  355.675; -872.000; -842.000
367.325;  -30.175; -580.000; -684.000
367.456;   -3.875; -246.000;   31.000
367.588;  279.675; -371.000; -318.000
367.719;   38.025;  -44.000;  -45.000
367.851;  -30.000; -222.000; -241.000
367.982; -117.225; -875.000; -732.000
368.113;  -18.350; -475.000; -358.000
368.245; -141.050; -960.000; -841.000
368.376;  -44.775; -254.000; -302.000
368.508;  -53.825; -188.000; -263.000
368.639; -150.400;-1166.000;-1034.000
368.770; -103.925; -670.000; -589.000
368.902; -117.050; -836.000; -926.000
369.033; -127.825; -906.000; -855.000
369.164;  -28.250; -720.000; -653.000
369.296; -109.750; -452.000; -601.000
369.427;  -49.050; -209.000; -144.000
369.558;  -75.650; -593.000; -377.000
369.689;  -78.075; -721.000; -569.000
369.821; -136.200; -951.000; -845.000
369.952;  -16.075;   42.000; -108.000
370.083;  -68.550; -229.000; -108.000
370.214; -101.600; -735.000; -650.000
370.345;  -22.550;   65.000;   81.000
370.477; -103.075; -810.000; -790.000
370.608;   32.600; -328.000; -264.000
370.739; -124.900;-1233.000;-1292.000
370.870; -104.700;-1102.000; -923.000
371.001;  -15.800; -378.000; -467.000
371.132; -103.500; -754.000; -735.000
371.263;  -20.825;  -42.000; -148.000
371.394; -146.475; -841.000; -748.000
371.525;    7.375;  345.000;  225.000
371.657; -125.150; -808.000; -670.000
371.788;   25.350;  103.000;  199.000
371.919;    0.625; -384.000; -304.000
372.050; 1293.800;  -91.000; -156.000
372.181;  405.700; -188.000; -294.000
372.311;  103.000;   42.000; -127.000
372.442;  -57.000; -457.000; -451.000
372.573;  -43.800; -444.000; -340.000
372.704; -158.200;-1008.000; -980.000
372.835;  -29.100; -228.000; -289.000
372.966;  -71.225; -646.000; -554.000
373.097; -101.075; -575.000; -711.000
373.228;  -89.175; -717.000; -542.000
373.359;  -15.900; -824.000; -536.000
373.490;  171.200; -881.000; -727.000
373.620;  259.225;-1001.000; -803.000
373.751;  540.375; -332.000; -396.000
373.882;  232.775; -663.000; -733.000
374.013;  -27.950; -449.000; -262.000
374.143;  -75.350; -581.000; -659.000
374.274; -146.125; -987.000; -908.000
374.405;   61.200; -388.000; -276.000
374.536;  109.425; -526.000; -387.000
374.666;  282.650; -759.000; -807.000
374.797;  -19.050; -817.000; -868.000
374.928;  180.425; -710.000; -560.000
375.058;  200.050; -535.000; -500.000
375.189;    6.950;  -59.000;  -93.000
375.320; -123.400; -928.000;-1034.000
375.450;  -42.975; -625.000; -616.000
375.581;  -66.200; -526.000; -436.000
375.712;  -44.225; -574.000; -250.000
375.842;    9.975; -438.000; -415.000
375.973;   -9.250; -554.000; -513.000
376.103; -107.425; -665.000; -648.000
376.234;  -89.700; -531.000; -552.000
376.364; -127.475; -944.000; -867.000
376.495;  147.125;  925.000;  529.000
376.625;  -91.275; -472.000; -485.000
376.756;  -63.500; -709.000; -678.000
376.886; -129.675;-1178.000;-1026.000
377.017;  156.400;-1048.000;-1061.000
377.147;  649.750; -786.000; -782.000
377.278;   93.275;  174.000;  228.000
377.408; -124.875; -801.000; -815.000
377.538; -101.000; -707.000; -693.000
377.669;  -73.500; -537.000; -613.000
377.799;  -91.075; -645.000; -635.000
377.929; -101.450; -610.000; -428.000
378.060; -125.625; -781.000; -847.000
378.190;  -39.825; -726.000; -531.000
378.320;  -35.200; -401.000; -406.000
378.451;  -29.600; -131.000;  -22.000
378.581;  -27.750;  -67.000; -110.000
378.711;   91.700; 1035.000;  866.000
378.841;  -58.875; -533.000; -675.000
378.972; -110.600; -871.000; -751.000
379.102;  -72.300; -652.000; -579.000
379.232;  -45.075; -126.000;  -73.000
379.362; -113.225;-1001.000; -885.000
379.492;  -67.625; -373.000; -424.000
379.623;   36.300;    0.000;  111.000
379.753; -119.300;-1107.000; -974.000
379.883;   73.400;   59.000;  156.000
380.013;  -87.050;-1081.000;-1017.000
380.143; -119.825;-1097.000;-1056.000
380.273; -130.075; -985.000; -861.000
380.403;   17.775; -344.000; -257.000
380.533;  -56.325; -651.000; -664.000
380.663;   31.425;  173.000;  128.000
380.793; -161.600;-1027.000;-1074.000
380.923;  -36.700; -103.000;  -34.000
381.053; -100.900; -613.000; -623.000
381.183;  -35.825; -106.000; -248.000
381.313;  -70.175; -656.000; -470.000
381.443;  -54.400; -692.000; -473.000
381.573;  -24.950; -402.000; -409.000
381.703;  -78.950;-1249.000;-1095.000
381.833; -180.450;-1454.000;-1336.000
381.963;   37.125; -134.000;  -87.000
382.093;  411.300; -925.000; -909.000
382.223;  107.350; -713.000; -602.000
382.353;  -89.025; -801.000; -608.000
382.482;   11.700;-1091.000; -964.000
382.612;  171.725; -872.000; -644.000
382.742;  109.500; -695.000; -622.000
382.872;  -19.700; -565.000; -551.000
383.002;   27.350;  347.000; -132.000
383.131;  -36.625; -226.000; -160.000
383.261;  -42.050; -706.000; -768.000
383.391;  312.200; -552.000; -377.000
383.521; 5072.125;  451.000;  263.000
383.650; 1538.925; -947.000; -904.000
383.780;   42.700; -783.000; -656.000
383.910;   95.675;  880.000;  802.000
384.039;  -68.700; -794.000; -656.000
384.169;  -91.975;-1205.000;-1017.000
384.299;  -69.625; -650.000; -662.000
384.428; -110.325; -764.000; -680.000
384.558;  -53.600; -308.000; -275.000
384.687;  -75.650; -414.000; -334.000
384.817;  -10.250;   75.000;   -2.000
384.947;  -49.750; -234.000; -141.000
385.076;  145.775;  982.000;  912.000
385.206;   42.750;  369.000;  480.000
385.335;  -71.225; -549.000; -417.000
385.465; -115.175; -655.000; -663.000
385.594;    5.800;  -53.000;  -44.000
385.724;   23.700; -868.000; -838.000
385.853;    0.750; -296.000; -270.000
385.982;  346.825; -743.000; -787.000
386.112;  681.125;-1052.000; -871.000
386.241;   16.000; -307.000; -312.000
386.371;   -5.975; -174.000;  -87.000
386.500;  -65.625; -825.000; -789.000
386.629;    2.775; -874.000; -817.000
386.759;   76.750;  -43.000;   68.000
386.888;  -20.450; -170.000; -250.000
387.017; -104.525; -648.000; -620.000
387.147; -104.725; -771.000; -798.000
387.276;  -72.475; -410.000; -397.000
387.405;  -47.000; -398.000; -342.000
387.535;  -79.125; -452.000; -361.000
387.664;  -59.800; -692.000; -620.000
387.793;  -18.900; -198.000; -113.000
387.922;  158.950;  255.000;  200.000
388.052;  -73.450; -576.000; -423.000
388.181;  -58.900; -342.000; -472.000
388.310; -110.450; -889.000; -710.000
388.439; -113.775; -749.000; -742.000
388.568;   37.075;  365.000;  244.000
388.697;  265.600; -756.000; -653.000
388.826;   -6.625; -768.000; -666.000
388.956;  -31.400; -285.000; -307.000
389.085;  -53.050; -347.000; -287.000
389.214; -115.175; -842.000; -872.000
389.343;  -79.550; -645.000; -413.000
389.472;  539.000;  126.000;  149.000
389.601;  622.425;   91.000;    0.000
389.730;  -12.500; -568.000; -687.000
389.859;   22.500;  226.000;   46.000
389.988;   31.300; -423.000; -408.000
390.117;   25.775; -168.000; -146.000
390.246;  -37.700; -331.000; -320.000
390.375;  -58.400; -673.000; -626.000
390.504;  -83.450; -703.000; -621.000
390.633; -123.150; -672.000; -726.000
390.761;  -95.250; -732.000; -645.000
390.890;  -34.000;   -4.000; -130.000
391.019;  -68.875; -421.000; -441.000
391.148; -146.600; -826.000; -855.000
391.277;  -91.950; -576.000; -493.000
391.406; -122.325; -821.000; -805.000
391.534;   19.775;  574.000; -301.000
391.663;  -85.750; -583.000; -645.000
391.792;  -95.250; -673.000; -701.000
391.921;  -18.950;   -3.000;   15.000
392.050;    7.925; -287.000; -228.000
392.178; -150.050;-1206.000;-1061.000
392.307;  -25.825; -758.000; -712.000
392.436;  -58.250; -427.000; -641.000
392.564;   -2.225;  166.000;   -6.000
392.693; -110.350; -860.000; -682.000
392.822;    8.250; -529.000; -534.000
392.950;  -66.675; -880.000; -714.000
393.079;   64.525; -188.000; -328.000
393.208;  -46.700; -488.000; -511.000
393.336;  -22.350; -170.000; -145.000
393.465;  -60.100; -317.000; -199.000
393.593;   -2.125;   62.000;   79.000
393.722; -145.150;-1121.000; -916.000
393.850;  -29.900; -188.000;  -61.000
393.979; -134.900; -926.000; -805.000
394.107;  -63.125; -517.000; -537.000
394.236;  -50.300; -570.000; -507.000
394.364;   96.250;  383.000;  206.000
394.493;   65.350; -911.000; -767.000
394.621;   11.050; -955.000; -916.000
394.750; 1151.175; -873.000; -923.000
394.878; 4481.350; -247.000; -149.000
395.007; 6575.200; -721.000; -807.000
395.135;  604.300; -790.000; -721.000
395.263;  -51.275;-1038.000;-1040.000
395.392;   -0.350;  -25.000; -107.000
395.520; -130.525; -818.000; -679.000
395.648; -113.375; -865.000; -915.000
395.777;  -75.600; -366.000; -405.000
395.905;  -75.900; -449.000; -564.000
396.033;  -23.700;  217.000;  172.000
396.162;  114.850; -399.000; -453.000
396.290;  114.025;  -17.000;   -2.000
396.418;  -44.800; -555.000; -514.000
396.546; -110.650; -571.000; -466.000
396.674; -123.875; -850.000; -878.000
396.803;  -27.225;  -72.000;  -23.000
396.931;  -24.150; -179.000; -199.000
397.059; -129.900;-1026.000; -989.000
397.187; -133.525;-1026.000; -975.000
397.315; -141.275; -884.000; -649.000
397.443;  -85.975; -592.000; -443.000
397.572; -108.075; -578.000; -424.000
397.700;  -83.775; -607.000; -614.000
397.828;  -37.100;  120.000;  -90.000
397.956;  -29.250; -508.000; -478.000
398.084;  -48.925; -767.000; -626.000
398.212;   13.175;  137.000;  124.000
398.340;  -25.025;  -56.000;  159.000
398.468;  -39.275; -390.000; -169.000
398.596; -157.200; -993.000; -953.000
398.724; -112.900; -762.000; -767.000
398.852; -155.975;-1024.000; -976.000
398.980;  -78.875; -560.000; -560.000
399.108; -107.625; -982.000; -735.000
399.236;  -11.275;   13.000;    8.000
399.363;  -25.450;  222.000;  196.000
399.491;  -57.175; -404.000; -398.000
399.619; -128.625; -829.000; -800.000
399.747; -113.525; -859.000; -771.000
399.875;   35.575;  220.000;  234.000
400.003;  -70.325; -359.000; -284.000
400.130;  -81.925; -421.000; -341.000
400.258;  -25.950;  -83.000;   38.000
400.386;  -68.800; -352.000; -168.000
400.514;  -78.175; -526.000; -587.000
400.641; -143.925; -928.000; -802.000
400.769; -139.300; -979.000; -888.000
400.897; -138.050; -838.000; -793.000
401.025;  -27.150; -166.000; -152.000
401.152;  -16.325;  220.000;   38.000
401.280;  -89.875; -430.000; -429.000
401.408; -131.825; -712.000; -576.000
401.535; -102.300; -735.000; -758.000
401.663; -178.600;-1134.000;-1054.000
401.790;  -89.850; -514.000; -525.000
401.918;   28.675;  436.000;  405.000
402.046;  -18.125;  134.000;  122.000
402.173;  -55.125;  -18.000;    7.000
402.301;  -73.525; -519.000; -397.000
402.428;   20.050;  528.000;  383.000
402.556; -141.200;-1188.000; -913.000
402.683;  -46.600;  -20.000;   -1.000
402.811;  -10.075;  -37.000; -206.000
402.938;  -36.600;   20.000;   27.000
403.066;   -2.650; -574.000; -558.000
403.193;   89.425;  299.000;  239.000
403.321;   66.775; -396.000; -574.000
403.448;   98.625;   83.000;   27.000
403.575;   44.625;  -90.000;  -46.000
403.703;  -95.525; -732.000; -557.000
403.830;  -58.950; -531.000; -496.000
403.957; -131.325;-1117.000;-1023.000
404.085;   19.100;  -61.000; -172.000
404.212;  106.625;  -50.000;   63.000
404.339;  441.000; -566.000; -306.000
404.467; 9039.875; -612.000; -524.000
404.594; 5551.200; -287.000; -227.000
404.721;  960.275; -869.000; -764.000
404.848;  104.000; -113.000; -202.000
404.976; -107.425; -856.000; -783.000
405.103;    4.525;  -14.000;  -82.000
405.230;  -19.275;  190.000;  226.000
405.357;   42.000;  117.000;   44.000
405.484;  401.875;  -49.000;    5.000
405.612;  118.450; -548.000; -563.000
405.739;  -64.450; -488.000; -243.000
405.866;   68.975;  669.000;  385.000
405.993;  -51.450; -398.000; -102.000
406.120; -138.900; -801.000; -887.000
406.247;  -79.475; -323.000; -342.000
406.374;  114.725;  540.000;  629.000
406.501;  -84.100; -632.000; -702.000
406.628;  -87.450; -621.000; -589.000
406.755; -126.700; -803.000; -620.000
406.882;  -58.050; -228.000; -277.000
407.009; -109.525; -719.000; -628.000
407.136;  -38.200; -480.000; -401.000
407.263;  -67.225; -939.000; -829.000
407.390; -101.200; -692.000; -614.000
407.517; -174.475;-1139.000;-1187.000
407.644;  -81.700; -332.000; -256.000
407.771;  -75.875; -249.000; -287.000
407.898;   -0.525;  168.000;  328.000
408.025;  -85.975; -421.000; -313.000
408.151;   -8.200;   82.000;  153.000
408.278;  -70.900; -267.000; -216.000
408.405; -138.300; -931.000; -899.000
408.532;  -99.300; -549.000; -542.000
408.659; -124.275; -677.000; -648.000
408.785; -199.250;-1298.000;-1170.000
408.912;  -68.725; -412.000; -296.000
409.039; -100.350; -610.000; -686.000
409.166; -107.150; -591.000; -555.000
409.292; -116.800; -571.000; -534.000
409.419; -110.900; -665.000; -649.000
409.546;  -95.975; -431.000; -192.000
409.672; -116.075; -713.000; -545.000
409.799;  -44.825;  -36.000;   34.000
409.926;  -43.825; -180.000; -179.000
410.052; -186.325;-1127.000;-1091.000
410.179;  -63.850; -368.000; -392.000
410.305; -104.975; -375.000; -493.000
410.432;  -49.750; -220.000; -333.000
410.558;  -95.775; -305.000; -380.000
410.685; -108.875; -688.000; -431.000
410.812; -107.325; -409.000; -588.000
410.938; -142.400; -964.000; -808.000
411.065; -111.475; -671.000; -645.000
411.191;  -42.200; -189.000; -174.000
411.317; -126.250; -823.000; -742.000
411.444;  -58.000; -317.000; -246.000
411.570;  -82.350; -339.000; -294.000
411.697; -121.800; -758.000; -752.000
411.823; -174.675; -989.000; -999.000
411.949;  -55.675;  -56.000;   17.000
412.076; -126.675; -539.000; -519.000
412.202; -121.175; -758.000; -757.000
412.329; -134.725; -798.000; -752.000
412.455; -125.600; -821.000; -657.000
412.581;  -30.675;  -15.000;  172.000
412.707;  -91.325; -540.000; -457.000
412.834;  -17.950;  156.000;  219.000
412.960;  -98.100; -785.000; -784.000
413.086; -112.400; -743.000; -701.000
413.212;  107.100;  604.000;  578.000
413.339; -110.475; -685.000; -701.000
413.465;  -48.825; -364.000; -310.000
413.591; -109.025; -757.000; -474.000
413.717;  -50.900; -358.000; -366.000
413.843; -145.650; -839.000; -861.000
413.969;  -48.050;  -47.000; -292.000
414.096; -103.050; -679.000; -679.000
414.222;    6.250;  -33.000;   85.000
414.348;  -82.800; -652.000; -385.000
414.474;    6.025;   38.000;  -52.000
414.600;  -17.375; -126.000; -144.000
414.726;    4.200;  -96.000;  -55.000
414.852;  -30.525; -365.000; -342.000
414.978;   48.225;  104.000;  -18.000
415.104;   63.850;   38.000;   80.000
415.230;   47.550; -329.000; -330.000
415.356;   61.450; -409.000; -514.000
415.482;  227.525;   13.000;  -35.000
415.608;  395.000; -247.000; -323.000
415.734; 1322.200;   67.000;   38.000
415.860;27660.375; -875.000; -767.000
415.986;22980.475; -685.000; -607.000
416.111; 2166.725; -798.000; -652.000
416.237;  479.150; -424.000; -571.000
416.363; 1678.775; -765.000; -733.000
416.489; 6868.650; -324.000; -251.000
416.615;  930.075; -707.000; -742.000
416.741;   61.700; -677.000; -784.000
416.866;  -59.200; -673.000; -736.000
416.992;  -96.225; -801.000; -818.000
417.118;  -19.900;  -41.000;  -80.000
417.244;  -77.900; -798.000; -531.000
417.369;  -90.575; -801.000; -612.000
417.495;    4.025; -325.000; -254.000
417.621;  -75.100;-1015.000; -803.000
417.746;   -0.975; -579.000; -572.000
417.872;   68.650; -254.000; -144.000
417.998;  135.400; -515.000; -530.000
418.123; 1553.525;-1073.000; -845.000
418.249; 8633.750; -512.000; -601.000
418.374; 1465.950; -916.000; -824.000
418.500;  243.425; -383.000; -482.000
418.626;  162.350;   70.000;  -59.000
418.751;  159.100; -549.000; -448.000
418.877;  316.625; -637.000; -643.000
419.002; 2583.750; -688.000; -560.000
419.128;19589.050; -930.000; -721.000
419.253; 5581.750; -967.000; -837.000
419.379;  766.475; -391.000; -338.000
419.504;  599.800;  325.000;  415.000
419.629;  842.050; -393.000; -212.000
419.755; 5352.225; -317.000; -254.000
419.880;34995.400;  -98.000;   67.000
420.006;17588.775; -280.000; -221.000
420.131;43764.850; -662.000; -775.000
420.256; 7151.000; -315.000; -316.000
420.382;  979.550; -665.000; -687.000
420.507;  180.375; -649.000; -778.000
420.632;   34.175; -337.000; -339.000
420.758;   55.925; -251.000; -425.000
420.883;  -93.950; -876.000; -672.000
421.008; -108.675; -775.000; -619.000
421.133; -101.800; -509.000; -467.000
421.259;  -47.375; -325.000; -259.000
421.384; -125.050; -834.000; -693.000
421.509; -116.975;-1052.000; -862.000
421.634;  166.500; -936.000; -820.000
421.759;   91.725; -359.000; -327.000
421.885; -104.850; -717.000; -656.000
422.010;  -86.300; -673.000; -542.000
422.135; -156.775; -695.000; -727.000
422.260;   27.425;  340.000;  280.000
422.385;  -55.650;   12.000;  -98.000
422.510;   -4.575;  151.000;  -26.000
422.635;  -30.500;  -87.000;  -43.000
422.760;  -10.400; -766.000; -791.000
422.885;   19.825;  -57.000;  -80.000
423.010;  -17.275; -112.000; -169.000
423.135;  -96.825; -481.000; -561.000
423.260;  -48.650; -150.000; -245.000
423.385;    6.525;  476.000;  222.000
423.510;   17.050;   71.000;  -22.000
423.635;   12.675;  133.000;   45.000
423.760;   46.525;  383.000;  328.000
423.885;   19.125;  336.000;  391.000
424.010;   -3.850;  -68.000;  -13.000
424.135;  -31.975;    5.000;  -33.000
424.259;  -79.000; -654.000; -457.000
424.384;  -51.775; -279.000; -272.000
424.509;  -17.850; -260.000; -186.000
424.634;  -88.275; -761.000; -623.000
424.759;  -18.975; -688.000; -544.000
424.883;    1.050; -506.000; -527.000
425.008;  210.050; -502.000; -410.000
425.133; 2917.400; -679.000; -653.000
425.258; 1567.925; -517.000; -381.000
425.382;  499.475; -867.000; -774.000
425.507; 1178.775; -487.000; -543.000
425.632;  377.900; -802.000; -663.000
425.756;  687.100; -256.000; -146.000
425.881;10027.375; -831.000; -857.000
426.006;31340.200; -604.000; -355.000
426.130; 5201.350; -696.000; -508.000
426.255;  726.350; -611.000; -491.000
426.379;  270.175; -189.000; -577.000
426.504;  499.825;  660.000;  544.000
426.629; 5656.225; -519.000; -466.000
426.753; 4540.050;   64.000;  -46.000
426.878;  554.600; -252.000; -288.000
427.002;  325.400; -651.000; -668.000
427.127; 2076.275;  -35.000; -158.000
427.251;17409.600;  372.000;  401.000
427.375; 5726.275; -191.000; -173.000
427.500; 1350.475; -616.000; -610.000
427.624;  400.050; -234.000; -400.000
427.749;   90.500; -216.000; -225.000
427.873;  -14.775; -499.000; -412.000
427.997;  -41.550; -222.000; -230.000
428.122;   55.825;  795.000;  703.000
428.246;   51.550;  433.000;  434.000
428.371; -134.575; -869.000; -773.000
428.495; -112.600; -624.000; -646.000
428.619;  -44.700; -186.000; -117.000
428.743;   16.825;   65.000;  132.000
428.868;  -86.000; -732.000; -643.000
428.992;  475.100; -219.000; -326.000
429.116;  191.325; -329.000; -357.000
429.240;  109.450;  419.000;  426.000
429.365;  -35.125; -454.000; -574.000
429.489;  -54.150; -638.000; -647.000
429.613;   22.825; -236.000; -177.000
429.737;   91.100; -563.000; -432.000
429.861;  380.825; -247.000; -133.000
429.985; 7966.075; -425.000; -305.000
430.109;10231.825; -770.000; -908.000
430.234; 1258.925;   76.000;  -50.000
430.358;  150.350; -250.000; -160.000
430.482;  -40.200; -672.000; -564.000
430.606;  -70.250; -655.000; -375.000
430.730;  -57.975; -437.000; -388.000
430.854;  -86.525; -909.000; -835.000
430.978;  -86.000; -795.000; -764.000
431.102;  -88.075; -499.000; -422.000
431.226; -123.500; -874.000; -815.000
431.350;   19.500;  345.000;  422.000
431.474;  -82.325; -661.000; -373.000
431.597; -155.050;-1060.000; -848.000
431.721;  -68.325; -276.000; -267.000
431.845; -127.900; -704.000; -472.000
431.969;  -68.575; -304.000; -349.000
432.093;  -98.125; -395.000; -317.000
432.217;  -14.200;   32.000;   82.000
432.341; -104.825; -523.000; -518.000
432.464;   -9.400;   96.000;   40.000
432.588;  -29.425; -401.000; -329.000
432.712;   18.025;  -52.000;  -52.000
432.836;   42.325;  213.000;  263.000
432.959;   32.325; -372.000; -311.000
433.083;  163.275;   11.000;    2.000
433.207;  561.450;  285.000;  930.000
433.330; 7661.375; -391.000; -200.000
433.454;10721.500; -654.000; -638.000
433.578; 5905.825;  583.000;  278.000
433.701; 1285.375; -623.000; -675.000
433.825;  163.250; -292.000; -299.000
433.949;   59.550;   28.000;  -72.000
434.072;  -19.650; -410.000; -323.000
434.196;   -9.725; -309.000; -117.000
434.319; 3501.150;25482.000;25124.000
434.443;  893.300; -656.000; -603.000
434.566; 4126.525;  281.000;   62.000
434.690;  910.300; -637.000; -383.000
434.813;  136.950; -251.000; -173.000
434.937;  -44.275; -569.000; -696.000
435.060;  -84.950; -423.000; -332.000
435.184;  -11.650; -492.000; -217.000
435.307;    7.775;  159.000;  102.000
435.431;  -24.275;  -40.000;   24.000
435.554;  -77.675; -399.000; -240.000
435.677;  -67.475; -350.000; -258.000
435.801;  -51.750;  -25.000;   49.000
435.924;  -31.400;    1.000;  -67.000
436.048; -158.050;-1019.000; -732.000
436.171;  -66.950; -240.000;  -66.000
436.294;  -16.625; -248.000; -229.000
436.417;  221.175; -963.000; -849.000
436.541;  -37.100; -814.000; -840.000
436.664;  -30.400; -242.000; -316.000
436.787;  -31.025;   13.000;  113.000
436.910; -103.450; -792.000; -422.000
437.034;  -20.850;  142.000;  143.000
437.157;   -4.125;  -11.000;    0.000
437.280;  -76.600; -392.000; -292.000
437.403; -118.225; -982.000; -869.000
437.526;   -9.650; -903.000; -865.000
437.649;  472.125; -505.000; -332.000
437.772;   -6.300; -692.000; -540.000
437.896;   55.625;  700.000;  544.000
438.019;  -97.450; -758.000; -503.000
438.142;  -96.700; -596.000; -506.000
438.265; -134.175; -639.000; -670.000
438.388;   31.275; -520.000; -410.000
438.511;  -73.625; -597.000; -394.000
438.634;  -71.150; -247.000; -125.000
438.757; -137.875; -693.000; -619.000
438.880;  -50.125;  -34.000;  -57.000
439.003; -104.875; -417.000; -437.000
439.126;  -73.400; -287.000; -167.000
439.248;  -70.850;  -98.000; -139.000
439.371;  -48.500;    9.000;  -53.000
439.494;   19.550;  510.000;  439.000
439.617;  -47.325;   65.000;  -88.000
439.740; -161.250; -968.000; -816.000
439.863; -138.725; -755.000; -595.000
439.986; -137.250; -476.000; -431.000
440.108;  -42.800; -161.000; -112.000
440.231; -169.375; -950.000; -836.000
440.354;  -50.300;  -64.000; -150.000
440.477; -116.475; -566.000; -542.000
440.599;  -95.150; -200.000; -225.000
440.722; -135.575; -709.000; -586.000
440.845;   71.525;  751.000;  928.000
440.968; -102.200; -415.000; -311.000
441.090;  -65.950; -199.000;  -33.000
441.213; -171.525;-1021.000; -825.000
441.336;  -55.850; -159.000;   -5.000
441.458; -108.500; -549.000; -396.000
441.581; -114.325; -628.000; -629.000
441.703;  -72.225; -152.000;   13.000
441.826;  -98.350; -557.000; -400.000
441.948;  -70.875;   56.000;   51.000
442.071;   20.250;  555.000;  424.000
442.193; -135.500; -531.000; -485.000
442.316;   -9.400;  152.000;   97.000
442.438;   75.850; -233.000;  -10.000
442.561;   64.250;  272.000;  262.000
442.683;   49.075; -809.000; -522.000
442.806;  253.575;   -8.000;   74.000
442.928;  -97.400; -859.000; -604.000
443.051;  -90.275; -577.000; -373.000
443.173;  -91.725; -341.000; -339.000
443.295;  -93.300; -263.000; -371.000
443.418;  -91.325; -321.000;  -29.000
443.540;  -40.225; -106.000;   -4.000
443.662; -121.500; -563.000; -465.000
443.785;  -16.300;  335.000;  199.000
443.907; -102.650; -362.000; -208.000
444.029; -127.275; -767.000; -494.000
444.152; -141.050; -644.000; -554.000
444.274;  -36.425;  -18.000;  -24.000
444.396; -111.125; -461.000; -221.000
444.518; -122.675; -691.000; -454.000
444.640; -106.700; -268.000; -111.000
444.763;  -10.800;  388.000;  249.000
444.885; -121.550; -432.000; -392.000
445.007;  -30.400;   35.000;   86.000
445.129; -134.600; -610.000; -515.000
445.251;  -99.175; -372.000; -439.000
445.373; -133.175; -537.000; -386.000
445.495;  -12.400;  242.000;  350.000
445.617;   38.100;  853.000;  753.000
445.739;  -61.575; -215.000;  -97.000
445.861;  -64.150; -245.000; -112.000
445.984;  -56.725; -267.000; -101.000
446.105;  -39.550; -418.000; -251.000
446.227;  110.075; -176.000;  -19.000
446.349;  -84.300; -358.000; -249.000
446.471; -115.800; -615.000; -448.000
446.593; -101.275; -316.000;   19.000
446.715;  -48.450;  -67.000;   41.000
446.837;   32.100;  697.000;  832.000
446.959; -111.750; -457.000; -478.000
447.081; -138.350; -628.000; -518.000
447.203;   50.650;  862.000;  834.000
447.325;  -92.675; -270.000;   42.000
447.446;   -6.550;  286.000;  530.000
447.568; -160.225; -921.000; -803.000
447.690;  -81.025; -236.000; -245.000
447.812; -152.700; -798.000; -519.000
447.933;  -17.700;  155.000;  127.000
448.055;  -81.275; -306.000; -261.000
448.177;   31.475;   31.000;   79.000
448.299; -113.325; -935.000; -727.000
448.420;  -12.125;  -25.000;  159.000
448.542;  -66.450;   -3.000;   33.000
448.664;  -13.600;  109.000;  322.000
448.785;  -54.625;  265.000;   83.000
448.907; -100.500; -614.000; -353.000
449.028; -117.025; -771.000; -471.000
449.150;   25.875;  492.000;  589.000
449.272; -185.250;-1044.000; -913.000
449.393;   20.625;  612.000;  694.000
449.515; -136.350; -634.000; -581.000
449.636;  -66.400; -264.000; -155.000
449.758;   41.150;  763.000;  622.000
449.879;  -88.425; -498.000; -396.000
450.001;  -81.225; -149.000;  -49.000
450.122;  -21.925;  -95.000;  162.000
450.244;  -14.775;   37.000;  364.000
450.365;  -72.975; -495.000; -301.000
450.486;   -2.600;   80.000;  268.000
450.608;   50.950;  393.000;  326.000
450.729;   96.100;  578.000;  645.000
450.850;  106.150; -574.000; -466.000
450.972; 1199.925; -552.000; -389.000
451.093; 8001.375;  190.000;  588.000
451.214; 4146.225; -516.000; -337.000
451.336;  710.600;  773.000;  579.000
451.457;  115.100;  264.000;  393.000
451.578;  -17.975; -118.000;  -74.000
451.699; -108.575; -546.000; -540.000
451.821;  -42.575; -284.000;  -50.000
451.942;    0.550;  278.000;  285.000
452.063;   55.775;  228.000;  419.000
452.184;  807.325;  -54.000;  -49.000
452.305; 1750.875;  103.000;  170.000
452.427;  332.225; -549.000; -301.000
452.548;    9.300;   23.000;   79.000
452.669;  -67.525; -257.000;  -89.000
452.790;  -56.450;    3.000;  -18.000
452.911;  -18.950;  195.000;  259.000
453.032;  -80.875; -289.000;  -60.000
453.153;  -73.025;  -29.000;   81.000
453.274;   54.600;  737.000;  868.000
453.395;  -66.825;  -51.000;  175.000
453.516;   71.525; 1317.000; 1388.000
453.637; -103.075; -205.000; -150.000
453.758;  -54.300;   15.000;   69.000
453.879; -111.675; -462.000; -250.000
454.000;   74.800; 1086.000;  948.000
454.121; -141.325; -554.000; -326.000
454.242; -103.325; -599.000; -383.000
454.362;  -55.075;  -99.000;  114.000
454.483;   -6.800; -309.000; -229.000
454.604;   55.375;  512.000;  580.000
454.725; -113.225; -627.000; -555.000
454.846; -124.450; -474.000; -406.000
454.967;  -20.050;  230.000;  539.000
455.087;  -38.800;  179.000;  153.000
455.208;    6.350;  554.000;  856.000
455.329;  -60.450;  -22.000;   82.000
455.450;   64.250;  473.000;  633.000
455.570;  -57.150; -234.000; -211.000
455.691;  -21.825;  201.000;  407.000
455.812; -120.925; -270.000;  -92.000
455.932;  -50.825;  107.000;  -97.000
456.053;  -81.750;   36.000;   24.000
456.173;  -97.375; -433.000; -355.000
456.294; -128.825; -476.000; -303.000
456.415;  -55.800;  -73.000;   70.000
456.535;  -48.500;  297.000;  273.000
456.656;  -42.400;  132.000;  240.000
456.776;  -77.775;    3.000;  298.000
456.897;   -8.875;  308.000;  513.000
457.017;  -79.325; -153.000;   -3.000
457.138; -104.900; -402.000; -249.000
457.258;  -49.550;  263.000;  224.000
457.379;   -2.475;  509.000;  521.000
457.499;  -39.300;  443.000;  432.000
457.620; -115.500; -407.000; -231.000
457.740;  -93.475; -132.000;  -11.000
457.860;  -48.075;   87.000;   44.000
457.981;  -33.550;  132.000;  124.000
458.101;  -77.775;  -89.000;   40.000
458.221;  -19.700;  336.000;  402.000
458.342;  -49.850;   -4.000;  -37.000
458.462;   45.225;  617.000;  352.000
458.582;   20.050; -302.000; -294.000
458.703;   67.025;  303.000;  154.000
458.823;   28.275;   22.000;  163.000
458.943;   34.200;  341.000;  467.000
459.063;   23.175; 1124.000;  192.000
459.183;  -11.325;  328.000;  313.000
459.304;   26.450;  315.000;  517.000
459.424;  -36.375; -246.000;  -89.000
459.544;  478.600;  388.000;  764.000
459.664; 1323.125;  499.000;  506.000
459.784;  531.400; 1004.000; 1175.000
459.904;   77.125;  867.000;  744.000
460.024;   51.325;  867.000;  684.000
460.144;  -22.000;  449.000;  554.000
460.264;   -6.975;  515.000;  327.000
460.385;  -98.500; -145.000; -119.000
460.505;   39.650;  905.000;  858.000
460.625; -103.150;  -17.000;  -68.000
460.745;  -16.425;  396.000;  541.000
460.864;  -51.325;  153.000;  469.000
460.984;   47.575;  499.000;  573.000
461.104;  158.050; 1656.000; 1775.000
461.224;   24.375;  657.000;  650.000
461.344;  -27.175;  431.000;  360.000
461.464;  -42.625;  258.000;  513.000
461.584;  -41.250;  283.000;  466.000
461.704;  -58.375;   58.000;  108.000
461.824;  -46.600;  238.000;  259.000
461.943;  -42.425;  191.000;  130.000
462.063;  -71.400;    2.000;  324.000
462.183;   23.250;  639.000;  717.000
462.303;   99.625; 1678.000; 1230.000
462.422;   24.800;  781.000;  840.000
462.542;  -40.775;  271.000;  391.000
462.662;   49.825;  353.000;  380.000
462.782;  341.300;  833.000;  572.000
462.901;  761.475;  545.000;  717.000
463.021;  389.675; 1702.000; 1638.000
463.141;   15.875;  337.000;  770.000
463.260;  -16.125;  614.000;  474.000
463.380;   23.550;  902.000;  884.000
463.499;  -26.225;  342.000;  332.000
463.619;  -16.900;  581.000;  559.000
463.738;   94.825; 1644.000;  903.000
463.858;   20.125;  657.000;  811.000
463.978;  -42.150;  542.000;  396.000
464.097;   75.150;  921.000; 1114.000
464.217;  150.775; 1196.000; 1143.000
464.336;  163.875; 1068.000; 1130.000
464.455;  -18.175;  328.000;  659.000
464.575;   27.850;  597.000;  602.000
464.694;  119.025; 1204.000; 1179.000
464.814;  160.975; 1190.000; 1138.000
464.933;   96.250; 1095.000; 1027.000
465.052;   96.175; 1412.000; 1054.000
465.172;   79.275;  922.000;  799.000
465.291;  119.875; 1376.000; 1320.000
465.410;   -7.100;  462.000;  735.000
465.530;   72.425; 1355.000; 1310.000
465.649;   39.600; 1209.000; 1273.000
465.768;  144.500; 1673.000; 1508.000
465.888;   45.300;  941.000; 1174.000
466.007;   92.850; 1335.000; 1440.000
466.126;   -9.200;  721.000;  641.000
466.245;   35.450; 1176.000; 1187.000
466.364;   16.375;  950.000; 1060.000
466.484;   59.875; 1024.000; 1213.000
466.603;   17.600; 1101.000; 1222.000
466.722;  121.450; 1490.000; 1769.000
466.841;   44.400; 1151.000; 1401.000
466.960;   43.850; 1069.000;  972.000
467.079;  115.275; 1971.000; 1786.000
467.198;   63.350; 1238.000; 1181.000
467.317;   77.350; 1768.000; 1162.000
467.436;   94.075; 1709.000; 1261.000
467.555;  102.750; 1796.000; 1746.000
467.674;   88.175; 1227.000; 1329.000
467.793;   39.550; 1376.000; 1374.000
467.912;  103.250; 1658.000; 1539.000
468.031;  125.175; 2038.000; 1930.000
468.150;  121.975; 1842.000; 1837.000
468.269;  184.825; 2313.000; 2090.000
468.388;  192.575; 2168.000; 2339.000
468.507;  237.775; 2884.000; 2903.000
468.626;  263.775; 2555.000; 2541.000
468.744;  132.400; 2018.000; 2174.000
468.863;  208.075; 2312.000; 2523.000
468.982;   90.275; 1503.000; 1555.000
469.101;  222.000; 2788.000; 2692.000
469.220;  141.050; 2333.000; 2176.000
469.338;  247.400; 2935.000; 3051.000
469.457;  204.725; 2719.000; 2545.000
469.576;  362.375; 3953.000; 3784.000
469.695;  232.175; 2877.000; 3066.000
469.813;  414.625; 4148.000; 4192.000
469.932;  372.250; 4255.000; 4485.000
470.051;  453.875; 4075.000; 4161.000
470.169; 1045.800; 4470.000; 4338.000
470.288; 2018.750; 4700.000; 4809.000
470.406; 1198.825; 5059.000; 5194.000
470.525;  691.725; 6101.000; 5787.000
470.644;  671.650; 6847.000; 6794.000
470.762;  783.700; 8397.000; 7873.000
470.881;  924.775; 8651.000; 8464.000
470.999; 1088.475; 9685.000; 9151.000
471.118; 1114.100;11174.000;10711.000

