
Integration time [ms]: 200.000
Averaging Nr. [scans]: 10
Smoothing Nr. [pixels]: 0
Data measured with spectrometer [name]: 2101012U2
Wave   ;Sample   ;Dark     ;Reference
[nm]   ;[counts] ;[counts] ;[counts] 

197.733;  122.200;  516.000;  404.000
197.879; -172.700; -610.000; -634.000
198.025; -110.300; -475.000; -420.000
198.171; -160.900; -602.000; -612.000
198.317;  -51.900; -401.000; -316.000
198.463; -152.300; -655.000; -404.000
198.609;   50.100;  181.000; -137.000
198.755; -162.900; -644.000; -410.000
198.901; -139.900; -505.000; -424.000
199.047; -149.500; -615.000; -488.000
199.193;  -72.000; -230.000; -468.000
199.339; -102.600; -222.000; -369.000
199.485;   72.200;  330.000;  271.000
199.631;   25.700;  227.000;  310.000
199.777; -105.000; -466.000; -398.000
199.923; -147.700; -610.000; -424.000
200.069;    7.500; -141.000;  -58.000
200.215;  102.500;  128.000;  453.000
200.361;  111.300;  243.000;  477.000
200.507; -135.600; -600.000; -373.000
200.653;  -58.500; -371.000; -194.000
200.798;  -46.500; -215.000; -125.000
200.944;   -5.200; -146.000;  -41.000
201.090;   44.900;   61.000;  222.000
201.236;  -33.100; -116.000; -158.000
201.382;  218.300;  874.000;  903.000
201.528;   22.800;  -58.000;  -48.000
201.674;  -63.200; -386.000; -293.000
201.819; -141.600; -540.000; -439.000
201.965; -145.800; -699.000; -447.000
202.111;  -55.600; -273.000; -226.000
202.257;  -87.800; -250.000; -238.000
202.402;   41.500;   13.000;  -36.000
202.548; -103.500; -169.000; -116.000
202.694;  194.700;  410.000; -183.000
202.840; -162.900; -603.000; -531.000
202.985; -141.800; -681.000; -639.000
203.131; -207.900; -832.000; -666.000
203.277;  -34.600; -199.000; -262.000
203.423; -103.300; -434.000; -520.000
203.568; -106.200; -462.000; -237.000
203.714; -135.700; -535.000; -542.000
203.860; -169.800; -682.000; -641.000
204.005;   25.000;  112.000;  167.000
204.151;  165.800;  561.000;  556.000
204.296;  -93.400; -354.000; -221.000
204.442; -145.800; -600.000; -547.000
204.588; -170.100; -592.000; -579.000
204.733;   36.700;  178.000;  168.000
204.879; -275.300;-1018.000; -822.000
205.025;   10.900;  -99.000;  126.000
205.170;    0.200;  -17.000;   94.000
205.316;  189.000;  438.000;  661.000
205.461; -198.000; -698.000; -554.000
205.607;  199.500;  609.000;  665.000
205.752; -149.500; -626.000; -551.000
205.898; -100.100; -501.000; -391.000
206.043; -119.400; -578.000; -506.000
206.189; -103.300; -243.000; -285.000
206.334;  160.400;  554.000;  606.000
206.480;  180.300;  409.000;  239.000
206.625; -165.700; -529.000; -552.000
206.771;  -79.900; -451.000; -373.000
206.916;  -80.700; -210.000; -537.000
207.062; -155.500; -545.000; -591.000
207.207; -150.800; -546.000; -443.000
207.353;   92.100;  185.000;  460.000
207.498;   27.400;  196.000;   85.000
207.643;  -70.600; -501.000; -370.000
207.789; -236.900;-1069.000; -910.000
207.934; -157.500; -665.000; -713.000
208.080;  -67.900; -154.000;   66.000
208.225;  -12.600;  -22.000;  -57.000
208.370; -142.300; -727.000; -619.000
208.516; -131.300; -741.000; -487.000
208.661;  -93.100; -127.000;  -69.000
208.806;  -10.700; -165.000; -171.000
208.952; -268.900;-1044.000; -731.000
209.097;  169.500;  378.000;  349.000
209.242; -120.100; -307.000; -382.000
209.387;  104.200;  392.000;  350.000
209.533; -112.500; -321.000; -350.000
209.678;  150.500;  472.000;  543.000
209.823; -137.600; -408.000; -310.000
209.969; -210.300; -860.000; -757.000
210.114; -225.400; -907.000; -719.000
210.259; -214.600; -939.000; -889.000
210.404;  -28.100; -171.000;  103.000
210.549;   16.600;  108.000;    3.000
210.695;  -34.700;   -3.000;  -95.000
210.840;  107.000;   94.000;   67.000
210.985; -117.800; -484.000; -303.000
211.130;  164.700;  268.000;  406.000
211.275;   49.300;  207.000;  199.000
211.420; -111.500; -300.000; -289.000
211.566; -184.800; -536.000; -489.000
211.711;   54.800;  218.000;  157.000
211.856; -125.100; -545.000; -519.000
212.001;    6.000;  151.000;   44.000
212.146;   -3.200;  153.000;   49.000
212.291;  -25.200; -210.000; -186.000
212.436;  -30.800; -280.000;   -6.000
212.581; -157.900; -685.000; -653.000
212.726; -160.200; -487.000; -538.000
212.871;  -82.600; -552.000; -217.000
213.016; -328.000;-1172.000;-1029.000
213.161;  133.800;  406.000;  291.000
213.306; -150.100; -435.000; -577.000
213.451; -169.400; -778.000; -689.000
213.596;  -90.800; -455.000; -347.000
213.741;  -78.600; -448.000; -538.000
213.886; -155.100; -498.000; -517.000
214.031;  -13.100; -294.000; -124.000
214.176; -102.000; -408.000; -341.000
214.321;  -35.200; -296.000; -157.000
214.466;  -52.700; -163.000;  -43.000
214.611;    4.100;  -61.000;  -10.000
214.756; -235.900; -948.000; -858.000
214.901;  -63.500; -388.000; -226.000
215.046; -252.000; -797.000; -825.000
215.191;   46.200;  128.000;   35.000
215.336;  -22.800; -157.000;  -19.000
215.480; -106.500; -684.000; -505.000
215.625;  -25.400; -175.000;  -19.000
215.770; -165.300; -757.000; -662.000
215.915;  -39.400;   -5.000;  -97.000
216.060;  -30.000; -113.000;  -21.000
216.205; -221.300; -731.000; -779.000
216.349; -127.200; -470.000; -533.000
216.494; -259.700; -939.000; -867.000
216.639; -235.800; -823.000; -888.000
216.784; -192.600; -577.000; -525.000
216.929;   91.100;  392.000;  281.000
217.073;  -25.300; -244.000;  -31.000
217.218;   25.900;   78.000;  -47.000
217.363; -171.800; -656.000; -618.000
217.507; -163.500; -623.000; -588.000
217.652; -249.200; -845.000; -874.000
217.797; -172.900; -708.000; -659.000
217.942; -223.500; -856.000; -720.000
218.086;  158.600;  608.000;  539.000
218.231;  -46.500; -174.000;  -26.000
218.376;  -32.300; -337.000; -229.000
218.520;    0.700;  -41.000;   96.000
218.665;  -52.500; -338.000; -204.000
218.810;  -95.800; -275.000; -233.000
218.954;   44.700;  201.000;   35.000
219.099; -238.700; -713.000; -963.000
219.243; -113.200; -589.000; -554.000
219.388;  -92.600; -264.000; -136.000
219.532;   -0.200; -116.000; -116.000
219.677; -151.100; -564.000; -521.000
219.822;   27.300;   33.000;   89.000
219.966;   -2.600;   17.000;  -99.000
220.111;  -49.600; -328.000;  -40.000
220.255; -195.500; -797.000; -750.000
220.400;  -51.900; -180.000; -146.000
220.544; -139.100; -516.000; -450.000
220.689;  -79.600; -422.000; -451.000
220.833;  -65.500; -123.000;  -58.000
220.978;  -66.300; -393.000; -563.000
221.122;   35.600;  319.000;  307.000
221.267; -237.800; -906.000; -837.000
221.411; -162.800; -478.000; -394.000
221.555;  -30.800; -104.000;  -23.000
221.700;  -92.100; -329.000; -222.000
221.844;   95.000;  255.000;  272.000
221.989; -101.500; -328.000; -311.000
222.133;  -63.400; -289.000; -307.000
222.277;  -28.800;    5.000;   78.000
222.422;   65.800;  227.000;  113.000
222.566;  -65.700; -381.000; -214.000
222.711; -125.300; -414.000; -479.000
222.855; -153.300; -643.000; -586.000
222.999; -156.300; -642.000; -717.000
223.144;  -59.000; -195.000; -194.000
223.288;  127.500;  423.000;  251.000
223.432;   16.400;  184.000;  230.000
223.576;   79.100;  152.000;  -21.000
223.721;   77.300;  364.000;  273.000
223.865;  -86.300; -472.000; -475.000
224.009;  486.800; 1673.000; 1631.000
224.153; -158.000; -660.000; -671.000
224.298; -144.400; -531.000; -489.000
224.442;  -32.100;  -74.000;  -33.000
224.586;  -37.500; -169.000; -106.000
224.730; -159.800; -858.000; -670.000
224.875; -235.500; -739.000; -688.000
225.019;   24.000;  102.000;  188.000
225.163;  137.700;  208.000;  341.000
225.307;   62.700;   97.000;  -91.000
225.451;   86.600;  360.000;  481.000
225.595;   82.100;  264.000;  176.000
225.739;  -23.300; -170.000;  -94.000
225.884;   26.700;   86.000;    5.000
226.028; -204.100; -760.000; -626.000
226.172;  -43.800; -260.000; -273.000
226.316; -248.100; -941.000; -902.000
226.460; -114.400; -645.000; -493.000
226.604; -108.500; -406.000; -400.000
226.748; -198.900; -836.000; -733.000
226.892;  -71.000; -227.000; -181.000
227.036;  -86.300; -537.000; -447.000
227.180; -113.900; -551.000; -375.000
227.324; -133.700; -561.000; -580.000
227.468; -220.300; -819.000; -717.000
227.612;   53.700;  242.000;  -28.000
227.756; -232.900; -845.000; -698.000
227.900;  117.600;  342.000;  441.000
228.044; -121.000; -509.000; -290.000
228.188;  131.900;  448.000;  568.000
228.332; -188.500; -546.000; -472.000
228.476;  -42.400; -223.000; -149.000
228.620;  -62.000; -210.000; -150.000
228.764;  134.600;  431.000;  349.000
228.908;  -32.000; -155.000;   30.000
229.052; -123.300; -615.000; -528.000
229.195;  -21.600; -172.000;   13.000
229.339;  -64.100; -235.000; -305.000
229.483;  -70.800;    5.000; -162.000
229.627;   24.300; -156.000;  139.000
229.771; -114.700; -218.000; -294.000
229.915;   20.200;  230.000;   79.000
230.059; -183.000; -648.000; -663.000
230.202;  -88.600; -370.000; -317.000
230.346;  -36.800; -107.000;  107.000
230.490;  -89.500; -489.000; -521.000
230.634; -222.600; -736.000; -553.000
230.777;  142.000;  478.000;  509.000
230.921; -103.000; -450.000; -359.000
231.065;  -72.300; -246.000; -286.000
231.209;   49.500;  261.000;  265.000
231.352;   38.200;   54.000;   40.000
231.496;   45.100;  568.000;  188.000
231.640; -168.200; -693.000; -621.000
231.783;  131.500;  546.000;  525.000
231.927;  -92.700; -294.000; -365.000
232.071; -228.600; -962.000; -736.000
232.214; -198.500; -980.000; -764.000
232.358; -193.600; -683.000; -599.000
232.502;   16.500;  -19.000;    7.000
232.645; -290.900;-1090.000; -927.000
232.789;  -42.100; -257.000; -218.000
232.933;  -62.200; -407.000; -224.000
233.076; -230.600;-1038.000; -897.000
233.220; -219.100; -752.000; -777.000
233.363; -144.700; -669.000; -477.000
233.507;  124.200;  371.000;  129.000
233.650; -176.700; -764.000; -834.000
233.794;   71.200;  438.000;  461.000
233.938; -100.800; -530.000; -362.000
234.081;  -27.100;  -93.000;   31.000
234.225; -112.900; -631.000; -539.000
234.368; -222.900; -773.000; -723.000
234.512;  -54.200; -385.000; -299.000
234.655; -188.800; -582.000; -555.000
234.798; -109.700; -493.000; -466.000
234.942; -265.300; -884.000;-1002.000
235.085; -139.400; -651.000; -443.000
235.229; -156.000; -405.000; -410.000
235.372;  -61.200; -247.000; -191.000
235.516; -104.500; -397.000; -321.000
235.659;   62.300;   92.000;  121.000
235.802;  -15.400;  -38.000;  -22.000
235.946;   42.700;  335.000;  215.000
236.089;   54.700;  126.000;  250.000
236.233;  158.500;  275.000;  298.000
236.376;  -99.200; -235.000; -378.000
236.519;  -71.100; -297.000; -319.000
236.663;  -64.000; -215.000; -117.000
236.806; -261.200;-1029.000; -999.000
236.949;  110.300;  543.000;  431.000
237.092;  124.400;  412.000;  391.000
237.236; -149.400; -589.000; -502.000
237.379;  126.100;  352.000;  428.000
237.522; -231.900; -879.000; -768.000
237.666;    0.900; -271.000;   18.000
237.809; -229.500; -851.000; -823.000
237.952;   77.800;  469.000;  271.000
238.095; -137.700; -447.000; -442.000
238.238;  171.000;  688.000;  700.000
238.382;    6.100;  166.000;  103.000
238.525; -122.700; -598.000; -511.000
238.668; -284.900;-1060.000; -985.000
238.811; -169.300; -638.000; -643.000
238.954; -123.000; -483.000; -334.000
239.097;  182.200;  617.000;  664.000
239.241;   53.600;  394.000;  326.000
239.384;  -34.900; -254.000; -214.000
239.527; -113.900; -424.000; -224.000
239.670; -270.200; -994.000;-1091.000
239.813; -227.700; -696.000; -658.000
239.956;  164.600;  579.000;  473.000
240.099; -214.600; -778.000; -725.000
240.242;  128.800;  428.000;  432.000
240.385;   92.400;  466.000;  450.000
240.528; -118.200; -706.000; -473.000
240.671;   12.900;  189.000;  134.000
240.814;  -83.700; -441.000; -158.000
240.957; -195.000; -767.000; -578.000
241.100; -171.500; -779.000; -755.000
241.243; -290.600;-1234.000; -893.000
241.386; -103.300; -508.000; -379.000
241.529; -171.300; -735.000; -547.000
241.672; -109.200; -566.000; -495.000
241.815; -214.300; -832.000; -808.000
241.958;  -57.800; -125.000; -182.000
242.101; -155.100; -545.000; -390.000
242.244;  -64.500; -270.000; -325.000
242.387;  -60.300; -304.000; -246.000
242.530;  135.700;  470.000;  134.000
242.673;  -70.700; -381.000; -309.000
242.815; -235.800; -925.000; -899.000
242.958; -177.800; -482.000; -381.000
243.101;   54.100;  132.000;  187.000
243.244; -152.000; -564.000; -521.000
243.387;  -90.900; -313.000; -316.000
243.530; -231.200; -657.000; -674.000
243.672;   19.200;   43.000;  -92.000
243.815;  -99.100; -355.000; -283.000
243.958;   13.700;   98.000;  -26.000
244.101;    6.600;   59.000;  -16.000
244.243;   -6.600;  -47.000;  101.000
244.386; -191.300; -761.000; -630.000
244.529;  -21.500; -132.000; -139.000
244.672; -306.600;-1154.000; -951.000
244.814; -214.400; -621.000; -794.000
244.957;  -93.600; -380.000; -304.000
245.100; -133.900; -489.000; -489.000
245.242; -113.700; -387.000; -374.000
245.385;  -22.000;  -59.000;  -39.000
245.528; -227.700; -871.000; -705.000
245.670;  167.400;  612.000;  634.000
245.813; -175.800; -599.000; -547.000
245.956;  -61.300; -324.000; -275.000
246.098; -111.700; -508.000; -650.000
246.241;   22.400;  194.000;   48.000
246.383;  -42.600; -119.000;  -73.000
246.526; -149.900; -454.000; -525.000
246.669; -228.500; -889.000; -780.000
246.811;   32.000;  172.000;   -1.000
246.954; -105.200; -512.000; -426.000
247.096;  -45.900;  -84.000;   -6.000
247.239; -159.200; -482.000; -445.000
247.381; -152.500; -647.000; -488.000
247.524;  168.200;  645.000;  679.000
247.666;  -11.900;   58.000;   11.000
247.809; -244.400; -887.000; -691.000
247.951;    1.500;  -75.000;  138.000
248.094;   44.900;  432.000;  308.000
248.236; -317.700;-1262.000;-1238.000
248.378; -100.500; -356.000;  -81.000
248.521; -117.600; -334.000; -337.000
248.663;  -85.200; -236.000; -267.000
248.806;  -89.700; -300.000; -266.000
248.948; -222.600; -886.000; -763.000
249.090; -119.600; -428.000; -398.000
249.233; -126.500; -344.000; -381.000
249.375; -121.000; -474.000; -451.000
249.518;  -49.900;  -83.000; -133.000
249.660;  -20.800; -103.000;    3.000
249.802; -349.300;-1303.000;-1189.000
249.945; -148.200; -612.000; -540.000
250.087; -216.100; -834.000; -768.000
250.229;  -89.400; -362.000; -480.000
250.371; -162.600; -494.000; -439.000
250.514;  -91.900; -310.000; -244.000
250.656; -130.100;   69.000;  102.000
250.798; -233.900; -849.000; -800.000
250.940;  -99.300; -322.000; -322.000
251.083;  -47.900; -335.000; -111.000
251.225;   78.800;  338.000;  310.000
251.367;  -89.700; -274.000; -373.000
251.509; -109.400; -265.000; -210.000
251.651; -217.100; -731.000; -671.000
251.794;  170.100;  538.000;  632.000
251.936; -212.200; -821.000; -747.000
252.078; -159.200; -540.000; -461.000
252.220; -131.800; -645.000; -477.000
252.362;   76.600;  344.000;  462.000
252.504; -155.400; -677.000; -584.000
252.646; -235.300; -875.000; -722.000
252.788;  -16.100;   14.000; -128.000
252.931;  -95.900; -257.000; -253.000
253.073;  -92.700; -376.000; -317.000
253.215;  -32.100;  141.000;  122.000
253.357;  -15.500;   82.000; -153.000
253.499;  -93.000; -374.000; -234.000
253.641; -177.000; -749.000; -594.000
253.783; -199.100; -609.000; -527.000
253.925; -175.300; -586.000; -591.000
254.067; -216.000; -744.000; -667.000
254.209;  -68.200; -391.000; -259.000
254.351; -311.300; -865.000; -883.000
254.493; -116.000; -441.000; -417.000
254.635; -248.100; -936.000; -818.000
254.777; -203.700; -752.000; -687.000
254.918; -178.000; -512.000; -430.000
255.060; -138.600; -551.000; -395.000
255.202; -104.100; -473.000; -261.000
255.344; -140.100; -658.000; -455.000
255.486; -146.800; -471.000; -406.000
255.628; -190.000; -780.000; -781.000
255.770; -165.500; -676.000; -536.000
255.912;  -91.900; -559.000; -468.000
256.053; -180.500; -730.000; -508.000
256.195;  332.200; 1008.000;  903.000
256.337; -224.400; -861.000; -595.000
256.479;  113.600;  532.000;  416.000
256.621;  -73.300; -394.000; -212.000
256.762; -189.700; -789.000; -742.000
256.904;  100.800;  485.000;  487.000
257.046;  -67.300; -381.000; -271.000
257.188;  -89.400; -351.000; -264.000
257.329; -158.500; -525.000; -464.000
257.471; -231.600; -939.000; -807.000
257.613; -111.400; -584.000; -498.000
257.755; -312.100;-1073.000; -982.000
257.896;  119.600;  286.000;  392.000
258.038; -141.000; -403.000; -352.000
258.180;  -71.700; -354.000; -279.000
258.321; -178.800; -581.000; -457.000
258.463;   11.700;  -71.000;  133.000
258.605; -180.800; -562.000; -570.000
258.746; -180.100; -886.000; -772.000
258.888; -314.800;-1026.000;-1020.000
259.029;   73.700;  121.000;   -8.000
259.171; -159.900; -614.000; -550.000
259.313;   22.700;  -49.000;  -47.000
259.454; -154.500; -536.000; -414.000
259.596; -115.100; -483.000; -390.000
259.737; -119.100; -590.000; -474.000
259.879;  100.700;  217.000;  311.000
260.020;  179.000;  901.000;  636.000
260.162;  -71.000; -146.000; -253.000
260.303; -214.500; -768.000; -687.000
260.445; -164.900; -609.000; -613.000
260.586;   81.500;  392.000;  157.000
260.728;  -64.400; -360.000; -248.000
260.869; -143.400; -350.000; -343.000
261.011;  170.400;  706.000;  537.000
261.152; -129.200; -479.000; -319.000
261.293; -188.000; -576.000; -595.000
261.435;  -26.200; -219.000; -184.000
261.576;  -91.900; -455.000; -325.000
261.718;  107.100;  420.000;  470.000
261.859; -218.700; -940.000; -949.000
262.000; -253.300; -951.000;-1016.000
262.142;   -8.500;  -52.000;  -60.000
262.283; -213.200; -808.000; -691.000
262.424; -179.100; -666.000; -625.000
262.566; -313.000;-1161.000; -983.000
262.707; -206.800; -840.000; -830.000
262.848; -241.400; -769.000; -726.000
262.990;  -89.600; -362.000; -345.000
263.131;  163.100;  650.000;  681.000
263.272;  -23.100;  -61.000;  -41.000
263.413; -194.800; -589.000; -561.000
263.555; -130.500; -669.000; -143.000
263.696; -170.900; -550.000; -641.000
263.837;  -95.100; -449.000; -551.000
263.978;  -20.300;   -5.000;  -77.000
264.119;  -65.100; -283.000; -264.000
264.261; -237.800; -847.000; -630.000
264.402;   22.600;   33.000;   40.000
264.543; -150.000; -509.000; -524.000
264.684;  -38.500;   61.000;  -50.000
264.825; -188.300; -816.000; -538.000
264.966;   27.100;  -84.000;  -67.000
265.107; -230.600; -646.000; -670.000
265.248; -235.400; -825.000; -812.000
265.390;  -15.100;  152.000;   -9.000
265.531;  -10.600; -238.000; -107.000
265.672; -186.700; -557.000; -630.000
265.813;  157.000;  563.000;  439.000
265.954; -276.900; -959.000; -940.000
266.095;  -34.800; -372.000; -322.000
266.236; -182.500; -686.000; -548.000
266.377;  -83.500; -243.000; -297.000
266.518; -136.200; -619.000; -547.000
266.659;   60.400;  170.000;  268.000
266.800;    2.000;   83.000;   85.000
266.941; -143.300; -487.000; -478.000
267.082;   16.400;  354.000;   99.000
267.223;  -77.600; -344.000; -273.000
267.364; -238.500; -892.000; -686.000
267.504;  -29.700;    3.000;  135.000
267.645;   15.500;  160.000;   67.000
267.786;  -56.300; -147.000;  -86.000
267.927; -142.900; -473.000; -379.000
268.068;  -56.500; -186.000;  -61.000
268.209;  -98.500; -175.000; -413.000
268.350;  -99.100; -388.000; -532.000
268.490; -172.200; -648.000; -521.000
268.631;   63.400;  127.000;  225.000
268.772; -236.700; -874.000; -647.000
268.913; -111.700; -328.000; -476.000
269.054;  -59.900; -117.000;   12.000
269.194; -118.900; -418.000; -402.000
269.335; -298.500;-1137.000;-1074.000
269.476;  -20.800;   33.000;  -35.000
269.617; -111.800; -347.000; -392.000
269.757; -203.700; -713.000; -646.000
269.898; -213.500; -856.000; -613.000
270.039; -116.300; -415.000; -405.000
270.180; -275.600; -952.000; -816.000
270.320;  -54.400; -190.000; -250.000
270.461;  -71.000; -277.000; -249.000
270.602;    8.500; -186.000; -156.000
270.742; -240.700; -868.000; -943.000
270.883; -110.000; -442.000; -390.000
271.023; -114.400; -358.000; -357.000
271.164; -118.600; -607.000; -528.000
271.305; -202.200; -666.000; -654.000
271.445; -187.400; -722.000; -683.000
271.586; -119.500; -462.000; -283.000
271.726;  -73.300; -397.000; -322.000
271.867; -186.800; -594.000; -534.000
272.008;  -65.700; -473.000; -285.000
272.148;   81.900;  462.000;  468.000
272.289;  -17.000; -113.000; -181.000
272.429;  -22.200;   19.000;  185.000
272.570; -194.500; -633.000; -737.000
272.710; -221.300; -825.000; -775.000
272.851;  -19.400;  113.000; -130.000
272.991; -348.700;-1173.000;-1077.000
273.131; -149.900; -419.000; -459.000
273.272; -205.700; -683.000; -723.000
273.412;  -24.900; -143.000;  -31.000
273.553; -167.300; -488.000; -507.000
273.693;  267.100;  913.000;  858.000
273.834; -276.500; -894.000; -692.000
273.974; -176.200; -664.000; -615.000
274.114; -206.100; -772.000; -560.000
274.255;   89.700;  414.000;  373.000
274.395;  -63.000; -180.000; -125.000
274.535;   33.200;  199.000;  350.000
274.676;   39.700;  225.000;   94.000
274.816;   13.700;  110.000;   34.000
274.956; -192.400; -624.000; -690.000
275.097; -230.000;-1014.000; -922.000
275.237; -244.400; -913.000; -803.000
275.377; -221.200; -778.000; -689.000
275.517; -315.900; -878.000; -937.000
275.658; -139.000; -590.000; -555.000
275.798; -167.500; -606.000; -413.000
275.938;   28.000;  215.000;  323.000
276.078; -193.800; -626.000; -395.000
276.218;   18.400;   99.000;  104.000
276.359; -264.500;-1026.000;-1024.000
276.499; -155.600; -605.000; -446.000
276.639;  -73.400; -305.000; -151.000
276.779; -110.000; -475.000; -357.000
276.919; -237.800; -783.000; -624.000
277.059;  -38.700; -261.000; -212.000
277.199; -104.800; -357.000; -259.000
277.340;  124.200;  287.000;  175.000
277.480; -223.200; -840.000; -693.000
277.620;   63.300;  192.000;   16.000
277.760; -412.400;-1533.000;-1294.000
277.900;   31.700;  113.000;   33.000
278.040;   -0.800;  137.000;  159.000
278.180;   43.300;  270.000;  170.000
278.320;   -0.100;   21.000;   56.000
278.460; -115.000; -443.000; -469.000
278.600; -154.100; -708.000; -598.000
278.740;  124.000;  448.000;  224.000
278.880; -262.100; -768.000; -791.000
279.020;  -58.900; -194.000; -144.000
279.160; -219.600; -672.000; -595.000
279.300; -242.100; -926.000; -873.000
279.440; -204.100; -709.000; -622.000
279.579; -285.200;-1014.000; -929.000
279.719; -121.600; -410.000; -394.000
279.859;   35.300;   -4.000;   41.000
279.999;  -50.400; -208.000;  101.000
280.139; -109.900; -435.000; -387.000
280.279; -233.200; -708.000; -745.000
280.419;  -30.400; -229.000; -147.000
280.559;  -77.300; -259.000; -180.000
280.698; -165.900; -790.000; -639.000
280.838; -219.200; -778.000; -800.000
280.978; -212.300; -846.000; -790.000
281.118; -236.900; -811.000; -704.000
281.257;   11.700;   24.000;    6.000
281.397; -309.400;-1094.000; -960.000
281.537; -201.200; -599.000; -712.000
281.677;  -57.200; -150.000; -101.000
281.816; -163.900; -700.000; -630.000
281.956;  -74.900; -193.000; -257.000
282.096; -164.600; -539.000; -396.000
282.235; -230.800; -672.000; -638.000
282.375;  -54.600; -243.000;  -98.000
282.515; -222.800; -715.000; -707.000
282.654;   12.000;   29.000;  106.000
282.794;   47.700;  388.000;  244.000
282.934; -116.200; -530.000; -491.000
283.073; -279.000;-1030.000; -857.000
283.213; -149.500; -460.000; -467.000
283.353; -131.100; -408.000; -349.000
283.492;  -50.200; -264.000; -296.000
283.632; -102.800; -254.000; -168.000
283.771; -192.300; -859.000; -730.000
283.911; -131.800; -369.000; -260.000
284.050; -237.800; -794.000; -748.000
284.190; -298.800;-1229.000;-1096.000
284.329; -292.300;-1055.000; -964.000
284.469; -201.500; -516.000; -591.000
284.608; -127.900; -559.000; -598.000
284.748; -168.700; -614.000; -570.000
284.887;   -3.700;  -87.000;  -20.000
285.027; -268.300; -844.000; -892.000
285.166;  -52.200; -192.000; -249.000
285.306;  -52.300; -116.000;  -33.000
285.445; -111.100; -229.000; -343.000
285.584; -149.600; -630.000; -494.000
285.724;  -85.800; -282.000; -322.000
285.863; -217.900; -857.000; -507.000
286.002;  -98.200; -366.000; -276.000
286.142; -229.400; -715.000; -622.000
286.281; -159.400; -525.000; -493.000
286.420; -161.700; -554.000; -417.000
286.560;  219.600;  653.000;  623.000
286.699; -279.100; -958.000; -912.000
286.838; -160.000; -590.000; -591.000
286.978; -197.800; -533.000; -537.000
287.117; -271.400;-1085.000; -950.000
287.256;  -76.100; -228.000; -211.000
287.395; -140.100; -197.000; -378.000
287.535; -107.700; -370.000; -298.000
287.674; -145.500; -509.000; -484.000
287.813;  131.800;  661.000;  533.000
287.952; -259.400;-1010.000; -871.000
288.091; -312.000;-1049.000; -915.000
288.231;    5.900;   13.000;   15.000
288.370; -337.800;-1217.000;-1200.000
288.509; -198.200; -728.000; -645.000
288.648; -222.000; -770.000; -548.000
288.787;  -71.500; -243.000;  -87.000
288.926; -111.400; -454.000; -475.000
289.065;  212.600;  859.000;  672.000
289.204; -108.400; -377.000; -217.000
289.344; -205.300; -791.000; -690.000
289.483;   11.500;  416.000;  304.000
289.622;  -42.600; -291.000; -149.000
289.761;  -20.500; -309.000; -166.000
289.900; -221.900; -785.000; -626.000
290.039;  -44.400;  -12.000;  -95.000
290.178;  -85.500; -274.000; -180.000
290.317; -168.300; -618.000; -479.000
290.456; -139.300; -463.000; -451.000
290.595; -268.500; -961.000; -833.000
290.734; -265.800; -904.000; -891.000
290.873; -136.700; -456.000; -420.000
291.011; -245.300; -833.000; -843.000
291.150; -240.700; -770.000; -682.000
291.289;  -41.100; -343.000; -110.000
291.428; -190.400; -599.000; -480.000
291.567; -112.600; -370.000; -442.000
291.706;    9.500;  109.000;  154.000
291.845; -182.500; -597.000; -505.000
291.984; -334.600;-1234.000;-1061.000
292.122;  180.600;  602.000;  582.000
292.261;  110.100;  620.000;  463.000
292.400;    5.700; -144.000;  211.000
292.539; -251.100; -959.000; -813.000
292.678;  -68.600; -325.000; -300.000
292.816; -317.400;-1136.000; -965.000
292.955; -194.200; -844.000; -684.000
293.094;  -47.600; -173.000; -337.000
293.233; -100.000; -556.000; -400.000
293.371;  -82.600; -225.000;  -84.000
293.510; -196.300; -866.000; -780.000
293.649; -300.600; -959.000; -924.000
293.787; -287.300;-1083.000;-1012.000
293.926;  -34.800; -113.000;  -32.000
294.065; -109.200; -379.000; -290.000
294.203;   88.100;  298.000;  406.000
294.342;   -3.000;   74.000;  156.000
294.481;12750.900;51180.000; -836.000
294.619;  -36.500; -425.000; -582.000
294.758; -341.400;-1230.000;-1137.000
294.896;    5.500; -125.000;    5.000
295.035; -327.000;-1040.000;-1006.000
295.174; -267.300;-1082.000; -954.000
295.312;  -91.200; -323.000; -203.000
295.451; -121.500; -307.000; -428.000
295.589; -147.300; -389.000; -518.000
295.728;    4.500; -292.000; -165.000
295.866;  -55.500;  -36.000;  -51.000
296.005; -177.700; -584.000; -341.000
296.143; -165.800; -558.000; -596.000
296.282; -207.200; -957.000; -881.000
296.420; -164.200; -657.000; -557.000
296.559; -193.500; -892.000; -633.000
296.697; -201.200; -847.000; -665.000
296.835; -299.300;-1141.000;-1002.000
296.974;   -2.900;  -23.000;   39.000
297.112; -140.600; -443.000; -504.000
297.251; -243.800; -815.000; -755.000
297.389; -150.200; -576.000; -438.000
297.527;  -81.700; -145.000;  -83.000
297.666; -159.800; -486.000; -438.000
297.804; -109.400; -404.000; -264.000
297.942;  -26.800; -136.000; -161.000
298.081;  -42.900; -183.000;   63.000
298.219;  -40.500;  -17.000;  -19.000
298.357;  -85.100; -144.000;  -71.000
298.495; -235.500; -810.000; -812.000
298.634;   22.400;  245.000;  219.000
298.772;  -91.900; -220.000; -338.000
298.910; -142.400; -309.000; -182.000
299.048;  -31.600; -130.000; -153.000
299.187;  -95.700; -350.000; -250.000
299.325;   13.500;   52.000;  122.000
299.463; -153.100; -389.000; -299.000
299.601; -100.700; -327.000; -271.000
299.739; -265.000; -908.000; -883.000
299.877; -190.100; -791.000; -703.000
300.016; -325.400;-1095.000; -935.000
300.154;  -17.800;  -19.000; -161.000
300.292; -137.100; -428.000; -348.000
300.430;  -68.500; -408.000; -291.000
300.568; -266.700; -940.000; -874.000
300.706; -129.400; -366.000; -469.000
300.844; -304.400;-1108.000; -979.000
300.982;   94.900;  246.000;  282.000
301.120; -283.100; -965.000; -866.000
301.258; -229.900; -812.000; -705.000
301.396;    9.700;  104.000;  -41.000
301.534;  -90.800; -218.000; -293.000
301.672; -192.700; -664.000; -521.000
301.810; -178.600; -613.000; -545.000
301.948;   40.300;   53.000;  149.000
302.086;  -41.000; -250.000;  -32.000
302.224; -199.200; -610.000; -585.000
302.362; -215.700; -558.000; -622.000
302.500; -265.900; -923.000; -893.000
302.638;   37.600;  128.000;  245.000
302.776;  -85.500; -352.000; -408.000
302.913;   37.400;  447.000;  236.000
303.051;  -65.100;  -86.000;  -23.000
303.189;   39.200;   90.000;  118.000
303.327;  -95.600; -341.000; -256.000
303.465; -183.100; -832.000; -588.000
303.603; -203.300; -805.000; -604.000
303.740;  103.300;  417.000;  241.000
303.878; -218.700; -800.000; -759.000
304.016; -233.200; -915.000; -790.000
304.154; -336.500;-1123.000;-1152.000
304.291; -141.500; -505.000; -554.000
304.429;   -3.800;  102.000;   74.000
304.567; -292.100; -908.000; -893.000
304.705; -164.000; -408.000; -515.000
304.842; -171.300; -616.000; -540.000
304.980;   -0.700;  215.000;   35.000
305.118;  -64.700; -367.000; -365.000
305.255; -273.000; -945.000; -927.000
305.393;   87.600;  178.000;  239.000
305.531; -309.500;-1173.000; -956.000
305.668; -175.200; -663.000; -582.000
305.806; -142.600; -358.000; -439.000
305.943; -176.500; -629.000; -637.000
306.081;  -85.700; -378.000; -267.000
306.219; -223.100; -863.000; -748.000
306.356;  -15.000;  158.000;   27.000
306.494;  199.200;  981.000;  761.000
306.631;  -19.100;  -11.000;  -55.000
306.769; -130.700; -613.000; -485.000
306.906; -161.800; -284.000; -258.000
307.044; -135.300; -473.000; -488.000
307.181; -129.800; -410.000; -332.000
307.319;   11.000;  112.000;   87.000
307.456; -360.000;-1191.000;-1153.000
307.594; -245.600; -980.000; -727.000
307.731;  -81.900; -371.000; -164.000
307.868;  -37.300;  -15.000;   20.000
308.006; -280.400; -961.000; -847.000
308.143; -154.100; -618.000; -330.000
308.281;  -72.100;  -37.000; -254.000
308.418; -189.900; -748.000; -640.000
308.555; -191.000; -400.000; -250.000
308.693; -163.000; -577.000; -573.000
308.830; -215.400; -712.000; -657.000
308.967;  -54.800; -215.000;  -95.000
309.105; -130.500; -507.000; -396.000
309.242; -125.900; -468.000; -367.000
309.379; -202.900; -577.000; -655.000
309.517; -278.500; -936.000; -948.000
309.654; -268.400; -910.000; -734.000
309.791; -146.500; -662.000; -580.000
309.928; -287.600; -977.000; -914.000
310.065;  161.000;  819.000;  697.000
310.203; -267.100; -825.000; -850.000
310.340; -148.600; -465.000; -321.000
310.477; -171.100; -412.000; -516.000
310.614; -120.400; -383.000; -473.000
310.751; -148.500; -427.000; -518.000
310.889;  -40.100;    1.000;   11.000
311.026; -334.200;-1161.000; -939.000
311.163; -101.000; -386.000; -380.000
311.300; -182.200; -512.000; -479.000
311.437; -182.700; -658.000; -619.000
311.574; -334.700;-1226.000; -985.000
311.711; -114.100; -595.000; -433.000
311.848; -106.300; -380.000; -388.000
311.985;   11.200;  270.000;   93.000
312.122; -258.700; -932.000; -762.000
312.259; -271.900; -941.000; -994.000
312.396; -209.900; -508.000; -551.000
312.533; -214.800; -812.000; -790.000
312.670; -296.100;-1070.000; -898.000
312.807; -117.400; -352.000; -367.000
312.944; -196.300; -513.000; -611.000
313.081;  -98.000; -150.000; -415.000
313.218; -286.400;-1111.000; -867.000
313.355; -148.200; -531.000; -449.000
313.492; -107.700; -455.000; -292.000
313.629;  193.100;  815.000;  735.000
313.766; -366.500;-1176.000;-1008.000
313.902;  -50.000; -186.000;   21.000
314.039; -121.600; -372.000; -289.000
314.176;   26.100;  286.000;  192.000
314.313; -180.700; -569.000; -473.000
314.450; -203.500; -788.000; -684.000
314.587; -177.900; -468.000; -480.000
314.723;   -4.300;  -78.000;  130.000
314.860;   42.000;  318.000;  332.000
314.997;   35.700;  223.000;  142.000
315.134; -153.000; -385.000; -368.000
315.270; -153.000; -480.000; -496.000
315.407; -327.100;-1094.000; -967.000
315.544; -151.100; -657.000; -538.000
315.681; -226.200; -681.000; -565.000
315.817;  -35.700; -133.000; -176.000
315.954; -176.500; -613.000; -392.000
316.091; -331.500;-1045.000;-1023.000
316.227;  -88.800;  -71.000; -179.000
316.364;   15.300;   23.000;    6.000
316.500;  -96.900; -113.000; -300.000
316.637;  -95.300; -181.000; -302.000
316.774; -162.100; -625.000; -358.000
316.910; -168.100; -598.000; -629.000
317.047; -151.500; -487.000; -351.000
317.183; -137.000; -435.000; -566.000
317.320; -140.900; -367.000; -321.000
317.456; -216.100; -733.000; -805.000
317.593; -207.600; -598.000; -641.000
317.729;   36.600;  168.000;  -67.000
317.866; -417.300;-1434.000;-1285.000
318.002; -163.400; -708.000; -948.000
318.139; -274.900; -883.000; -867.000
318.275; -235.200;-1003.000; -738.000
318.412; -188.600; -517.000; -336.000
318.548; -215.500; -751.000; -720.000
318.685; -293.200; -985.000; -888.000
318.821; -200.400; -762.000; -735.000
318.957;  -40.200;   34.000;  -23.000
319.094;   74.100;  297.000;  154.000
319.230; -242.100; -756.000; -742.000
319.367; -137.000; -471.000; -520.000
319.503; -153.400; -538.000; -436.000
319.639; -253.300; -877.000; -793.000
319.775; -217.400; -750.000; -685.000
319.912; -148.200; -424.000; -519.000
320.048; -350.800;-1184.000;-1184.000
320.184;   25.700;   59.000;   70.000
320.321; -145.400; -497.000; -467.000
320.457;   95.200;  475.000;  662.000
320.593; -130.400; -375.000; -382.000
320.729; -240.300; -732.000; -734.000
320.866; -205.800; -577.000; -635.000
321.002; -234.000; -759.000; -809.000
321.138;  -97.700; -135.000; -211.000
321.274;  -26.300; -148.000; -115.000
321.410; -166.400; -585.000; -353.000
321.546; -284.400;-1011.000; -911.000
321.683;   33.000;  400.000;  185.000
321.819;  -21.400;  -48.000; -117.000
321.955; -261.300; -743.000; -722.000
322.091; -145.900; -585.000; -540.000
322.227;  -94.300; -382.000; -202.000
322.363;  -89.600; -320.000; -215.000
322.499; -105.100; -343.000; -331.000
322.635;  156.000;  636.000;  443.000
322.771;  -64.400; -139.000;   12.000
322.907;   68.000;  129.000;  327.000
323.043; -105.500; -115.000; -206.000
323.179; -130.500; -394.000; -363.000
323.315; -160.600; -401.000; -371.000
323.451;  -94.600; -328.000; -236.000
323.587;  -82.700;  -60.000;  -77.000
323.723; -168.300; -682.000; -601.000
323.859;  -63.800; -258.000;  -76.000
323.995; -127.800; -467.000; -409.000
324.131; -281.400; -967.000; -892.000
324.267;  -56.300; -254.000; -276.000
324.402; -287.000; -960.000; -983.000
324.538;  -70.300; -279.000; -104.000
324.674;    6.300;  164.000;   77.000
324.810;   16.000;  226.000;  308.000
324.946; -115.700; -810.000; -658.000
325.082; -163.700; -568.000; -475.000
325.217;  -44.900;  -62.000;   16.000
325.353; -184.300; -764.000; -659.000
325.489; -191.600; -540.000; -506.000
325.625; -162.900; -579.000; -525.000
325.760;   73.400;  517.000;  376.000
325.896; -166.100; -515.000; -702.000
326.032;  -89.300; -403.000; -352.000
326.168; -119.700; -462.000; -369.000
326.303; -137.600; -352.000; -461.000
326.439;  -80.700; -336.000; -276.000
326.575;  -20.000; -190.000;  -29.000
326.710;  -34.900; -156.000;  -30.000
326.846;   -0.800;  146.000;  103.000
326.982; -179.700; -530.000; -548.000
327.117; -147.300; -481.000; -442.000
327.253; -214.900; -745.000; -742.000
327.388; -393.600;-1137.000;-1153.000
327.524; -194.300; -811.000; -578.000
327.659;  -22.600;  -58.000;  -22.000
327.795;  -12.600;   69.000;   45.000
327.931; -182.000; -723.000; -499.000
328.066;  -92.600; -417.000; -276.000
328.202;  -28.100;   12.000; -129.000
328.337;  200.000;  957.000;  713.000
328.473;  -28.100;  -12.000;  -74.000
328.608;  -66.600; -256.000; -267.000
328.743; -249.300; -799.000; -664.000
328.879;   55.300;  214.000;  114.000
329.014; -134.200; -102.000; -122.000
329.150; -188.500; -358.000; -483.000
329.285; -182.900; -465.000; -466.000
329.421; -105.800; -548.000; -246.000
329.556;  -66.500;  -36.000;   85.000
329.691; -143.900; -633.000; -615.000
329.827; -197.500; -626.000; -480.000
329.962;  -86.900;  131.000; -301.000
330.097; -215.400; -673.000; -585.000
330.233; -116.300; -410.000; -223.000
330.368; -242.300; -839.000; -628.000
330.503;  -16.200;    3.000;   98.000
330.638;  -53.300;  -93.000; -125.000
330.774; -178.200; -609.000; -530.000
330.909;  -94.100; -434.000; -244.000
331.044; -192.800; -714.000; -708.000
331.179; -323.900;-1217.000;-1109.000
331.315;   44.200;   77.000;   20.000
331.450;  -14.100;  157.000;  285.000
331.585; -200.500; -805.000; -706.000
331.720; -191.700; -510.000; -460.000
331.855;  -25.800;  -35.000; -102.000
331.990;  -18.200;   62.000;  138.000
332.126;  -17.000; -110.000;   71.000
332.261; -127.000; -379.000; -265.000
332.396;  -72.400; -135.000; -242.000
332.531; -323.000;-1074.000;-1031.000
332.666; -139.600; -519.000; -363.000
332.801; -254.300; -726.000; -807.000
332.936;  -31.000; -192.000; -122.000
333.071; -298.900; -870.000; -817.000
333.206;   39.400;  307.000;  379.000
333.341;   59.600;  344.000;  418.000
333.476; -184.400; -627.000; -623.000
333.611;  -85.400; -251.000; -173.000
333.746; -110.700; -381.000; -464.000
333.881; -257.900; -973.000; -935.000
334.016; -238.300; -936.000; -917.000
334.151; -281.700; -746.000; -702.000
334.286;   10.300;  152.000;  186.000
334.421;  -63.100; -125.000; -178.000
334.556; -188.400; -611.000; -567.000
334.690; -224.700; -631.000; -577.000
334.825;   86.100;  381.000;   83.000
334.960; -157.900; -285.000; -413.000
335.095;  -30.500;  135.000;  -91.000
335.230; -223.200; -722.000; -738.000
335.365; -283.600;-1084.000; -990.000
335.499; -319.800;-1108.000;-1037.000
335.634;   -0.200;    9.000;  534.000
335.769; -235.100; -755.000; -720.000
335.904; -192.400; -603.000; -561.000
336.038; -210.100; -735.000; -657.000
336.173; -343.900;-1206.000;-1194.000
336.308; -115.200; -116.000; -189.000
336.443; -181.100; -544.000; -634.000
336.577; -271.000; -936.000; -787.000
336.712;  -31.900;   -4.000;  -12.000
336.847; -212.900; -724.000; -607.000
336.981;  -91.700; -272.000; -208.000
337.116;  105.400;  615.000;  501.000
337.250; -145.000; -434.000; -421.000
337.385; -107.000; -297.000; -208.000
337.520; -190.900; -632.000; -603.000
337.654;  -90.000; -215.000; -126.000
337.789; -278.200; -989.000; -933.000
337.923;  -72.700; -104.000; -205.000
338.058; -220.400; -673.000; -738.000
338.192; -160.700; -611.000; -488.000
338.327;  -51.700;  -18.000; -155.000
338.461; -165.500; -299.000; -469.000
338.596; -195.400; -780.000; -638.000
338.730; -238.900; -767.000; -803.000
338.865;  -49.800;  -46.000; -140.000
338.999; -259.500; -846.000; -702.000
339.134; -172.000; -634.000; -536.000
339.268; -210.800; -741.000; -603.000
339.403; -211.200; -740.000; -775.000
339.537; -257.700; -894.000; -820.000
339.671; -244.700; -829.000; -813.000
339.806; -213.600; -556.000; -512.000
339.940;  -65.900; -261.000; -235.000
340.074; -220.100; -685.000; -510.000
340.209;  -81.900; -351.000; -230.000
340.343; -221.700; -517.000; -573.000
340.477;  273.700;  998.000; 1036.000
340.612; -283.200;-1033.000; -900.000
340.746;  -91.200; -199.000; -243.000
340.880; -270.200; -924.000; -785.000
341.014;  -14.400;  -45.000; -154.000
341.149; -236.300; -756.000; -718.000
341.283; -201.800; -839.000; -754.000
341.417; -305.300;-1124.000; -938.000
341.551; -231.100; -768.000; -708.000
341.685; -206.000; -633.000; -611.000
341.820; -181.500; -562.000; -493.000
341.954; -151.300; -218.000; -349.000
342.088; -281.300;-1102.000;-1019.000
342.222;   78.400;  565.000;  618.000
342.356; -147.900; -395.000; -335.000
342.490; -250.900; -880.000; -841.000
342.624;  -79.500; -339.000; -242.000
342.758; -110.600; -364.000; -312.000
342.892; -162.200; -710.000; -585.000
343.026;  -85.200;  -58.000; -116.000
343.160; -110.100; -426.000; -376.000
343.294; -175.600; -474.000; -337.000
343.428; -143.000; -488.000; -448.000
343.562;  -55.500; -172.000;  -23.000
343.696; -107.100; -385.000; -314.000
343.830; -129.500; -362.000; -356.000
343.964;  -65.600; -231.000; -168.000
344.098;  -27.100;  199.000;   70.000
344.232;  -81.400; -266.000; -127.000
344.366; -173.500; -567.000; -453.000
344.500; -177.600; -665.000; -744.000
344.634;  -87.200; -324.000; -164.000
344.768; -161.200; -531.000; -341.000
344.902;   17.600;  278.000;  256.000
345.035; -151.100; -556.000; -496.000
345.169; -267.900; -933.000; -656.000
345.303; -167.400; -308.000; -482.000
345.437; -243.400; -826.000; -717.000
345.571; -179.700; -675.000; -594.000
345.704; -132.100; -309.000; -532.000
345.838; -112.100; -331.000; -284.000
345.972; -155.100; -543.000; -495.000
346.106;  -38.500; -179.000; -190.000
346.239; -110.000; -312.000; -243.000
346.373; -116.200; -343.000; -302.000
346.507; -300.800; -950.000; -962.000
346.640;  -46.900;  -30.000;   13.000
346.774; -237.700; -650.000; -797.000
346.908;  -52.900; -138.000;  -11.000
347.041; -218.200; -646.000; -593.000
347.175;   20.900;  259.000;   27.000
347.309; -224.300; -698.000; -628.000
347.442; -244.300; -883.000; -732.000
347.576;  165.000;  670.000;  668.000
347.709;  -72.700; -123.000;  -52.000
347.843; -277.200; -933.000; -825.000
347.976;   49.300;  235.000;  294.000
348.110; -367.900;-1268.000;-1186.000
348.243; -223.200; -679.000; -772.000
348.377;  -24.300;  -26.000;   60.000
348.510;   76.200;  403.000;  540.000
348.644; -108.300;  -37.000; -159.000
348.777;   -2.500;  180.000;  191.000
348.911; -100.000; -142.000; -112.000
349.044;   82.000;  471.000;  448.000
349.178; -324.500;-1069.000;-1006.000
349.311;   30.100;  141.000;  255.000
349.444; -293.700; -927.000; -813.000
349.578;  -73.700; -347.000; -200.000
349.711; -280.300; -959.000; -862.000
349.845; -191.900; -661.000; -591.000
349.978; -335.900;-1224.000;-1137.000
350.111; -180.200; -546.000; -612.000
350.244; -187.200; -596.000; -700.000
350.378; -134.900; -392.000; -393.000
350.511; -134.500; -393.000; -426.000
350.644; -243.400; -808.000; -806.000
350.778;  -47.700;  168.000;  104.000
350.911;   18.100;  134.000;  140.000
351.044; -200.400; -685.000; -615.000
351.177;  -71.000; -321.000; -281.000
351.310;  -64.000;    3.000; -131.000
351.444; -251.500; -888.000; -788.000
351.577;  -22.700;  140.000;   90.000
351.710;  175.800;  593.000;  417.000
351.843;  -95.200; -165.000;  -77.000
351.976;   -0.300;  149.000;  -79.000
352.109; -216.800; -621.000; -612.000
352.242; -133.500; -464.000; -419.000
352.376; -199.300; -580.000; -636.000
352.509; -141.200; -437.000; -356.000
352.642; -306.800; -654.000; -604.000
352.775;  -56.200; -141.000;  -98.000
352.908; -293.600; -933.000; -904.000
353.041; -247.300; -814.000; -824.000
353.174; -155.500; -551.000; -424.000
353.307; -223.800; -753.000; -764.000
353.440;   88.700;  541.000;  453.000
353.573; -290.200; -957.000;-1008.000
353.706; -232.400; -384.000; -558.000
353.839;  -89.600; -264.000; -220.000
353.971; -219.600; -657.000; -512.000
354.104; -243.100; -896.000; -835.000
354.237; -226.900; -627.000; -662.000
354.370; -225.500; -846.000; -879.000
354.503; -398.300;-1231.000;-1308.000
354.636; -118.800; -529.000; -348.000
354.769; -298.900; -937.000; -860.000
354.902;  -96.400; -230.000; -139.000
355.034;  -72.400; -164.000; -220.000
355.167;  -65.500; -262.000; -162.000
355.300; -313.000;-1061.000; -880.000
355.433;  -26.400;  -71.000;  -14.000
355.565; -159.900; -402.000; -384.000
355.698;  -99.500; -356.000; -296.000
355.831; -285.800; -882.000; -801.000
355.964;  -52.700; -285.000; -170.000
356.096; -279.300; -856.000; -843.000
356.229; -197.200; -523.000; -530.000
356.362; -132.800; -373.000; -266.000
356.494;  -87.500; -229.000; -162.000
356.627;   55.400;  269.000;  377.000
356.760;   11.700;  120.000;   53.000
356.892; -199.800; -286.000; -601.000
357.025;   78.500;  403.000;  389.000
357.157;  -58.500; -167.000; -179.000
357.290; -251.500; -856.000; -713.000
357.423; -224.800; -667.000; -556.000
357.555;  -85.700; -217.000; -228.000
357.688; -188.200; -483.000; -364.000
357.820; -258.100; -870.000; -877.000
357.953; -195.800; -563.000; -589.000
358.085; -195.600; -632.000; -612.000
358.218; -319.000;-1131.000; -932.000
358.350;  -41.800;  -58.000;  312.000
358.483; -356.600;-1300.000;-1187.000
358.615; -329.700;-1182.000;-1078.000
358.747; -384.600;-1187.000;-1058.000
358.880; -241.200; -810.000; -744.000
359.012; -136.800; -376.000; -202.000
359.145; -149.400; -480.000; -511.000
359.277; -304.300; -962.000; -913.000
359.409;  119.600;  536.000;  231.000
359.542; -246.200; -738.000; -688.000
359.674;   -3.500;   46.000;   13.000
359.806; -168.700; -565.000; -438.000
359.939; -140.500; -617.000; -516.000
360.071; -229.200; -583.000; -579.000
360.203; -109.700; -411.000; -364.000
360.335;  -17.900;  164.000;  -16.000
360.468;  -82.600; -249.000; -307.000
360.600; -179.900; -547.000; -454.000
360.732; -191.300; -546.000; -423.000
360.864; -352.500;-1216.000;-1044.000
360.996; -146.400; -516.000; -554.000
361.129; -171.500; -389.000; -598.000
361.261;  -37.800;  110.000; -113.000
361.393; -108.400; -252.000; -214.000
361.525;   -1.500;   94.000;  244.000
361.657; -255.600; -821.000; -703.000
361.789;  -44.600; -139.000; -155.000
361.921; -211.700; -642.000; -593.000
362.053;   65.000;  524.000;  541.000
362.185;    6.300;  288.000;   72.000
362.318; -230.400; -709.000; -705.000
362.450;   58.800;  294.000;  444.000
362.582; -268.000; -913.000; -870.000
362.714;  -88.900; -353.000; -332.000
362.846; -162.900; -606.000; -490.000
362.978; -324.900; -941.000; -811.000
363.109; -150.200; -161.000; -260.000
363.241; -240.200; -739.000; -749.000
363.373; -183.200; -649.000; -564.000
363.505;  -51.400; -186.000;  -91.000
363.637; -198.600; -787.000; -601.000
363.769; -363.300;-1067.000;-1080.000
363.901; -178.100; -596.000; -654.000
364.033; -338.600;-1103.000;-1062.000
364.165;  -85.700; -283.000; -283.000
364.296; -128.000; -316.000; -177.000
364.428; -376.800;-1344.000;-1220.000
364.560; -225.400; -679.000; -661.000
364.692; -188.000; -738.000; -835.000
364.824; -178.200; -588.000; -456.000
364.955; -134.000; -402.000; -564.000
365.087; -314.700;-1097.000; -852.000
365.219; -241.900; -686.000; -816.000
365.351; -197.200; -526.000; -572.000
365.482;   44.500;  300.000;  240.000
365.614; -112.500; -402.000; -314.000
365.746; -242.900; -729.000; -752.000
365.877; -221.300; -706.000; -672.000
366.009;  -60.500;  -35.000;  -62.000
366.141; -350.500;-1249.000;-1134.000
366.272; -235.100; -803.000; -719.000
366.404; -282.000;-1005.000; -874.000
366.535;  -48.400; -139.000;  -12.000
366.667; -247.100; -644.000; -649.000
366.799;   60.900;  353.000;  203.000
366.930; -267.600; -862.000; -996.000
367.062; -198.800; -639.000; -613.000
367.193; -248.300; -872.000; -842.000
367.325; -176.400; -580.000; -684.000
367.456;  -94.900; -246.000;   31.000
367.588; -129.600; -371.000; -318.000
367.719;  -90.000;  -44.000;  -45.000
367.851; -122.200; -222.000; -241.000
367.982; -278.900; -875.000; -732.000
368.113; -101.100; -475.000; -358.000
368.245; -280.000; -960.000; -841.000
368.376;  -69.200; -254.000; -302.000
368.508; -136.400; -188.000; -263.000
368.639; -317.700;-1166.000;-1034.000
368.770; -226.400; -670.000; -589.000
368.902; -267.400; -836.000; -926.000
369.033; -291.400; -906.000; -855.000
369.164; -213.600; -720.000; -653.000
369.296; -250.300; -452.000; -601.000
369.427;  -86.500; -209.000; -144.000
369.558; -173.600; -593.000; -377.000
369.689; -206.700; -721.000; -569.000
369.821; -281.800; -951.000; -845.000
369.952;  -34.500;   42.000; -108.000
370.083; -111.800; -229.000; -108.000
370.214; -218.800; -735.000; -650.000
370.345;  -36.100;   65.000;   81.000
370.477; -233.700; -810.000; -790.000
370.608; -128.400; -328.000; -264.000
370.739; -343.700;-1233.000;-1292.000
370.870; -274.900;-1102.000; -923.000
371.001; -133.700; -378.000; -467.000
371.132; -252.000; -754.000; -735.000
371.263;  -61.100;  -42.000; -148.000
371.394; -290.500; -841.000; -748.000
371.525;   67.300;  345.000;  225.000
371.657; -281.400; -808.000; -670.000
371.788;   11.400;  103.000;  199.000
371.919; -155.100; -384.000; -304.000
372.050;  -59.800;  -91.000; -156.000
372.181;  -99.500; -188.000; -294.000
372.311;   -0.100;   42.000; -127.000
372.442; -155.400; -457.000; -451.000
372.573;  -99.600; -444.000; -340.000
372.704; -309.500;-1008.000; -980.000
372.835; -107.900; -228.000; -289.000
372.966; -232.700; -646.000; -554.000
373.097; -226.200; -575.000; -711.000
373.228; -213.800; -717.000; -542.000
373.359; -236.100; -824.000; -536.000
373.490; -266.600; -881.000; -727.000
373.620; -253.400;-1001.000; -803.000
373.751; -178.800; -332.000; -396.000
373.882; -166.900; -663.000; -733.000
374.013; -124.900; -449.000; -262.000
374.143; -203.200; -581.000; -659.000
374.274; -306.800; -987.000; -908.000
374.405;  -97.300; -388.000; -276.000
374.536; -176.500; -526.000; -387.000
374.666; -233.700; -759.000; -807.000
374.797; -278.600; -817.000; -868.000
374.928; -182.000; -710.000; -560.000
375.058; -193.300; -535.000; -500.000
375.189;  -58.400;  -59.000;  -93.000
375.320; -331.600; -928.000;-1034.000
375.450; -174.300; -625.000; -616.000
375.581; -163.200; -526.000; -436.000
375.712;  -87.500; -574.000; -250.000
375.842; -185.100; -438.000; -415.000
375.973; -174.700; -554.000; -513.000
376.103; -211.700; -665.000; -648.000
376.234; -175.200; -531.000; -552.000
376.364; -314.000; -944.000; -867.000
376.495;  194.000;  925.000;  529.000
376.625; -204.700; -472.000; -485.000
376.756; -218.100; -709.000; -678.000
376.886; -354.100;-1178.000;-1026.000
377.017; -308.800;-1048.000;-1061.000
377.147; -261.500; -786.000; -782.000
377.278;   27.600;  174.000;  228.000
377.408; -283.500; -801.000; -815.000
377.538; -216.900; -707.000; -693.000
377.669; -204.700; -537.000; -613.000
377.799; -215.700; -645.000; -635.000
377.929; -167.600; -610.000; -428.000
378.060; -269.800; -781.000; -847.000
378.190; -236.200; -726.000; -531.000
378.320; -151.800; -401.000; -406.000
378.451;  -50.800; -131.000;  -22.000
378.581;  -49.100;  -67.000; -110.000
378.711;  182.800; 1035.000;  866.000
378.841; -174.500; -533.000; -675.000
378.972; -265.600; -871.000; -751.000
379.102; -189.700; -652.000; -579.000
379.232; -139.300; -126.000;  -73.000
379.362; -288.500;-1001.000; -885.000
379.492; -204.500; -373.000; -424.000
379.623;    1.300;    0.000;  111.000
379.753; -321.500;-1107.000; -974.000
379.883;   -1.900;   59.000;  156.000
380.013; -353.600;-1081.000;-1017.000
380.143; -356.300;-1097.000;-1056.000
380.273; -296.500; -985.000; -861.000
380.403; -104.400; -344.000; -257.000
380.533; -249.900; -651.000; -664.000
380.663;   21.800;  173.000;  128.000
380.793; -332.500;-1027.000;-1074.000
380.923; -103.700; -103.000;  -34.000
381.053; -209.900; -613.000; -623.000
381.183;  -61.600; -106.000; -248.000
381.313; -193.800; -656.000; -470.000
381.443; -169.300; -692.000; -473.000
381.573; -155.800; -402.000; -409.000
381.703; -357.900;-1249.000;-1095.000
381.833; -419.900;-1454.000;-1336.000
381.963;  -13.700; -134.000;  -87.000
382.093; -304.000; -925.000; -909.000
382.223; -190.700; -713.000; -602.000
382.353; -253.000; -801.000; -608.000
382.482; -316.600;-1091.000; -964.000
382.612; -250.000; -872.000; -644.000
382.742; -175.200; -695.000; -622.000
382.872; -190.700; -565.000; -551.000
383.002;   -4.000;  347.000; -132.000
383.131; -139.800; -226.000; -160.000
383.261; -237.200; -706.000; -768.000
383.391; -176.000; -552.000; -377.000
383.521;   93.700;  451.000;  263.000
383.650; -312.500; -947.000; -904.000
383.780; -185.600; -783.000; -656.000
383.910;  154.500;  880.000;  802.000
384.039; -267.500; -794.000; -656.000
384.169; -378.500;-1205.000;-1017.000
384.299; -206.200; -650.000; -662.000
384.428; -238.600; -764.000; -680.000
384.558; -114.500; -308.000; -275.000
384.687; -155.600; -414.000; -334.000
384.817;  -48.900;   75.000;   -2.000
384.947; -108.700; -234.000; -141.000
385.076;  242.200;  982.000;  912.000
385.206;   60.100;  369.000;  480.000
385.335; -147.800; -549.000; -417.000
385.465; -261.100; -655.000; -663.000
385.594;  -37.200;  -53.000;  -44.000
385.724; -269.500; -868.000; -838.000
385.853;  -95.000; -296.000; -270.000
385.982; -262.000; -743.000; -787.000
386.112; -279.900;-1052.000; -871.000
386.241; -139.600; -307.000; -312.000
386.371;  -72.700; -174.000;  -87.000
386.500; -258.700; -825.000; -789.000
386.629; -234.600; -874.000; -817.000
386.759;  -44.200;  -43.000;   68.000
386.888;  -35.400; -170.000; -250.000
387.017; -212.700; -648.000; -620.000
387.147; -237.700; -771.000; -798.000
387.276; -177.300; -410.000; -397.000
387.405; -129.600; -398.000; -342.000
387.535; -190.800; -452.000; -361.000
387.664; -204.100; -692.000; -620.000
387.793; -114.600; -198.000; -113.000
387.922;    1.400;  255.000;  200.000
388.052; -178.000; -576.000; -423.000
388.181; -124.300; -342.000; -472.000
388.310; -272.100; -889.000; -710.000
388.439; -250.700; -749.000; -742.000
388.568;  -11.500;  365.000;  244.000
388.697; -229.900; -756.000; -653.000
388.826; -198.600; -768.000; -666.000
388.956; -100.600; -285.000; -307.000
389.085; -136.400; -347.000; -287.000
389.214; -242.700; -842.000; -872.000
389.343; -218.200; -645.000; -413.000
389.472;    5.400;  126.000;  149.000
389.601;  -27.300;   91.000;    0.000
389.730; -177.100; -568.000; -687.000
389.859;   30.700;  226.000;   46.000
389.988; -160.900; -423.000; -408.000
390.117; -109.300; -168.000; -146.000
390.246;  -98.300; -331.000; -320.000
390.375; -234.700; -673.000; -626.000
390.504; -202.400; -703.000; -621.000
390.633; -290.400; -672.000; -726.000
390.761; -238.800; -732.000; -645.000
390.890;  -57.300;   -4.000; -130.000
391.019; -161.900; -421.000; -441.000
391.148; -287.900; -826.000; -855.000
391.277; -205.300; -576.000; -493.000
391.406; -280.400; -821.000; -805.000
391.534;  -13.800;  574.000; -301.000
391.663; -210.900; -583.000; -645.000
391.792; -184.300; -673.000; -701.000
391.921;  -46.700;   -3.000;   15.000
392.050; -119.100; -287.000; -228.000
392.178; -365.200;-1206.000;-1061.000
392.307; -234.600; -758.000; -712.000
392.436; -214.600; -427.000; -641.000
392.564;    1.300;  166.000;   -6.000
392.693; -243.500; -860.000; -682.000
392.822; -218.000; -529.000; -534.000
392.950; -272.800; -880.000; -714.000
393.079; -172.600; -188.000; -328.000
393.208; -176.000; -488.000; -511.000
393.336;  -82.300; -170.000; -145.000
393.465;  -95.700; -317.000; -199.000
393.593;   11.700;   62.000;   79.000
393.722; -327.100;-1121.000; -916.000
393.850;  -74.100; -188.000;  -61.000
393.979; -334.500; -926.000; -805.000
394.107; -210.800; -517.000; -537.000
394.236; -162.100; -570.000; -507.000
394.364;   40.100;  383.000;  206.000
394.493; -258.600; -911.000; -767.000
394.621; -287.900; -955.000; -916.000
394.750; -282.100; -873.000; -923.000
394.878;  -68.600; -247.000; -149.000
395.007; -231.100; -721.000; -807.000
395.135; -239.500; -790.000; -721.000
395.263; -321.700;-1038.000;-1040.000
395.392;  -24.900;  -25.000; -107.000
395.520; -220.100; -818.000; -679.000
395.648; -274.600; -865.000; -915.000
395.777; -191.500; -366.000; -405.000
395.905; -201.900; -449.000; -564.000
396.033;  -13.200;  217.000;  172.000
396.162; -136.100; -399.000; -453.000
396.290;  -21.300;  -17.000;   -2.000
396.418; -214.700; -555.000; -514.000
396.546; -268.200; -571.000; -466.000
396.674; -255.800; -850.000; -878.000
396.803;  -64.800;  -72.000;  -23.000
396.931;  -81.300; -179.000; -199.000
397.059; -356.000;-1026.000; -989.000
397.187; -269.600;-1026.000; -975.000
397.315; -268.000; -884.000; -649.000
397.443; -187.200; -592.000; -443.000
397.572; -216.000; -578.000; -424.000
397.700; -238.200; -607.000; -614.000
397.828;  -98.600;  120.000;  -90.000
397.956; -160.000; -508.000; -478.000
398.084; -230.300; -767.000; -626.000
398.212;   -1.800;  137.000;  124.000
398.340;  -33.200;  -56.000;  159.000
398.468; -123.700; -390.000; -169.000
398.596; -314.400; -993.000; -953.000
398.724; -238.800; -762.000; -767.000
398.852; -322.400;-1024.000; -976.000
398.980; -135.600; -560.000; -560.000
399.108; -233.000; -982.000; -735.000
399.236;   -0.900;   13.000;    8.000
399.363;   -5.900;  222.000;  196.000
399.491; -122.900; -404.000; -398.000
399.619; -276.900; -829.000; -800.000
399.747; -267.700; -859.000; -771.000
399.875;   -4.400;  220.000;  234.000
400.003; -144.200; -359.000; -284.000
400.130; -193.700; -421.000; -341.000
400.258;  -29.800;  -83.000;   38.000
400.386; -122.400; -352.000; -168.000
400.514; -163.800; -526.000; -587.000
400.641; -318.600; -928.000; -802.000
400.769; -283.600; -979.000; -888.000
400.897; -253.500; -838.000; -793.000
401.025;  -59.200; -166.000; -152.000
401.152;  -18.400;  220.000;   38.000
401.280; -153.200; -430.000; -429.000
401.408; -245.400; -712.000; -576.000
401.535; -211.800; -735.000; -758.000
401.663; -395.900;-1134.000;-1054.000
401.790; -182.000; -514.000; -525.000
401.918;   73.200;  436.000;  405.000
402.046;  -28.900;  134.000;  122.000
402.173;  -63.900;  -18.000;    7.000
402.301; -149.700; -519.000; -397.000
402.428;   62.400;  528.000;  383.000
402.556; -319.200;-1188.000; -913.000
402.683; -102.500;  -20.000;   -1.000
402.811;  -36.900;  -37.000; -206.000
402.938;  -41.600;   20.000;   27.000
403.066; -192.400; -574.000; -558.000
403.193;  -63.600;  299.000;  239.000
403.321; -167.100; -396.000; -574.000
403.448;  -26.400;   83.000;   27.000
403.575;  -55.600;  -90.000;  -46.000
403.703; -262.700; -732.000; -557.000
403.830; -131.400; -531.000; -496.000
403.957; -348.600;-1117.000;-1023.000
404.085;  -61.700;  -61.000; -172.000
404.212;  -40.400;  -50.000;   63.000
404.339; -142.800; -566.000; -306.000
404.467; -173.900; -612.000; -524.000
404.594;  -87.800; -287.000; -227.000
404.721; -239.200; -869.000; -764.000
404.848;  -92.200; -113.000; -202.000
404.976; -257.900; -856.000; -783.000
405.103;  -62.100;  -14.000;  -82.000
405.230;  -34.700;  190.000;  226.000
405.357;  -34.700;  117.000;   44.000
405.484;  -69.600;  -49.000;    5.000
405.612; -176.100; -548.000; -563.000
405.739; -170.400; -488.000; -243.000
405.866;  133.700;  669.000;  385.000
405.993; -162.300; -398.000; -102.000
406.120; -277.500; -801.000; -887.000
406.247; -152.400; -323.000; -342.000
406.374;  140.600;  540.000;  629.000
406.501; -212.800; -632.000; -702.000
406.628; -201.000; -621.000; -589.000
406.755; -266.800; -803.000; -620.000
406.882; -129.800; -228.000; -277.000
407.009; -220.600; -719.000; -628.000
407.136; -107.800; -480.000; -401.000
407.263; -320.600; -939.000; -829.000
407.390; -208.000; -692.000; -614.000
407.517; -385.000;-1139.000;-1187.000
407.644; -131.900; -332.000; -256.000
407.771; -166.700; -249.000; -287.000
407.898;   38.300;  168.000;  328.000
408.025; -174.500; -421.000; -313.000
408.151;   -3.000;   82.000;  153.000
408.278; -143.900; -267.000; -216.000
408.405; -287.400; -931.000; -899.000
408.532; -250.500; -549.000; -542.000
408.659; -253.500; -677.000; -648.000
408.785; -371.800;-1298.000;-1170.000
408.912;  -81.500; -412.000; -296.000
409.039; -246.700; -610.000; -686.000
409.166; -175.100; -591.000; -555.000
409.292; -208.100; -571.000; -534.000
409.419; -216.000; -665.000; -649.000
409.546; -143.800; -431.000; -192.000
409.672; -233.200; -713.000; -545.000
409.799;  -35.200;  -36.000;   34.000
409.926;  -83.000; -180.000; -179.000
410.052; -375.400;-1127.000;-1091.000
410.179; -157.800; -368.000; -392.000
410.305; -138.400; -375.000; -493.000
410.432; -116.300; -220.000; -333.000
410.558; -188.300; -305.000; -380.000
410.685; -178.900; -688.000; -431.000
410.812; -190.400; -409.000; -588.000
410.938; -248.700; -964.000; -808.000
411.065; -210.800; -671.000; -645.000
411.191;  -78.300; -189.000; -174.000
411.317; -291.500; -823.000; -742.000
411.444; -138.000; -317.000; -246.000
411.570; -136.800; -339.000; -294.000
411.697; -201.200; -758.000; -752.000
411.823; -318.600; -989.000; -999.000
411.949;  -68.100;  -56.000;   17.000
412.076; -252.400; -539.000; -519.000
412.202; -231.300; -758.000; -757.000
412.329; -276.700; -798.000; -752.000
412.455; -215.100; -821.000; -657.000
412.581;  -28.000;  -15.000;  172.000
412.707; -209.400; -540.000; -457.000
412.834;   -9.600;  156.000;  219.000
412.960; -248.800; -785.000; -784.000
413.086; -270.600; -743.000; -701.000
413.212;  110.700;  604.000;  578.000
413.339; -277.700; -685.000; -701.000
413.465; -171.100; -364.000; -310.000
413.591; -287.700; -757.000; -474.000
413.717;  -95.600; -358.000; -366.000
413.843; -270.300; -839.000; -861.000
413.969; -134.300;  -47.000; -292.000
414.096; -239.600; -679.000; -679.000
414.222;   -9.600;  -33.000;   85.000
414.348; -220.300; -652.000; -385.000
414.474;  -47.700;   38.000;  -52.000
414.600;  -64.200; -126.000; -144.000
414.726;  -32.900;  -96.000;  -55.000
414.852; -173.200; -365.000; -342.000
414.978;  -61.700;  104.000;  -18.000
415.104;  -58.000;   38.000;   80.000
415.230; -141.500; -329.000; -330.000
415.356; -205.100; -409.000; -514.000
415.482;  -70.700;   13.000;  -35.000
415.608; -150.500; -247.000; -323.000
415.734;    2.600;   67.000;   38.000
415.860; -271.800; -875.000; -767.000
415.986; -229.900; -685.000; -607.000
416.111; -266.700; -798.000; -652.000
416.237; -162.300; -424.000; -571.000
416.363; -283.600; -765.000; -733.000
416.489; -119.700; -324.000; -251.000
416.615; -244.400; -707.000; -742.000
416.741; -240.400; -677.000; -784.000
416.866; -247.200; -673.000; -736.000
416.992; -255.500; -801.000; -818.000
417.118; -137.600;  -41.000;  -80.000
417.244; -223.700; -798.000; -531.000
417.369; -263.200; -801.000; -612.000
417.495; -115.400; -325.000; -254.000
417.621; -330.100;-1015.000; -803.000
417.746; -154.700; -579.000; -572.000
417.872;  -81.300; -254.000; -144.000
417.998; -175.300; -515.000; -530.000
418.123; -305.600;-1073.000; -845.000
418.249; -176.100; -512.000; -601.000
418.374; -301.400; -916.000; -824.000
418.500; -156.500; -383.000; -482.000
418.626;  -65.900;   70.000;  -59.000
418.751; -146.600; -549.000; -448.000
418.877; -249.300; -637.000; -643.000
419.002; -199.100; -688.000; -560.000
419.128; -282.700; -930.000; -721.000
419.253; -282.000; -967.000; -837.000
419.379; -174.300; -391.000; -338.000
419.504;   64.400;  325.000;  415.000
419.629; -128.700; -393.000; -212.000
419.755;  -89.500; -317.000; -254.000
419.880; -111.400;  -98.000;   67.000
420.006; -110.100; -280.000; -221.000
420.131; -258.700; -662.000; -775.000
420.256; -121.400; -315.000; -316.000
420.382; -225.200; -665.000; -687.000
420.507; -257.300; -649.000; -778.000
420.632; -170.100; -337.000; -339.000
420.758;  -90.600; -251.000; -425.000
420.883; -232.900; -876.000; -672.000
421.008; -243.000; -775.000; -619.000
421.133; -219.900; -509.000; -467.000
421.259; -102.300; -325.000; -259.000
421.384; -279.400; -834.000; -693.000
421.509; -265.200;-1052.000; -862.000
421.634; -348.800; -936.000; -820.000
421.759; -158.000; -359.000; -327.000
421.885; -242.500; -717.000; -656.000
422.010; -203.500; -673.000; -542.000
422.135; -290.000; -695.000; -727.000
422.260;   48.100;  340.000;  280.000
422.385; -100.500;   12.000;  -98.000
422.510;    1.400;  151.000;  -26.000
422.635;  -56.400;  -87.000;  -43.000
422.760; -243.800; -766.000; -791.000
422.885;  -56.800;  -57.000;  -80.000
423.010;  -78.400; -112.000; -169.000
423.135; -222.100; -481.000; -561.000
423.260;  -95.800; -150.000; -245.000
423.385;   -7.500;  476.000;  222.000
423.510;   -7.800;   71.000;  -22.000
423.635;  -74.200;  133.000;   45.000
423.760;   56.900;  383.000;  328.000
423.885;   11.300;  336.000;  391.000
424.010;  -48.000;  -68.000;  -13.000
424.135;  -58.800;    5.000;  -33.000
424.259; -179.300; -654.000; -457.000
424.384; -169.700; -279.000; -272.000
424.509; -105.400; -260.000; -186.000
424.634; -263.100; -761.000; -623.000
424.759; -187.900; -688.000; -544.000
424.883; -180.400; -506.000; -527.000
425.008; -204.600; -502.000; -410.000
425.133; -252.200; -679.000; -653.000
425.258; -212.800; -517.000; -381.000
425.382; -264.500; -867.000; -774.000
425.507; -209.100; -487.000; -543.000
425.632; -282.600; -802.000; -663.000
425.756; -131.800; -256.000; -146.000
425.881; -262.700; -831.000; -857.000
426.006; -135.400; -604.000; -355.000
426.130; -248.900; -696.000; -508.000
426.255; -151.500; -611.000; -491.000
426.379;  -81.400; -189.000; -577.000
426.504;   89.600;  660.000;  544.000
426.629; -208.100; -519.000; -466.000
426.753;  -70.800;   64.000;  -46.000
426.878; -135.300; -252.000; -288.000
427.002; -247.200; -651.000; -668.000
427.127; -155.500;  -35.000; -158.000
427.251;   41.600;  372.000;  401.000
427.375; -164.200; -191.000; -173.000
427.500; -215.000; -616.000; -610.000
427.624; -169.000; -234.000; -400.000
427.749; -120.900; -216.000; -225.000
427.873; -189.100; -499.000; -412.000
427.997;  -72.000; -222.000; -230.000
428.122;  133.100;  795.000;  703.000
428.246;   57.700;  433.000;  434.000
428.371; -307.800; -869.000; -773.000
428.495; -242.100; -624.000; -646.000
428.619;  -99.400; -186.000; -117.000
428.743;  -22.200;   65.000;  132.000
428.868; -280.700; -732.000; -643.000
428.992; -151.400; -219.000; -326.000
429.116; -173.400; -329.000; -357.000
429.240;   61.700;  419.000;  426.000
429.365; -200.400; -454.000; -574.000
429.489; -222.000; -638.000; -647.000
429.613; -113.900; -236.000; -177.000
429.737; -182.100; -563.000; -432.000
429.861; -161.300; -247.000; -133.000
429.985; -148.700; -425.000; -305.000
430.109; -306.000; -770.000; -908.000
430.234;  -20.300;   76.000;  -50.000
430.358; -166.600; -250.000; -160.000
430.482; -218.700; -672.000; -564.000
430.606; -201.100; -655.000; -375.000
430.730; -164.200; -437.000; -388.000
430.854; -311.400; -909.000; -835.000
430.978; -252.600; -795.000; -764.000
431.102; -220.600; -499.000; -422.000
431.226; -274.000; -874.000; -815.000
431.350;    8.700;  345.000;  422.000
431.474; -188.600; -661.000; -373.000
431.597; -319.400;-1060.000; -848.000
431.721; -153.400; -276.000; -267.000
431.845; -264.200; -704.000; -472.000
431.969; -133.400; -304.000; -349.000
432.093; -193.600; -395.000; -317.000
432.217;  -41.000;   32.000;   82.000
432.341; -219.600; -523.000; -518.000
432.464;  -45.700;   96.000;   40.000
432.588; -200.500; -401.000; -329.000
432.712;  -65.400;  -52.000;  -52.000
432.836;   -7.900;  213.000;  263.000
432.959; -120.600; -372.000; -311.000
433.083;  -78.100;   11.000;    2.000
433.207;   55.500;  285.000;  930.000
433.330; -142.400; -391.000; -200.000
433.454; -228.400; -654.000; -638.000
433.578;   77.100;  583.000;  278.000
433.701; -244.500; -623.000; -675.000
433.825; -151.800; -292.000; -299.000
433.949;  -58.600;   28.000;  -72.000
434.072; -145.300; -410.000; -323.000
434.196; -101.400; -309.000; -117.000
434.319; 7261.600;25482.000;25124.000
434.443; -231.300; -656.000; -603.000
434.566;  -33.000;  281.000;   62.000
434.690; -188.000; -637.000; -383.000
434.813; -154.600; -251.000; -173.000
434.937; -221.800; -569.000; -696.000
435.060; -174.400; -423.000; -332.000
435.184; -160.300; -492.000; -217.000
435.307;  -59.300;  159.000;  102.000
435.431;  -39.800;  -40.000;   24.000
435.554; -149.800; -399.000; -240.000
435.677; -149.300; -350.000; -258.000
435.801;  -88.700;  -25.000;   49.000
435.924;  -68.600;    1.000;  -67.000
436.048; -312.200;-1019.000; -732.000
436.171; -136.100; -240.000;  -66.000
436.294; -150.400; -248.000; -229.000
436.417; -313.100; -963.000; -849.000
436.541; -303.200; -814.000; -840.000
436.664;  -76.700; -242.000; -316.000
436.787;  -46.800;   13.000;  113.000
436.910; -205.200; -792.000; -422.000
437.034;  -33.200;  142.000;  143.000
437.157;  -39.000;  -11.000;    0.000
437.280; -160.000; -392.000; -292.000
437.403; -295.200; -982.000; -869.000
437.526; -327.500; -903.000; -865.000
437.649; -165.400; -505.000; -332.000
437.772; -227.200; -692.000; -540.000
437.896;  131.500;  700.000;  544.000
438.019; -220.900; -758.000; -503.000
438.142; -190.200; -596.000; -506.000
438.265; -256.100; -639.000; -670.000
438.388; -156.000; -520.000; -410.000
438.511; -198.900; -597.000; -394.000
438.634; -157.600; -247.000; -125.000
438.757; -246.500; -693.000; -619.000
438.880;  -66.000;  -34.000;  -57.000
439.003; -212.600; -417.000; -437.000
439.126;  -98.500; -287.000; -167.000
439.248; -122.500;  -98.000; -139.000
439.371;  -41.900;    9.000;  -53.000
439.494;   83.300;  510.000;  439.000
439.617;  -47.600;   65.000;  -88.000
439.740; -320.100; -968.000; -816.000
439.863; -238.600; -755.000; -595.000
439.986; -220.400; -476.000; -431.000
440.108;  -92.200; -161.000; -112.000
440.231; -311.100; -950.000; -836.000
440.354; -103.200;  -64.000; -150.000
440.477; -249.600; -566.000; -542.000
440.599; -135.600; -200.000; -225.000
440.722; -241.100; -709.000; -586.000
440.845;  194.000;  751.000;  928.000
440.968; -221.200; -415.000; -311.000
441.090;  -80.300; -199.000;  -33.000
441.213; -327.900;-1021.000; -825.000
441.336;  -48.700; -159.000;   -5.000
441.458; -168.500; -549.000; -396.000
441.581; -235.300; -628.000; -629.000
441.703; -124.400; -152.000;   13.000
441.826; -163.600; -557.000; -400.000
441.948;  -68.300;   56.000;   51.000
442.071;  120.100;  555.000;  424.000
442.193; -241.800; -531.000; -485.000
442.316;    4.900;  152.000;   97.000
442.438; -133.600; -233.000;  -10.000
442.561;    4.100;  272.000;  262.000
442.683; -261.000; -809.000; -522.000
442.806;  -37.500;   -8.000;   74.000
442.928; -278.300; -859.000; -604.000
443.051; -186.400; -577.000; -373.000
443.173; -167.400; -341.000; -339.000
443.295; -155.500; -263.000; -371.000
443.418; -148.700; -321.000;  -29.000
443.540;  -45.800; -106.000;   -4.000
443.662; -238.400; -563.000; -465.000
443.785;    0.000;  335.000;  199.000
443.907; -181.300; -362.000; -208.000
444.029; -247.100; -767.000; -494.000
444.152; -250.200; -644.000; -554.000
444.274;  -60.400;  -18.000;  -24.000
444.396; -213.300; -461.000; -221.000
444.518; -211.500; -691.000; -454.000
444.640; -197.400; -268.000; -111.000
444.763;   -1.900;  388.000;  249.000
444.885; -201.600; -432.000; -392.000
445.007;  -38.400;   35.000;   86.000
445.129; -209.900; -610.000; -515.000
445.251; -192.100; -372.000; -439.000
445.373; -259.100; -537.000; -386.000
445.495;   26.700;  242.000;  350.000
445.617;   84.400;  853.000;  753.000
445.739; -128.400; -215.000;  -97.000
445.861;  -98.900; -245.000; -112.000
445.984; -148.200; -267.000; -101.000
446.105; -167.700; -418.000; -251.000
446.227;  -69.600; -176.000;  -19.000
446.349; -205.500; -358.000; -249.000
446.471; -198.100; -615.000; -448.000
446.593; -156.700; -316.000;   19.000
446.715;  -66.300;  -67.000;   41.000
446.837;  102.000;  697.000;  832.000
446.959; -194.500; -457.000; -478.000
447.081; -275.200; -628.000; -518.000
447.203;  163.500;  862.000;  834.000
447.325; -150.200; -270.000;   42.000
447.446;   37.400;  286.000;  530.000
447.568; -314.900; -921.000; -803.000
447.690; -174.000; -236.000; -245.000
447.812; -270.600; -798.000; -519.000
447.933;  -46.700;  155.000;  127.000
448.055; -161.900; -306.000; -261.000
448.177;  -23.000;   31.000;   79.000
448.299; -353.700; -935.000; -727.000
448.420;  -48.500;  -25.000;  159.000
448.542; -105.400;   -3.000;   33.000
448.664;  -12.600;  109.000;  322.000
448.785;  -52.500;  265.000;   83.000
448.907; -174.900; -614.000; -353.000
449.028; -245.900; -771.000; -471.000
449.150;   90.600;  492.000;  589.000
449.272; -329.900;-1044.000; -913.000
449.393;   88.800;  612.000;  694.000
449.515; -261.100; -634.000; -581.000
449.636; -109.000; -264.000; -155.000
449.758;   80.500;  763.000;  622.000
449.879; -183.900; -498.000; -396.000
450.001; -147.700; -149.000;  -49.000
450.122;  -70.200;  -95.000;  162.000
450.244;  -53.800;   37.000;  364.000
450.365; -174.200; -495.000; -301.000
450.486;  -82.200;   80.000;  268.000
450.608;    3.600;  393.000;  326.000
450.729;   43.700;  578.000;  645.000
450.850; -224.400; -574.000; -466.000
450.972; -269.600; -552.000; -389.000
451.093;   19.400;  190.000;  588.000
451.214; -188.800; -516.000; -337.000
451.336;  168.900;  773.000;  579.000
451.457;   -6.800;  264.000;  393.000
451.578;  -62.300; -118.000;  -74.000
451.699; -213.700; -546.000; -540.000
451.821; -149.500; -284.000;  -50.000
451.942;  -52.800;  278.000;  285.000
452.063;   23.700;  228.000;  419.000
452.184; -119.500;  -54.000;  -49.000
452.305;   -8.100;  103.000;  170.000
452.427; -212.500; -549.000; -301.000
452.548;  -61.000;   23.000;   79.000
452.669; -150.500; -257.000;  -89.000
452.790; -112.700;    3.000;  -18.000
452.911;  -15.500;  195.000;  259.000
453.032; -158.900; -289.000;  -60.000
453.153;  -75.200;  -29.000;   81.000
453.274;  150.800;  737.000;  868.000
453.395; -103.500;  -51.000;  175.000
453.516;  250.800; 1317.000; 1388.000
453.637; -191.200; -205.000; -150.000
453.758;  -82.900;   15.000;   69.000
453.879; -212.800; -462.000; -250.000
454.000;  191.100; 1086.000;  948.000
454.121; -254.600; -554.000; -326.000
454.242; -237.300; -599.000; -383.000
454.362;  -81.000;  -99.000;  114.000
454.483; -128.100; -309.000; -229.000
454.604;   40.900;  512.000;  580.000
454.725; -232.600; -627.000; -555.000
454.846; -195.800; -474.000; -406.000
454.967;  -28.100;  230.000;  539.000
455.087;  -33.800;  179.000;  153.000
455.208;   83.300;  554.000;  856.000
455.329; -130.800;  -22.000;   82.000
455.450;   39.000;  473.000;  633.000
455.570; -151.100; -234.000; -211.000
455.691;  -82.800;  201.000;  407.000
455.812; -184.500; -270.000;  -92.000
455.932;  -80.700;  107.000;  -97.000
456.053; -124.200;   36.000;   24.000
456.173; -204.800; -433.000; -355.000
456.294; -246.600; -476.000; -303.000
456.415;  -78.400;  -73.000;   70.000
456.535;  -52.600;  297.000;  273.000
456.656;  -23.700;  132.000;  240.000
456.776;  -87.900;    3.000;  298.000
456.897;   36.900;  308.000;  513.000
457.017; -141.700; -153.000;   -3.000
457.138; -221.100; -402.000; -249.000
457.258;  -16.800;  263.000;  224.000
457.379;   40.800;  509.000;  521.000
457.499;   -9.300;  443.000;  432.000
457.620; -176.400; -407.000; -231.000
457.740; -157.000; -132.000;  -11.000
457.860;  -56.500;   87.000;   44.000
457.981; -107.100;  132.000;  124.000
458.101; -128.000;  -89.000;   40.000
458.221;   19.400;  336.000;  402.000
458.342; -111.000;   -4.000;  -37.000
458.462;   13.700;  617.000;  352.000
458.582; -158.800; -302.000; -294.000
458.703;  -84.000;  303.000;  154.000
458.823;  -85.100;   22.000;  163.000
458.943;    8.100;  341.000;  467.000
459.063;  -59.400; 1124.000;  192.000
459.183;  -29.200;  328.000;  313.000
459.304;   32.900;  315.000;  517.000
459.424; -139.300; -246.000;  -89.000
459.544;   66.500;  388.000;  764.000
459.664;   60.200;  499.000;  506.000
459.784;  160.800; 1004.000; 1175.000
459.904;  106.300;  867.000;  744.000
460.024;  125.500;  867.000;  684.000
460.144;   -0.800;  449.000;  554.000
460.264;   36.400;  515.000;  327.000
460.385; -135.200; -145.000; -119.000
460.505;  126.000;  905.000;  858.000
460.625; -148.100;  -17.000;  -68.000
460.745;   11.400;  396.000;  541.000
460.864;  -80.300;  153.000;  469.000
460.984;  -11.100;  499.000;  573.000
461.104;  324.300; 1656.000; 1775.000
461.224;   87.000;  657.000;  650.000
461.344;  -13.400;  431.000;  360.000
461.464;   -9.600;  258.000;  513.000
461.584;  -25.900;  283.000;  466.000
461.704;  -91.200;   58.000;  108.000
461.824;  -99.900;  238.000;  259.000
461.943;   -3.600;  191.000;  130.000
462.063;  -97.900;    2.000;  324.000
462.183;  107.100;  639.000;  717.000
462.303;  214.100; 1678.000; 1230.000
462.422;  126.500;  781.000;  840.000
462.542;  -53.000;  271.000;  391.000
462.662;   -2.500;  353.000;  380.000
462.782;   65.600;  833.000;  572.000
462.901;   22.500;  545.000;  717.000
463.021;  306.300; 1702.000; 1638.000
463.141;   -4.600;  337.000;  770.000
463.260;   24.900;  614.000;  474.000
463.380;   69.000;  902.000;  884.000
463.499;  -45.300;  342.000;  332.000
463.619;  -12.200;  581.000;  559.000
463.738;  259.900; 1644.000;  903.000
463.858;   64.300;  657.000;  811.000
463.978;  -28.700;  542.000;  396.000
464.097;  128.300;  921.000; 1114.000
464.217;  150.500; 1196.000; 1143.000
464.336;  194.400; 1068.000; 1130.000
464.455;  -74.100;  328.000;  659.000
464.575;   40.100;  597.000;  602.000
464.694;  178.700; 1204.000; 1179.000
464.814;  148.200; 1190.000; 1138.000
464.933;  119.500; 1095.000; 1027.000
465.052;  222.800; 1412.000; 1054.000
465.172;  105.100;  922.000;  799.000
465.291;  230.800; 1376.000; 1320.000
465.410;   80.700;  462.000;  735.000
465.530;  223.700; 1355.000; 1310.000
465.649;  158.400; 1209.000; 1273.000
465.768;  320.800; 1673.000; 1508.000
465.888;  139.800;  941.000; 1174.000
466.007;  235.700; 1335.000; 1440.000
466.126;   38.300;  721.000;  641.000
466.245;  129.500; 1176.000; 1187.000
466.364;   92.100;  950.000; 1060.000
466.484;  147.200; 1024.000; 1213.000
466.603;   74.300; 1101.000; 1222.000
466.722;  270.400; 1490.000; 1769.000
466.841;  160.200; 1151.000; 1401.000
466.960;  155.300; 1069.000;  972.000
467.079;  344.800; 1971.000; 1786.000
467.198;  135.200; 1238.000; 1181.000
467.317;  226.900; 1768.000; 1162.000
467.436;  194.900; 1709.000; 1261.000
467.555;  276.000; 1796.000; 1746.000
467.674;  159.900; 1227.000; 1329.000
467.793;  112.100; 1376.000; 1374.000
467.912;  228.300; 1658.000; 1539.000
468.031;  281.700; 2038.000; 1930.000
468.150;  312.400; 1842.000; 1837.000
468.269;  423.200; 2313.000; 2090.000
468.388;  409.900; 2168.000; 2339.000
468.507;  557.500; 2884.000; 2903.000
468.626;  586.100; 2555.000; 2541.000
468.744;  303.700; 2018.000; 2174.000
468.863;  489.900; 2312.000; 2523.000
468.982;  205.800; 1503.000; 1555.000
469.101;  481.300; 2788.000; 2692.000
469.220;  355.400; 2333.000; 2176.000
469.338;  576.100; 2935.000; 3051.000
469.457;  456.600; 2719.000; 2545.000
469.576;  709.800; 3953.000; 3784.000
469.695;  538.000; 2877.000; 3066.000
469.813;  875.000; 4148.000; 4192.000
469.932;  795.800; 4255.000; 4485.000
470.051;  763.300; 4075.000; 4161.000
470.169;  832.800; 4470.000; 4338.000
470.288;  936.800; 4700.000; 4809.000
470.406;  984.600; 5059.000; 5194.000
470.525; 1186.700; 6101.000; 5787.000
470.644; 1322.800; 6847.000; 6794.000
470.762; 1648.300; 8397.000; 7873.000
470.881; 1783.300; 8651.000; 8464.000
470.999; 2039.200; 9685.000; 9151.000
471.118; 2269.100;11174.000;10711.000

