
Integration time [ms]: 200.000
Averaging Nr. [scans]: 10
Smoothing Nr. [pixels]: 0
Data measured with spectrometer [name]: 2101012U2
Wave   ;Sample   ;Dark     ;Reference
[nm]   ;[counts] ;[counts] ;[counts] 

197.733;  118.100;  516.000;  404.000
197.879; -164.500; -610.000; -634.000
198.025; -114.200; -475.000; -420.000
198.171; -163.600; -602.000; -612.000
198.317;  -68.100; -401.000; -316.000
198.463; -144.700; -655.000; -404.000
198.609;   72.400;  181.000; -137.000
198.755; -167.400; -644.000; -410.000
198.901; -152.300; -505.000; -424.000
199.047; -182.400; -615.000; -488.000
199.193;  -64.900; -230.000; -468.000
199.339; -112.700; -222.000; -369.000
199.485;   73.700;  330.000;  271.000
199.631;   16.200;  227.000;  310.000
199.777; -126.900; -466.000; -398.000
199.923; -133.700; -610.000; -424.000
200.069;  -10.400; -141.000;  -58.000
200.215;  105.300;  128.000;  453.000
200.361;   94.300;  243.000;  477.000
200.507; -135.600; -600.000; -373.000
200.653;  -50.000; -371.000; -194.000
200.798;  -72.500; -215.000; -125.000
200.944;  -26.800; -146.000;  -41.000
201.090;   31.700;   61.000;  222.000
201.236;   36.700; -116.000; -158.000
201.382;  256.000;  874.000;  903.000
201.528;   19.800;  -58.000;  -48.000
201.674; -120.600; -386.000; -293.000
201.819; -133.400; -540.000; -439.000
201.965; -177.400; -699.000; -447.000
202.111;  -32.400; -273.000; -226.000
202.257; -107.900; -250.000; -238.000
202.402;    5.700;   13.000;  -36.000
202.548;  -89.500; -169.000; -116.000
202.694;  192.500;  410.000; -183.000
202.840; -170.200; -603.000; -531.000
202.985; -159.000; -681.000; -639.000
203.131; -236.900; -832.000; -666.000
203.277;  -39.000; -199.000; -262.000
203.423; -130.700; -434.000; -520.000
203.568;  -90.800; -462.000; -237.000
203.714; -127.300; -535.000; -542.000
203.860; -167.500; -682.000; -641.000
204.005;   10.700;  112.000;  167.000
204.151;  157.000;  561.000;  556.000
204.296; -127.400; -354.000; -221.000
204.442; -137.800; -600.000; -547.000
204.588; -191.900; -592.000; -579.000
204.733;   35.100;  178.000;  168.000
204.879; -264.800;-1018.000; -822.000
205.025;    2.000;  -99.000;  126.000
205.170;   -7.100;  -17.000;   94.000
205.316;  149.000;  438.000;  661.000
205.461; -156.200; -698.000; -554.000
205.607;  173.700;  609.000;  665.000
205.752; -137.400; -626.000; -551.000
205.898; -110.000; -501.000; -391.000
206.043; -127.200; -578.000; -506.000
206.189;  -66.100; -243.000; -285.000
206.334;  173.900;  554.000;  606.000
206.480;  182.000;  409.000;  239.000
206.625; -174.400; -529.000; -552.000
206.771;  -83.300; -451.000; -373.000
206.916;  -78.800; -210.000; -537.000
207.062; -126.400; -545.000; -591.000
207.207; -169.400; -546.000; -443.000
207.353;  124.900;  185.000;  460.000
207.498;   12.200;  196.000;   85.000
207.643;  -76.300; -501.000; -370.000
207.789; -297.400;-1069.000; -910.000
207.934; -208.700; -665.000; -713.000
208.080;  -75.100; -154.000;   66.000
208.225;   -4.900;  -22.000;  -57.000
208.370; -197.700; -727.000; -619.000
208.516; -148.600; -741.000; -487.000
208.661;  -74.300; -127.000;  -69.000
208.806;  -62.000; -165.000; -171.000
208.952; -291.700;-1044.000; -731.000
209.097;  143.200;  378.000;  349.000
209.242; -105.000; -307.000; -382.000
209.387;   83.700;  392.000;  350.000
209.533; -121.600; -321.000; -350.000
209.678;  145.800;  472.000;  543.000
209.823; -125.600; -408.000; -310.000
209.969; -213.800; -860.000; -757.000
210.114; -242.100; -907.000; -719.000
210.259; -203.600; -939.000; -889.000
210.404;  -39.600; -171.000;  103.000
210.549;    8.500;  108.000;    3.000
210.695;  -42.500;   -3.000;  -95.000
210.840;   92.700;   94.000;   67.000
210.985; -153.400; -484.000; -303.000
211.130;  136.500;  268.000;  406.000
211.275;   14.300;  207.000;  199.000
211.420; -134.900; -300.000; -289.000
211.566; -147.700; -536.000; -489.000
211.711;   38.700;  218.000;  157.000
211.856; -143.500; -545.000; -519.000
212.001;    8.700;  151.000;   44.000
212.146;   -2.800;  153.000;   49.000
212.291;  -53.500; -210.000; -186.000
212.436;  -82.100; -280.000;   -6.000
212.581; -161.200; -685.000; -653.000
212.726; -165.500; -487.000; -538.000
212.871;  -99.200; -552.000; -217.000
213.016; -312.600;-1172.000;-1029.000
213.161;  138.800;  406.000;  291.000
213.306; -161.000; -435.000; -577.000
213.451; -196.000; -778.000; -689.000
213.596; -104.300; -455.000; -347.000
213.741; -107.000; -448.000; -538.000
213.886; -147.400; -498.000; -517.000
214.031;  -35.500; -294.000; -124.000
214.176; -116.000; -408.000; -341.000
214.321;  -42.800; -296.000; -157.000
214.466;  -80.900; -163.000;  -43.000
214.611;   26.900;  -61.000;  -10.000
214.756; -256.500; -948.000; -858.000
214.901;  -61.600; -388.000; -226.000
215.046; -259.900; -797.000; -825.000
215.191;   32.400;  128.000;   35.000
215.336;  -33.000; -157.000;  -19.000
215.480; -153.600; -684.000; -505.000
215.625;  -72.500; -175.000;  -19.000
215.770; -174.000; -757.000; -662.000
215.915;  -30.500;   -5.000;  -97.000
216.060;  -27.900; -113.000;  -21.000
216.205; -251.500; -731.000; -779.000
216.349; -144.100; -470.000; -533.000
216.494; -294.700; -939.000; -867.000
216.639; -219.600; -823.000; -888.000
216.784; -173.800; -577.000; -525.000
216.929;  127.400;  392.000;  281.000
217.073;  -40.300; -244.000;  -31.000
217.218;   40.800;   78.000;  -47.000
217.363; -178.300; -656.000; -618.000
217.507; -179.600; -623.000; -588.000
217.652; -237.500; -845.000; -874.000
217.797; -214.500; -708.000; -659.000
217.942; -216.800; -856.000; -720.000
218.086;  159.100;  608.000;  539.000
218.231;  -48.900; -174.000;  -26.000
218.376;  -94.700; -337.000; -229.000
218.520;  -11.300;  -41.000;   96.000
218.665;  -66.900; -338.000; -204.000
218.810; -112.600; -275.000; -233.000
218.954;   30.400;  201.000;   35.000
219.099; -260.200; -713.000; -963.000
219.243; -112.400; -589.000; -554.000
219.388;  -70.600; -264.000; -136.000
219.532;  -24.200; -116.000; -116.000
219.677; -140.900; -564.000; -521.000
219.822;    9.700;   33.000;   89.000
219.966;   13.600;   17.000;  -99.000
220.111;  -68.300; -328.000;  -40.000
220.255; -202.000; -797.000; -750.000
220.400;  -32.800; -180.000; -146.000
220.544; -135.600; -516.000; -450.000
220.689;  -94.500; -422.000; -451.000
220.833;  -48.000; -123.000;  -58.000
220.978;  -99.800; -393.000; -563.000
221.122;    9.900;  319.000;  307.000
221.267; -236.200; -906.000; -837.000
221.411; -168.900; -478.000; -394.000
221.555;   -9.500; -104.000;  -23.000
221.700; -132.500; -329.000; -222.000
221.844;   89.800;  255.000;  272.000
221.989; -110.200; -328.000; -311.000
222.133;  -36.900; -289.000; -307.000
222.277;   -9.600;    5.000;   78.000
222.422;   21.200;  227.000;  113.000
222.566;  -64.300; -381.000; -214.000
222.711; -107.400; -414.000; -479.000
222.855; -168.000; -643.000; -586.000
222.999; -159.300; -642.000; -717.000
223.144;  -98.500; -195.000; -194.000
223.288;   95.400;  423.000;  251.000
223.432;   24.800;  184.000;  230.000
223.576;   53.200;  152.000;  -21.000
223.721;   60.800;  364.000;  273.000
223.865; -127.500; -472.000; -475.000
224.009;  472.500; 1673.000; 1631.000
224.153; -169.800; -660.000; -671.000
224.298; -140.900; -531.000; -489.000
224.442;  -11.600;  -74.000;  -33.000
224.586;   -8.800; -169.000; -106.000
224.730; -213.000; -858.000; -670.000
224.875; -223.000; -739.000; -688.000
225.019;   -8.900;  102.000;  188.000
225.163;  127.800;  208.000;  341.000
225.307;   31.800;   97.000;  -91.000
225.451;   94.700;  360.000;  481.000
225.595;   71.600;  264.000;  176.000
225.739;  -41.500; -170.000;  -94.000
225.884;   29.400;   86.000;    5.000
226.028; -205.500; -760.000; -626.000
226.172;  -74.400; -260.000; -273.000
226.316; -248.200; -941.000; -902.000
226.460; -152.600; -645.000; -493.000
226.604; -139.400; -406.000; -400.000
226.748; -224.700; -836.000; -733.000
226.892;  -70.100; -227.000; -181.000
227.036; -102.700; -537.000; -447.000
227.180; -106.800; -551.000; -375.000
227.324; -116.200; -561.000; -580.000
227.468; -239.700; -819.000; -717.000
227.612;   27.100;  242.000;  -28.000
227.756; -204.500; -845.000; -698.000
227.900;  131.500;  342.000;  441.000
228.044; -114.500; -509.000; -290.000
228.188;  120.300;  448.000;  568.000
228.332; -207.900; -546.000; -472.000
228.476;  -41.200; -223.000; -149.000
228.620;  -53.900; -210.000; -150.000
228.764;  141.800;  431.000;  349.000
228.908;  -25.200; -155.000;   30.000
229.052; -114.100; -615.000; -528.000
229.195;  -35.600; -172.000;   13.000
229.339;  -29.500; -235.000; -305.000
229.483;  -91.900;    5.000; -162.000
229.627;    6.500; -156.000;  139.000
229.771; -112.900; -218.000; -294.000
229.915;   55.100;  230.000;   79.000
230.059; -203.800; -648.000; -663.000
230.202;  -79.300; -370.000; -317.000
230.346;  -45.200; -107.000;  107.000
230.490; -102.900; -489.000; -521.000
230.634; -234.300; -736.000; -553.000
230.777;  172.700;  478.000;  509.000
230.921; -140.800; -450.000; -359.000
231.065;  -72.000; -246.000; -286.000
231.209;   44.500;  261.000;  265.000
231.352;   46.600;   54.000;   40.000
231.496;   44.500;  568.000;  188.000
231.640; -136.100; -693.000; -621.000
231.783;  155.100;  546.000;  525.000
231.927;  -42.300; -294.000; -365.000
232.071; -241.900; -962.000; -736.000
232.214; -233.200; -980.000; -764.000
232.358; -185.700; -683.000; -599.000
232.502;   34.500;  -19.000;    7.000
232.645; -298.300;-1090.000; -927.000
232.789;  -26.300; -257.000; -218.000
232.933;  -84.900; -407.000; -224.000
233.076; -242.400;-1038.000; -897.000
233.220; -228.600; -752.000; -777.000
233.363; -158.600; -669.000; -477.000
233.507;  120.000;  371.000;  129.000
233.650; -170.100; -764.000; -834.000
233.794;   80.100;  438.000;  461.000
233.938;  -96.700; -530.000; -362.000
234.081;  -11.200;  -93.000;   31.000
234.225; -143.900; -631.000; -539.000
234.368; -237.900; -773.000; -723.000
234.512;  -75.000; -385.000; -299.000
234.655; -176.600; -582.000; -555.000
234.798; -111.800; -493.000; -466.000
234.942; -263.000; -884.000;-1002.000
235.085; -146.600; -651.000; -443.000
235.229; -172.900; -405.000; -410.000
235.372; -106.900; -247.000; -191.000
235.516; -143.100; -397.000; -321.000
235.659;   55.600;   92.000;  121.000
235.802;  -38.000;  -38.000;  -22.000
235.946;   37.800;  335.000;  215.000
236.089;   63.100;  126.000;  250.000
236.233;  127.500;  275.000;  298.000
236.376;  -95.400; -235.000; -378.000
236.519;  -74.100; -297.000; -319.000
236.663;  -52.700; -215.000; -117.000
236.806; -256.100;-1029.000; -999.000
236.949;  154.600;  543.000;  431.000
237.092;  116.100;  412.000;  391.000
237.236; -161.600; -589.000; -502.000
237.379;  174.200;  352.000;  428.000
237.522; -238.100; -879.000; -768.000
237.666;   -1.800; -271.000;   18.000
237.809; -266.000; -851.000; -823.000
237.952;   55.100;  469.000;  271.000
238.095; -158.300; -447.000; -442.000
238.238;  178.400;  688.000;  700.000
238.382;   -7.400;  166.000;  103.000
238.525;  -96.500; -598.000; -511.000
238.668; -303.200;-1060.000; -985.000
238.811; -145.500; -638.000; -643.000
238.954;  -85.600; -483.000; -334.000
239.097;  206.300;  617.000;  664.000
239.241;   51.400;  394.000;  326.000
239.384;  -51.900; -254.000; -214.000
239.527; -134.700; -424.000; -224.000
239.670; -289.000; -994.000;-1091.000
239.813; -215.300; -696.000; -658.000
239.956;  192.900;  579.000;  473.000
240.099; -220.600; -778.000; -725.000
240.242;  125.200;  428.000;  432.000
240.385;  108.200;  466.000;  450.000
240.528; -144.800; -706.000; -473.000
240.671;   24.100;  189.000;  134.000
240.814;  -86.600; -441.000; -158.000
240.957; -225.500; -767.000; -578.000
241.100; -199.800; -779.000; -755.000
241.243; -285.000;-1234.000; -893.000
241.386; -116.000; -508.000; -379.000
241.529; -194.600; -735.000; -547.000
241.672; -102.400; -566.000; -495.000
241.815; -257.900; -832.000; -808.000
241.958;  -28.300; -125.000; -182.000
242.101; -153.600; -545.000; -390.000
242.244;  -64.100; -270.000; -325.000
242.387; -101.200; -304.000; -246.000
242.530;  124.500;  470.000;  134.000
242.673; -109.100; -381.000; -309.000
242.815; -233.600; -925.000; -899.000
242.958; -155.300; -482.000; -381.000
243.101;   70.000;  132.000;  187.000
243.244; -183.900; -564.000; -521.000
243.387; -120.100; -313.000; -316.000
243.530; -223.400; -657.000; -674.000
243.672;   18.400;   43.000;  -92.000
243.815; -117.000; -355.000; -283.000
243.958;    5.200;   98.000;  -26.000
244.101;   11.000;   59.000;  -16.000
244.243;  -12.500;  -47.000;  101.000
244.386; -203.500; -761.000; -630.000
244.529;  -19.300; -132.000; -139.000
244.672; -319.100;-1154.000; -951.000
244.814; -217.400; -621.000; -794.000
244.957; -139.000; -380.000; -304.000
245.100; -165.900; -489.000; -489.000
245.242; -140.500; -387.000; -374.000
245.385;  -26.800;  -59.000;  -39.000
245.528; -251.000; -871.000; -705.000
245.670;  210.700;  612.000;  634.000
245.813; -171.700; -599.000; -547.000
245.956;  -62.000; -324.000; -275.000
246.098; -157.500; -508.000; -650.000
246.241;   25.300;  194.000;   48.000
246.383;  -59.800; -119.000;  -73.000
246.526; -142.800; -454.000; -525.000
246.669; -231.700; -889.000; -780.000
246.811;   49.100;  172.000;   -1.000
246.954; -152.600; -512.000; -426.000
247.096;  -39.400;  -84.000;   -6.000
247.239; -145.300; -482.000; -445.000
247.381; -130.900; -647.000; -488.000
247.524;  189.400;  645.000;  679.000
247.666;   -1.100;   58.000;   11.000
247.809; -243.100; -887.000; -691.000
247.951;  -51.700;  -75.000;  138.000
248.094;   61.800;  432.000;  308.000
248.236; -313.200;-1262.000;-1238.000
248.378;  -50.800; -356.000;  -81.000
248.521;  -94.800; -334.000; -337.000
248.663; -102.600; -236.000; -267.000
248.806;  -72.400; -300.000; -266.000
248.948; -235.000; -886.000; -763.000
249.090; -121.800; -428.000; -398.000
249.233; -134.100; -344.000; -381.000
249.375; -142.000; -474.000; -451.000
249.518;  -17.500;  -83.000; -133.000
249.660;   -7.100; -103.000;    3.000
249.802; -365.500;-1303.000;-1189.000
249.945; -129.100; -612.000; -540.000
250.087; -217.100; -834.000; -768.000
250.229;  -79.100; -362.000; -480.000
250.371; -168.500; -494.000; -439.000
250.514; -104.900; -310.000; -244.000
250.656;   -7.900;   69.000;  102.000
250.798; -225.200; -849.000; -800.000
250.940; -120.100; -322.000; -322.000
251.083;  -10.500; -335.000; -111.000
251.225;   94.400;  338.000;  310.000
251.367;  -54.500; -274.000; -373.000
251.509;  -80.600; -265.000; -210.000
251.651; -191.800; -731.000; -671.000
251.794;   85.100;  538.000;  632.000
251.936; -210.000; -821.000; -747.000
252.078; -167.300; -540.000; -461.000
252.220; -139.000; -645.000; -477.000
252.362;  113.200;  344.000;  462.000
252.504; -180.000; -677.000; -584.000
252.646; -231.200; -875.000; -722.000
252.788;  -37.800;   14.000; -128.000
252.931;  -95.000; -257.000; -253.000
253.073;  -91.800; -376.000; -317.000
253.215;  -19.300;  141.000;  122.000
253.357;    0.000;   82.000; -153.000
253.499; -104.700; -374.000; -234.000
253.641; -146.600; -749.000; -594.000
253.783; -202.700; -609.000; -527.000
253.925; -163.100; -586.000; -591.000
254.067; -250.300; -744.000; -667.000
254.209;  -65.800; -391.000; -259.000
254.351; -280.700; -865.000; -883.000
254.493; -112.000; -441.000; -417.000
254.635; -250.400; -936.000; -818.000
254.777; -170.000; -752.000; -687.000
254.918; -146.900; -512.000; -430.000
255.060; -100.400; -551.000; -395.000
255.202; -125.600; -473.000; -261.000
255.344; -123.100; -658.000; -455.000
255.486; -156.300; -471.000; -406.000
255.628; -225.100; -780.000; -781.000
255.770; -188.900; -676.000; -536.000
255.912;  -88.600; -559.000; -468.000
256.053; -200.500; -730.000; -508.000
256.195;  340.600; 1008.000;  903.000
256.337; -204.200; -861.000; -595.000
256.479;  162.200;  532.000;  416.000
256.621; -127.400; -394.000; -212.000
256.762; -202.900; -789.000; -742.000
256.904;   88.200;  485.000;  487.000
257.046;  -90.400; -381.000; -271.000
257.188; -112.800; -351.000; -264.000
257.329; -153.500; -525.000; -464.000
257.471; -242.500; -939.000; -807.000
257.613; -108.300; -584.000; -498.000
257.755; -311.300;-1073.000; -982.000
257.896;  105.500;  286.000;  392.000
258.038; -155.600; -403.000; -352.000
258.180;  -57.000; -354.000; -279.000
258.321; -156.500; -581.000; -457.000
258.463;   -4.800;  -71.000;  133.000
258.605; -205.600; -562.000; -570.000
258.746; -197.900; -886.000; -772.000
258.888; -293.900;-1026.000;-1020.000
259.029;   38.300;  121.000;   -8.000
259.171; -184.700; -614.000; -550.000
259.313;    7.700;  -49.000;  -47.000
259.454; -168.100; -536.000; -414.000
259.596;  -98.900; -483.000; -390.000
259.737; -177.700; -590.000; -474.000
259.879;   97.700;  217.000;  311.000
260.020;  183.300;  901.000;  636.000
260.162;  -53.800; -146.000; -253.000
260.303; -220.000; -768.000; -687.000
260.445; -174.100; -609.000; -613.000
260.586;   54.800;  392.000;  157.000
260.728; -105.100; -360.000; -248.000
260.869; -135.700; -350.000; -343.000
261.011;  194.000;  706.000;  537.000
261.152; -134.800; -479.000; -319.000
261.293; -116.500; -576.000; -595.000
261.435;  -67.700; -219.000; -184.000
261.576; -106.400; -455.000; -325.000
261.718;  104.100;  420.000;  470.000
261.859; -247.600; -940.000; -949.000
262.000; -261.000; -951.000;-1016.000
262.142;  -14.700;  -52.000;  -60.000
262.283; -218.700; -808.000; -691.000
262.424; -171.600; -666.000; -625.000
262.566; -308.300;-1161.000; -983.000
262.707; -214.800; -840.000; -830.000
262.848; -259.100; -769.000; -726.000
262.990;  -78.200; -362.000; -345.000
263.131;  174.500;  650.000;  681.000
263.272;    0.900;  -61.000;  -41.000
263.413; -186.400; -589.000; -561.000
263.555; -130.800; -669.000; -143.000
263.696; -177.100; -550.000; -641.000
263.837; -100.500; -449.000; -551.000
263.978;  -24.900;   -5.000;  -77.000
264.119;  -78.000; -283.000; -264.000
264.261; -251.600; -847.000; -630.000
264.402;  -10.400;   33.000;   40.000
264.543; -154.600; -509.000; -524.000
264.684;  -39.200;   61.000;  -50.000
264.825; -153.500; -816.000; -538.000
264.966;   32.900;  -84.000;  -67.000
265.107; -226.900; -646.000; -670.000
265.248; -250.000; -825.000; -812.000
265.390;   -5.400;  152.000;   -9.000
265.531;  -26.600; -238.000; -107.000
265.672; -192.100; -557.000; -630.000
265.813;  146.100;  563.000;  439.000
265.954; -311.600; -959.000; -940.000
266.095;  -18.700; -372.000; -322.000
266.236; -195.800; -686.000; -548.000
266.377;  -65.600; -243.000; -297.000
266.518; -155.300; -619.000; -547.000
266.659;  101.300;  170.000;  268.000
266.800;   -4.300;   83.000;   85.000
266.941; -147.100; -487.000; -478.000
267.082;   19.800;  354.000;   99.000
267.223;  -91.900; -344.000; -273.000
267.364; -243.600; -892.000; -686.000
267.504;  -18.900;    3.000;  135.000
267.645;    1.500;  160.000;   67.000
267.786;  -71.000; -147.000;  -86.000
267.927; -140.200; -473.000; -379.000
268.068;  -59.100; -186.000;  -61.000
268.209;  -97.800; -175.000; -413.000
268.350;  -65.500; -388.000; -532.000
268.490; -167.000; -648.000; -521.000
268.631;   82.900;  127.000;  225.000
268.772; -217.000; -874.000; -647.000
268.913;  -89.100; -328.000; -476.000
269.054;  -53.900; -117.000;   12.000
269.194;  -82.600; -418.000; -402.000
269.335; -304.400;-1137.000;-1074.000
269.476;  -34.400;   33.000;  -35.000
269.617;  -79.900; -347.000; -392.000
269.757; -178.300; -713.000; -646.000
269.898; -216.800; -856.000; -613.000
270.039; -149.600; -415.000; -405.000
270.180; -275.000; -952.000; -816.000
270.320;  -11.000; -190.000; -250.000
270.461;  -96.800; -277.000; -249.000
270.602;   11.900; -186.000; -156.000
270.742; -263.900; -868.000; -943.000
270.883;  -89.800; -442.000; -390.000
271.023; -109.600; -358.000; -357.000
271.164; -153.200; -607.000; -528.000
271.305; -202.700; -666.000; -654.000
271.445; -185.300; -722.000; -683.000
271.586; -144.800; -462.000; -283.000
271.726;  -73.300; -397.000; -322.000
271.867; -171.600; -594.000; -534.000
272.008;  101.700; -473.000; -285.000
272.148;  159.900;  462.000;  468.000
272.289;    7.000; -113.000; -181.000
272.429;   12.400;   19.000;  185.000
272.570; -167.900; -633.000; -737.000
272.710; -222.000; -825.000; -775.000
272.851;   -8.900;  113.000; -130.000
272.991; -333.300;-1173.000;-1077.000
273.131; -123.300; -419.000; -459.000
273.272; -195.200; -683.000; -723.000
273.412;  -23.800; -143.000;  -31.000
273.553; -110.300; -488.000; -507.000
273.693;  269.900;  913.000;  858.000
273.834; -232.800; -894.000; -692.000
273.974; -185.400; -664.000; -615.000
274.114; -214.000; -772.000; -560.000
274.255;  129.300;  414.000;  373.000
274.395;  -32.800; -180.000; -125.000
274.535;   76.100;  199.000;  350.000
274.676;   31.500;  225.000;   94.000
274.816;   11.400;  110.000;   34.000
274.956; -185.600; -624.000; -690.000
275.097; -196.700;-1014.000; -922.000
275.237; -250.300; -913.000; -803.000
275.377; -185.200; -778.000; -689.000
275.517; -324.000; -878.000; -937.000
275.658; -142.400; -590.000; -555.000
275.798; -167.900; -606.000; -413.000
275.938;   73.100;  215.000;  323.000
276.078; -189.700; -626.000; -395.000
276.218;    9.100;   99.000;  104.000
276.359; -262.000;-1026.000;-1024.000
276.499; -142.900; -605.000; -446.000
276.639;  -49.700; -305.000; -151.000
276.779;  -81.500; -475.000; -357.000
276.919; -230.700; -783.000; -624.000
277.059;  -52.900; -261.000; -212.000
277.199; -109.200; -357.000; -259.000
277.340;   66.900;  287.000;  175.000
277.480; -230.100; -840.000; -693.000
277.620;   69.900;  192.000;   16.000
277.760; -408.900;-1533.000;-1294.000
277.900;   35.600;  113.000;   33.000
278.040;   36.200;  137.000;  159.000
278.180;   69.800;  270.000;  170.000
278.320;   21.200;   21.000;   56.000
278.460; -133.400; -443.000; -469.000
278.600; -218.600; -708.000; -598.000
278.740;  137.700;  448.000;  224.000
278.880; -207.800; -768.000; -791.000
279.020;  -11.500; -194.000; -144.000
279.160; -167.000; -672.000; -595.000
279.300; -224.200; -926.000; -873.000
279.440; -192.000; -709.000; -622.000
279.579; -181.600;-1014.000; -929.000
279.719; -133.700; -410.000; -394.000
279.859;   62.700;   -4.000;   41.000
279.999;    1.300; -208.000;  101.000
280.139;  -77.400; -435.000; -387.000
280.279; -216.400; -708.000; -745.000
280.419;  -19.800; -229.000; -147.000
280.559;  -67.900; -259.000; -180.000
280.698; -162.500; -790.000; -639.000
280.838; -221.100; -778.000; -800.000
280.978; -179.900; -846.000; -790.000
281.118; -241.200; -811.000; -704.000
281.257;   38.500;   24.000;    6.000
281.397; -285.500;-1094.000; -960.000
281.537; -208.000; -599.000; -712.000
281.677;  -67.700; -150.000; -101.000
281.816; -164.100; -700.000; -630.000
281.956;  -55.100; -193.000; -257.000
282.096;  -87.100; -539.000; -396.000
282.235; -208.400; -672.000; -638.000
282.375;  -50.800; -243.000;  -98.000
282.515; -178.800; -715.000; -707.000
282.654;   38.800;   29.000;  106.000
282.794;   38.000;  388.000;  244.000
282.934;  -70.100; -530.000; -491.000
283.073; -251.200;-1030.000; -857.000
283.213;  -69.900; -460.000; -467.000
283.353;  -92.800; -408.000; -349.000
283.492;  -52.100; -264.000; -296.000
283.632;  -92.600; -254.000; -168.000
283.771; -191.700; -859.000; -730.000
283.911; -122.200; -369.000; -260.000
284.050; -220.800; -794.000; -748.000
284.190; -313.000;-1229.000;-1096.000
284.329; -251.000;-1055.000; -964.000
284.469; -172.900; -516.000; -591.000
284.608; -103.600; -559.000; -598.000
284.748; -191.100; -614.000; -570.000
284.887;   15.200;  -87.000;  -20.000
285.027; -258.000; -844.000; -892.000
285.166;  -52.800; -192.000; -249.000
285.306;  -30.000; -116.000;  -33.000
285.445;  -60.300; -229.000; -343.000
285.584; -177.200; -630.000; -494.000
285.724;  -67.400; -282.000; -322.000
285.863; -234.300; -857.000; -507.000
286.002;  -61.100; -366.000; -276.000
286.142; -234.700; -715.000; -622.000
286.281; -124.900; -525.000; -493.000
286.420; -152.800; -554.000; -417.000
286.560;  201.900;  653.000;  623.000
286.699; -284.600; -958.000; -912.000
286.838; -166.900; -590.000; -591.000
286.978; -203.600; -533.000; -537.000
287.117; -253.400;-1085.000; -950.000
287.256;  -47.200; -228.000; -211.000
287.395;  -85.000; -197.000; -378.000
287.535;  -96.000; -370.000; -298.000
287.674; -165.200; -509.000; -484.000
287.813;  115.800;  661.000;  533.000
287.952; -267.700;-1010.000; -871.000
288.091; -307.100;-1049.000; -915.000
288.231;   33.500;   13.000;   15.000
288.370; -334.700;-1217.000;-1200.000
288.509; -162.100; -728.000; -645.000
288.648; -172.100; -770.000; -548.000
288.787;  -49.000; -243.000;  -87.000
288.926; -140.100; -454.000; -475.000
289.065;  263.700;  859.000;  672.000
289.204;  -95.400; -377.000; -217.000
289.344; -192.800; -791.000; -690.000
289.483;   46.400;  416.000;  304.000
289.622;  -39.000; -291.000; -149.000
289.761;  -32.600; -309.000; -166.000
289.900; -201.500; -785.000; -626.000
290.039;  -29.600;  -12.000;  -95.000
290.178;  -58.000; -274.000; -180.000
290.317; -150.600; -618.000; -479.000
290.456; -131.800; -463.000; -451.000
290.595; -255.500; -961.000; -833.000
290.734; -273.200; -904.000; -891.000
290.873; -149.700; -456.000; -420.000
291.011; -212.700; -833.000; -843.000
291.150; -207.600; -770.000; -682.000
291.289;  -38.900; -343.000; -110.000
291.428; -198.900; -599.000; -480.000
291.567; -104.400; -370.000; -442.000
291.706;  -38.700;  109.000;  154.000
291.845; -168.500; -597.000; -505.000
291.984; -345.100;-1234.000;-1061.000
292.122;  163.800;  602.000;  582.000
292.261;   80.700;  620.000;  463.000
292.400;   39.700; -144.000;  211.000
292.539; -250.200; -959.000; -813.000
292.678;  -32.200; -325.000; -300.000
292.816; -339.700;-1136.000; -965.000
292.955; -167.100; -844.000; -684.000
293.094;  -57.500; -173.000; -337.000
293.233;  -72.600; -556.000; -400.000
293.371;  -49.200; -225.000;  -84.000
293.510; -221.800; -866.000; -780.000
293.649; -278.800; -959.000; -924.000
293.787; -221.000;-1083.000;-1012.000
293.926;  -11.800; -113.000;  -32.000
294.065;  -67.800; -379.000; -290.000
294.203;   60.500;  298.000;  406.000
294.342;   39.600;   74.000;  156.000
294.481;11581.700;51180.000; -836.000
294.619;  -24.400; -425.000; -582.000
294.758; -297.900;-1230.000;-1137.000
294.896;   29.200; -125.000;    5.000
295.035; -252.000;-1040.000;-1006.000
295.174; -250.700;-1082.000; -954.000
295.312; -108.500; -323.000; -203.000
295.451;  -62.000; -307.000; -428.000
295.589; -165.900; -389.000; -518.000
295.728;   17.500; -292.000; -165.000
295.866;  -35.900;  -36.000;  -51.000
296.005; -128.700; -584.000; -341.000
296.143; -162.800; -558.000; -596.000
296.282; -206.500; -957.000; -881.000
296.420; -198.000; -657.000; -557.000
296.559; -168.500; -892.000; -633.000
296.697; -114.500; -847.000; -665.000
296.835; -146.200;-1141.000;-1002.000
296.974;   65.500;  -23.000;   39.000
297.112;  -32.800; -443.000; -504.000
297.251; -174.400; -815.000; -755.000
297.389;   13.800; -576.000; -438.000
297.527;    1.200; -145.000;  -83.000
297.666; -135.100; -486.000; -438.000
297.804; -104.400; -404.000; -264.000
297.942;    8.100; -136.000; -161.000
298.081;  -46.900; -183.000;   63.000
298.219;   48.600;  -17.000;  -19.000
298.357;   41.000; -144.000;  -71.000
298.495; -131.600; -810.000; -812.000
298.634;   66.900;  245.000;  219.000
298.772;    5.000; -220.000; -338.000
298.910; -111.200; -309.000; -182.000
299.048;  -46.400; -130.000; -153.000
299.187;  -73.400; -350.000; -250.000
299.325;   33.000;   52.000;  122.000
299.463;  -66.000; -389.000; -299.000
299.601;   66.500; -327.000; -271.000
299.739; -251.500; -908.000; -883.000
299.877; -171.000; -791.000; -703.000
300.016; -201.500;-1095.000; -935.000
300.154;  114.900;  -19.000; -161.000
300.292;  -55.300; -428.000; -348.000
300.430;  -42.300; -408.000; -291.000
300.568; -239.900; -940.000; -874.000
300.706;  -85.900; -366.000; -469.000
300.844; -266.100;-1108.000; -979.000
300.982;  139.500;  246.000;  282.000
301.120; -244.100; -965.000; -866.000
301.258; -170.000; -812.000; -705.000
301.396;   24.600;  104.000;  -41.000
301.534;    1.300; -218.000; -293.000
301.672; -139.800; -664.000; -521.000
301.810;  -80.200; -613.000; -545.000
301.948;  100.500;   53.000;  149.000
302.086;  431.100; -250.000;  -32.000
302.224;  599.100; -610.000; -585.000
302.362;  -72.800; -558.000; -622.000
302.500; -197.300; -923.000; -893.000
302.638;   80.900;  128.000;  245.000
302.776;  -53.400; -352.000; -408.000
302.913;  135.400;  447.000;  236.000
303.051;  -30.300;  -86.000;  -23.000
303.189;   78.400;   90.000;  118.000
303.327;  -79.400; -341.000; -256.000
303.465; -182.800; -832.000; -588.000
303.603; -214.500; -805.000; -604.000
303.740;  171.400;  417.000;  241.000
303.878; -112.500; -800.000; -759.000
304.016; -182.400; -915.000; -790.000
304.154; -323.500;-1123.000;-1152.000
304.291; -132.900; -505.000; -554.000
304.429;   15.000;  102.000;   74.000
304.567; -263.200; -908.000; -893.000
304.705; -159.700; -408.000; -515.000
304.842;  -60.000; -616.000; -540.000
304.980;   63.100;  215.000;   35.000
305.118;    8.900; -367.000; -365.000
305.255; -205.000; -945.000; -927.000
305.393;  113.100;  178.000;  239.000
305.531; -284.500;-1173.000; -956.000
305.668; -162.600; -663.000; -582.000
305.806;   -5.900; -358.000; -439.000
305.943;  -11.500; -629.000; -637.000
306.081;  -19.500; -378.000; -267.000
306.219; -204.000; -863.000; -748.000
306.356;   25.700;  158.000;   27.000
306.494;  305.500;  981.000;  761.000
306.631;   29.600;  -11.000;  -55.000
306.769;    2.800; -613.000; -485.000
306.906;  -59.800; -284.000; -258.000
307.044;  -47.700; -473.000; -488.000
307.181; -128.200; -410.000; -332.000
307.319;  125.000;  112.000;   87.000
307.456; -336.500;-1191.000;-1153.000
307.594; -193.700; -980.000; -727.000
307.731;  -49.700; -371.000; -164.000
307.868;   -7.000;  -15.000;   20.000
308.006; -268.600; -961.000; -847.000
308.143;  -98.200; -618.000; -330.000
308.281;  169.100;  -37.000; -254.000
308.418;  -59.200; -748.000; -640.000
308.555; -127.300; -400.000; -250.000
308.693; -107.000; -577.000; -573.000
308.830; -201.100; -712.000; -657.000
308.967;   17.400; -215.000;  -95.000
309.105;  -45.200; -507.000; -396.000
309.242;   64.700; -468.000; -367.000
309.379;  227.300; -577.000; -655.000
309.517; -142.000; -936.000; -948.000
309.654; -201.500; -910.000; -734.000
309.791; -109.300; -662.000; -580.000
309.928; -220.200; -977.000; -914.000
310.065;  276.900;  819.000;  697.000
310.203; -129.300; -825.000; -850.000
310.340;  -13.000; -465.000; -321.000
310.477; -108.900; -412.000; -516.000
310.614; -105.900; -383.000; -473.000
310.751;  -86.200; -427.000; -518.000
310.889;    2.700;    1.000;   11.000
311.026; -286.200;-1161.000; -939.000
311.163;  -62.300; -386.000; -380.000
311.300; -103.200; -512.000; -479.000
311.437;  -89.400; -658.000; -619.000
311.574; -301.600;-1226.000; -985.000
311.711;  -75.700; -595.000; -433.000
311.848;  -57.200; -380.000; -388.000
311.985;   23.100;  270.000;   93.000
312.122; -245.500; -932.000; -762.000
312.259; -192.200; -941.000; -994.000
312.396; -144.400; -508.000; -551.000
312.533; -114.200; -812.000; -790.000
312.670; -276.700;-1070.000; -898.000
312.807;  -16.400; -352.000; -367.000
312.944; -146.300; -513.000; -611.000
313.081;  -51.800; -150.000; -415.000
313.218; -220.900;-1111.000; -867.000
313.355;  -61.400; -531.000; -449.000
313.492;  -60.700; -455.000; -292.000
313.629;  237.200;  815.000;  735.000
313.766; -292.500;-1176.000;-1008.000
313.902;  -28.000; -186.000;   21.000
314.039;  -78.600; -372.000; -289.000
314.176;   92.500;  286.000;  192.000
314.313; -143.800; -569.000; -473.000
314.450; -172.200; -788.000; -684.000
314.587; -128.200; -468.000; -480.000
314.723;    1.100;  -78.000;  130.000
314.860;  102.900;  318.000;  332.000
314.997;   57.500;  223.000;  142.000
315.134;  -90.700; -385.000; -368.000
315.270;  -80.000; -480.000; -496.000
315.407; -277.000;-1094.000; -967.000
315.544; -114.300; -657.000; -538.000
315.681; -162.000; -681.000; -565.000
315.817;   11.600; -133.000; -176.000
315.954; -116.400; -613.000; -392.000
316.091; -268.700;-1045.000;-1023.000
316.227;  -33.000;  -71.000; -179.000
316.364;   13.700;   23.000;    6.000
316.500;  -72.200; -113.000; -300.000
316.637;  -56.100; -181.000; -302.000
316.774; -200.600; -625.000; -358.000
316.910; -145.700; -598.000; -629.000
317.047; -121.500; -487.000; -351.000
317.183;  -78.400; -435.000; -566.000
317.320; -116.700; -367.000; -321.000
317.456; -161.800; -733.000; -805.000
317.593; -171.000; -598.000; -641.000
317.729;   20.700;  168.000;  -67.000
317.866; -384.200;-1434.000;-1285.000
318.002; -163.100; -708.000; -948.000
318.139; -220.300; -883.000; -867.000
318.275; -201.700;-1003.000; -738.000
318.412; -135.200; -517.000; -336.000
318.548; -109.400; -751.000; -720.000
318.685; -210.500; -985.000; -888.000
318.821; -187.400; -762.000; -735.000
318.957;  -21.800;   34.000;  -23.000
319.094;   82.900;  297.000;  154.000
319.230; -200.900; -756.000; -742.000
319.367;   57.700; -471.000; -520.000
319.503;    9.400; -538.000; -436.000
319.639; -162.700; -877.000; -793.000
319.775; -161.400; -750.000; -685.000
319.912;  -97.100; -424.000; -519.000
320.048; -274.300;-1184.000;-1184.000
320.184;  106.600;   59.000;   70.000
320.321;  -89.300; -497.000; -467.000
320.457;  154.900;  475.000;  662.000
320.593; -109.500; -375.000; -382.000
320.729; -189.400; -732.000; -734.000
320.866; -175.700; -577.000; -635.000
321.002; -167.100; -759.000; -809.000
321.138;  -52.100; -135.000; -211.000
321.274;   25.300; -148.000; -115.000
321.410; -101.400; -585.000; -353.000
321.546; -169.100;-1011.000; -911.000
321.683;   94.900;  400.000;  185.000
321.819;   25.000;  -48.000; -117.000
321.955; -225.300; -743.000; -722.000
322.091; -104.800; -585.000; -540.000
322.227;  -47.400; -382.000; -202.000
322.363;  -52.700; -320.000; -215.000
322.499; -120.200; -343.000; -331.000
322.635;  250.600;  636.000;  443.000
322.771;  -22.400; -139.000;   12.000
322.907;  164.700;  129.000;  327.000
323.043;  -59.500; -115.000; -206.000
323.179;  -92.600; -394.000; -363.000
323.315;  -77.300; -401.000; -371.000
323.451;    4.400; -328.000; -236.000
323.587;   -8.600;  -60.000;  -77.000
323.723; -119.900; -682.000; -601.000
323.859;  -47.300; -258.000;  -76.000
323.995;  -66.600; -467.000; -409.000
324.131; -249.000; -967.000; -892.000
324.267;  -39.600; -254.000; -276.000
324.402; -278.200; -960.000; -983.000
324.538;  -46.000; -279.000; -104.000
324.674;   15.700;  164.000;   77.000
324.810;  149.400;  226.000;  308.000
324.946;  -40.300; -810.000; -658.000
325.082; -121.100; -568.000; -475.000
325.217;   -0.700;  -62.000;   16.000
325.353; -204.400; -764.000; -659.000
325.489; -159.300; -540.000; -506.000
325.625; -139.400; -579.000; -525.000
325.760;  118.200;  517.000;  376.000
325.896;  -93.900; -515.000; -702.000
326.032; -105.600; -403.000; -352.000
326.168; -102.200; -462.000; -369.000
326.303; -128.100; -352.000; -461.000
326.439;  -20.700; -336.000; -276.000
326.575;  -33.100; -190.000;  -29.000
326.710;  -24.200; -156.000;  -30.000
326.846;  -31.800;  146.000;  103.000
326.982; -175.400; -530.000; -548.000
327.117; -155.600; -481.000; -442.000
327.253; -187.100; -745.000; -742.000
327.388; -309.500;-1137.000;-1153.000
327.524; -124.600; -811.000; -578.000
327.659;  -37.400;  -58.000;  -22.000
327.795;  -20.600;   69.000;   45.000
327.931; -178.200; -723.000; -499.000
328.066;  -67.400; -417.000; -276.000
328.202;  -28.000;   12.000; -129.000
328.337;  213.100;  957.000;  713.000
328.473;  -34.100;  -12.000;  -74.000
328.608;  -45.300; -256.000; -267.000
328.743; -232.700; -799.000; -664.000
328.879;   75.600;  214.000;  114.000
329.014; -115.500; -102.000; -122.000
329.150; -121.400; -358.000; -483.000
329.285; -153.900; -465.000; -466.000
329.421; -108.100; -548.000; -246.000
329.556;   -5.800;  -36.000;   85.000
329.691; -168.900; -633.000; -615.000
329.827; -155.000; -626.000; -480.000
329.962;  -83.700;  131.000; -301.000
330.097; -165.900; -673.000; -585.000
330.233;  -71.700; -410.000; -223.000
330.368; -245.200; -839.000; -628.000
330.503;  -14.400;    3.000;   98.000
330.638;    2.600;  -93.000; -125.000
330.774; -100.700; -609.000; -530.000
330.909;  -90.300; -434.000; -244.000
331.044; -181.800; -714.000; -708.000
331.179; -366.900;-1217.000;-1109.000
331.315;    9.700;   77.000;   20.000
331.450;   64.600;  157.000;  285.000
331.585; -165.300; -805.000; -706.000
331.720; -181.100; -510.000; -460.000
331.855;   -9.700;  -35.000; -102.000
331.990;  184.900;   62.000;  138.000
332.126;  131.100; -110.000;   71.000
332.261;  -71.200; -379.000; -265.000
332.396;  -24.000; -135.000; -242.000
332.531; -267.300;-1074.000;-1031.000
332.666;  -36.000; -519.000; -363.000
332.801; -246.800; -726.000; -807.000
332.936;  -28.100; -192.000; -122.000
333.071; -293.300; -870.000; -817.000
333.206;   61.500;  307.000;  379.000
333.341;   86.000;  344.000;  418.000
333.476; -182.300; -627.000; -623.000
333.611;  -92.200; -251.000; -173.000
333.746;  -61.700; -381.000; -464.000
333.881; -300.400; -973.000; -935.000
334.016; -250.200; -936.000; -917.000
334.151; -249.700; -746.000; -702.000
334.286;   72.600;  152.000;  186.000
334.421;  -20.900; -125.000; -178.000
334.556; -149.400; -611.000; -567.000
334.690; -189.500; -631.000; -577.000
334.825;  147.500;  381.000;   83.000
334.960; -136.300; -285.000; -413.000
335.095;   45.800;  135.000;  -91.000
335.230; -203.600; -722.000; -738.000
335.365; -257.700;-1084.000; -990.000
335.499; -303.700;-1108.000;-1037.000
335.634;   28.000;    9.000;  534.000
335.769; -258.700; -755.000; -720.000
335.904; -140.400; -603.000; -561.000
336.038; -195.800; -735.000; -657.000
336.173; -275.500;-1206.000;-1194.000
336.308;  -42.800; -116.000; -189.000
336.443;  -54.400; -544.000; -634.000
336.577; -213.000; -936.000; -787.000
336.712;   39.300;   -4.000;  -12.000
336.847; -207.000; -724.000; -607.000
336.981;  -35.200; -272.000; -208.000
337.116;  257.100;  615.000;  501.000
337.250;   13.800; -434.000; -421.000
337.385;  135.400; -297.000; -208.000
337.520;  -36.500; -632.000; -603.000
337.654;  -91.200; -215.000; -126.000
337.789; -256.400; -989.000; -933.000
337.923;  -70.800; -104.000; -205.000
338.058; -164.300; -673.000; -738.000
338.192; -138.600; -611.000; -488.000
338.327;  -49.000;  -18.000; -155.000
338.461; -137.400; -299.000; -469.000
338.596; -170.000; -780.000; -638.000
338.730; -215.900; -767.000; -803.000
338.865;   63.900;  -46.000; -140.000
338.999; -197.700; -846.000; -702.000
339.134; -143.600; -634.000; -536.000
339.268; -117.900; -741.000; -603.000
339.403;  114.200; -740.000; -775.000
339.537;  -99.200; -894.000; -820.000
339.671; -224.100; -829.000; -813.000
339.806; -130.700; -556.000; -512.000
339.940;  -32.000; -261.000; -235.000
340.074; -207.700; -685.000; -510.000
340.209;  -81.600; -351.000; -230.000
340.343; -189.100; -517.000; -573.000
340.477;  333.000;  998.000; 1036.000
340.612; -215.100;-1033.000; -900.000
340.746;   73.800; -199.000; -243.000
340.880; -206.000; -924.000; -785.000
341.014;  -31.100;  -45.000; -154.000
341.149; -218.100; -756.000; -718.000
341.283; -219.000; -839.000; -754.000
341.417; -273.400;-1124.000; -938.000
341.551;   -4.400; -768.000; -708.000
341.685; -156.200; -633.000; -611.000
341.820; -134.900; -562.000; -493.000
341.954; -118.800; -218.000; -349.000
342.088; -290.700;-1102.000;-1019.000
342.222;   80.300;  565.000;  618.000
342.356; -108.700; -395.000; -335.000
342.490; -235.300; -880.000; -841.000
342.624;  -88.200; -339.000; -242.000
342.758;  -75.200; -364.000; -312.000
342.892; -167.600; -710.000; -585.000
343.026;  -83.500;  -58.000; -116.000
343.160; -100.500; -426.000; -376.000
343.294; -145.600; -474.000; -337.000
343.428;  -89.100; -488.000; -448.000
343.562;  -29.400; -172.000;  -23.000
343.696;  -66.700; -385.000; -314.000
343.830;  -68.100; -362.000; -356.000
343.964;   -7.400; -231.000; -168.000
344.098;  762.800;  199.000;   70.000
344.232;  642.200; -266.000; -127.000
344.366;  -31.200; -567.000; -453.000
344.500;  -55.700; -665.000; -744.000
344.634;  -37.700; -324.000; -164.000
344.768;  -75.700; -531.000; -341.000
344.902;   45.100;  278.000;  256.000
345.035; -135.100; -556.000; -496.000
345.169; -277.300; -933.000; -656.000
345.303;  -84.300; -308.000; -482.000
345.437; -199.100; -826.000; -717.000
345.571; -129.900; -675.000; -594.000
345.704; -130.200; -309.000; -532.000
345.838;  -43.900; -331.000; -284.000
345.972; -126.400; -543.000; -495.000
346.106;   83.300; -179.000; -190.000
346.239;  250.700; -312.000; -243.000
346.373;  -75.800; -343.000; -302.000
346.507; -297.600; -950.000; -962.000
346.640;   66.900;  -30.000;   13.000
346.774; -170.500; -650.000; -797.000
346.908;  -16.600; -138.000;  -11.000
347.041; -175.000; -646.000; -593.000
347.175;   33.900;  259.000;   27.000
347.309; -196.100; -698.000; -628.000
347.442; -208.900; -883.000; -732.000
347.576;  305.600;  670.000;  668.000
347.709;  192.300; -123.000;  -52.000
347.843; -260.900; -933.000; -825.000
347.976;  108.400;  235.000;  294.000
348.110; -370.100;-1268.000;-1186.000
348.243; -199.600; -679.000; -772.000
348.377;  -24.300;  -26.000;   60.000
348.510;  140.000;  403.000;  540.000
348.644;  -60.000;  -37.000; -159.000
348.777;   40.400;  180.000;  191.000
348.911;  -80.400; -142.000; -112.000
349.044;  244.500;  471.000;  448.000
349.178;  -57.100;-1069.000;-1006.000
349.311;  184.000;  141.000;  255.000
349.444; -174.000; -927.000; -813.000
349.578;  -40.800; -347.000; -200.000
349.711; -244.600; -959.000; -862.000
349.845;  -97.000; -661.000; -591.000
349.978; -328.400;-1224.000;-1137.000
350.111; -128.600; -546.000; -612.000
350.244; -186.200; -596.000; -700.000
350.378;  -46.100; -392.000; -393.000
350.511; -140.800; -393.000; -426.000
350.644; -225.800; -808.000; -806.000
350.778;   -4.300;  168.000;  104.000
350.911;   29.400;  134.000;  140.000
351.044; -202.700; -685.000; -615.000
351.177;  -22.500; -321.000; -281.000
351.310;   -0.600;    3.000; -131.000
351.444; -177.500; -888.000; -788.000
351.577;  111.300;  140.000;   90.000
351.710;  209.100;  593.000;  417.000
351.843;  -59.300; -165.000;  -77.000
351.976;   20.100;  149.000;  -79.000
352.109; -184.200; -621.000; -612.000
352.242;  -70.000; -464.000; -419.000
352.376; -159.600; -580.000; -636.000
352.509;   53.700; -437.000; -356.000
352.642; -184.300; -654.000; -604.000
352.775;   -2.800; -141.000;  -98.000
352.908; -278.900; -933.000; -904.000
353.041; -217.800; -814.000; -824.000
353.174; -141.300; -551.000; -424.000
353.307; -161.700; -753.000; -764.000
353.440;  114.700;  541.000;  453.000
353.573; -261.200; -957.000;-1008.000
353.706; -183.900; -384.000; -558.000
353.839;  -68.000; -264.000; -220.000
353.971; -215.800; -657.000; -512.000
354.104; -183.200; -896.000; -835.000
354.237; -163.500; -627.000; -662.000
354.370; -185.400; -846.000; -879.000
354.503; -334.700;-1231.000;-1308.000
354.636;  -74.300; -529.000; -348.000
354.769; -256.100; -937.000; -860.000
354.902;   -2.600; -230.000; -139.000
355.034;  -54.200; -164.000; -220.000
355.167;  -55.500; -262.000; -162.000
355.300; -274.800;-1061.000; -880.000
355.433;  659.700;  -71.000;  -14.000
355.565;  889.400; -402.000; -384.000
355.698;  203.400; -356.000; -296.000
355.831; -157.700; -882.000; -801.000
355.964;    4.100; -285.000; -170.000
356.096; -225.200; -856.000; -843.000
356.229;  -82.000; -523.000; -530.000
356.362;  165.200; -373.000; -266.000
356.494;  364.700; -229.000; -162.000
356.627;  391.900;  269.000;  377.000
356.760;  471.300;  120.000;   53.000
356.892;  481.100; -286.000; -601.000
357.025;  536.100;  403.000;  389.000
357.157;  397.800; -167.000; -179.000
357.290;  412.800; -856.000; -713.000
357.423;   72.600; -667.000; -556.000
357.555;   66.800; -217.000; -228.000
357.688;  -17.600; -483.000; -364.000
357.820;  189.900; -870.000; -877.000
357.953; 2638.600; -563.000; -589.000
358.085;  467.800; -632.000; -612.000
358.218;  593.100;-1131.000; -932.000
358.350;  137.700;  -58.000;  312.000
358.483; -291.800;-1300.000;-1187.000
358.615; -220.800;-1182.000;-1078.000
358.747; -270.100;-1187.000;-1058.000
358.880;  -96.300; -810.000; -744.000
359.012;  -78.900; -376.000; -202.000
359.145;  -81.900; -480.000; -511.000
359.277; -137.200; -962.000; -913.000
359.409; 2307.100;  536.000;  231.000
359.542;  419.200; -738.000; -688.000
359.674;   42.300;   46.000;   13.000
359.806; -143.900; -565.000; -438.000
359.939;  -98.000; -617.000; -516.000
360.071; -140.800; -583.000; -579.000
360.203;  -47.900; -411.000; -364.000
360.335;   28.800;  164.000;  -16.000
360.468;  129.400; -249.000; -307.000
360.600; 1702.500; -547.000; -454.000
360.732; 1814.500; -546.000; -423.000
360.864;   -3.700;-1216.000;-1044.000
360.996;  112.000; -516.000; -554.000
361.129;  -81.900; -389.000; -598.000
361.261;   53.300;  110.000; -113.000
361.393;  -74.500; -252.000; -214.000
361.525;   47.500;   94.000;  244.000
361.657; -169.500; -821.000; -703.000
361.789;  -17.100; -139.000; -155.000
361.921;   68.200; -642.000; -593.000
362.053;  282.600;  524.000;  541.000
362.185;   52.000;  288.000;   72.000
362.318; -202.000; -709.000; -705.000
362.450;  144.800;  294.000;  444.000
362.582;  -58.100; -913.000; -870.000
362.714; -111.900; -353.000; -332.000
362.846; -123.400; -606.000; -490.000
362.978; -289.200; -941.000; -811.000
363.109;    4.000; -161.000; -260.000
363.241;  141.900; -739.000; -749.000
363.373;  167.200; -649.000; -564.000
363.505;  421.300; -186.000;  -91.000
363.637;   32.300; -787.000; -601.000
363.769; -300.400;-1067.000;-1080.000
363.901; -161.300; -596.000; -654.000
364.033; -318.500;-1103.000;-1062.000
364.165;  -23.600; -283.000; -283.000
364.296;  -15.400; -316.000; -177.000
364.428; -196.000;-1344.000;-1220.000
364.560; -188.100; -679.000; -661.000
364.692; -149.600; -738.000; -835.000
364.824;   78.000; -588.000; -456.000
364.955;  225.900; -402.000; -564.000
365.087;  393.800;-1097.000; -852.000
365.219;  -91.000; -686.000; -816.000
365.351; -164.500; -526.000; -572.000
365.482;   90.900;  300.000;  240.000
365.614;  -85.800; -402.000; -314.000
365.746; -192.000; -729.000; -752.000
365.877; -224.600; -706.000; -672.000
366.009;  218.300;  -35.000;  -62.000
366.141; -282.800;-1249.000;-1134.000
366.272; -239.800; -803.000; -719.000
366.404; -265.000;-1005.000; -874.000
366.535;   20.200; -139.000;  -12.000
366.667; -189.900; -644.000; -649.000
366.799;   96.200;  353.000;  203.000
366.930; -270.500; -862.000; -996.000
367.062;   -0.400; -639.000; -613.000
367.193;  -89.000; -872.000; -842.000
367.325; -108.700; -580.000; -684.000
367.456;  -21.200; -246.000;   31.000
367.588;   40.800; -371.000; -318.000
367.719;   -8.500;  -44.000;  -45.000
367.851;  -67.200; -222.000; -241.000
367.982; -206.100; -875.000; -732.000
368.113;   50.600; -475.000; -358.000
368.245; -269.700; -960.000; -841.000
368.376;  -47.300; -254.000; -302.000
368.508;  -81.500; -188.000; -263.000
368.639; -281.700;-1166.000;-1034.000
368.770; -159.200; -670.000; -589.000
368.902; -168.900; -836.000; -926.000
369.033; -281.700; -906.000; -855.000
369.164; -139.800; -720.000; -653.000
369.296; -220.600; -452.000; -601.000
369.427;   -3.000; -209.000; -144.000
369.558; -119.800; -593.000; -377.000
369.689; -145.200; -721.000; -569.000
369.821; -243.400; -951.000; -845.000
369.952;    6.100;   42.000; -108.000
370.083; -111.700; -229.000; -108.000
370.214; -167.600; -735.000; -650.000
370.345;   -6.300;   65.000;   81.000
370.477; -188.000; -810.000; -790.000
370.608;  183.500; -328.000; -264.000
370.739; -218.800;-1233.000;-1292.000
370.870; -202.200;-1102.000; -923.000
371.001;   14.700; -378.000; -467.000
371.132; -191.400; -754.000; -735.000
371.263;  -20.400;  -42.000; -148.000
371.394; -252.600; -841.000; -748.000
371.525;   84.200;  345.000;  225.000
371.657; -204.400; -808.000; -670.000
371.788;  119.200;  103.000;  199.000
371.919;   40.900; -384.000; -304.000
372.050; 3098.400;  -91.000; -156.000
372.181;  854.000; -188.000; -294.000
372.311;  312.500;   42.000; -127.000
372.442;  -55.100; -457.000; -451.000
372.573;  -51.400; -444.000; -340.000
372.704; -285.700;-1008.000; -980.000
372.835;   -2.300; -228.000; -289.000
372.966; -170.600; -646.000; -554.000
373.097; -175.600; -575.000; -711.000
373.228; -147.100; -717.000; -542.000
373.359;   16.500; -824.000; -536.000
373.490;  548.000; -881.000; -727.000
373.620;  729.700;-1001.000; -803.000
373.751; 1443.700; -332.000; -396.000
373.882;  559.600; -663.000; -733.000
374.013;    8.700; -449.000; -262.000
374.143; -125.800; -581.000; -659.000
374.274; -270.600; -987.000; -908.000
374.405;   69.200; -388.000; -276.000
374.536;  287.700; -526.000; -387.000
374.666;  812.200; -759.000; -807.000
374.797;   43.600; -817.000; -868.000
374.928;  539.200; -710.000; -560.000
375.058;  513.100; -535.000; -500.000
375.189;   38.200;  -59.000;  -93.000
375.320; -263.800; -928.000;-1034.000
375.450; -159.000; -625.000; -616.000
375.581; -126.500; -526.000; -436.000
375.712;  -61.200; -574.000; -250.000
375.842;  127.900; -438.000; -415.000
375.973;   54.500; -554.000; -513.000
376.103; -158.500; -665.000; -648.000
376.234; -166.900; -531.000; -552.000
376.364; -192.300; -944.000; -867.000
376.495;  361.000;  925.000;  529.000
376.625;  -85.500; -472.000; -485.000
376.756;  -98.200; -709.000; -678.000
376.886; -257.500;-1178.000;-1026.000
377.017; -124.100;-1048.000;-1061.000
377.147;   47.100; -786.000; -782.000
377.278;   79.700;  174.000;  228.000
377.408; -260.200; -801.000; -815.000
377.538; -186.000; -707.000; -693.000
377.669; -174.700; -537.000; -613.000
377.799; -183.700; -645.000; -635.000
377.929; -152.400; -610.000; -428.000
378.060; -252.800; -781.000; -847.000
378.190; -172.300; -726.000; -531.000
378.320;  -78.700; -401.000; -406.000
378.451;   18.000; -131.000;  -22.000
378.581;  -14.800;  -67.000; -110.000
378.711;  225.600; 1035.000;  866.000
378.841; -103.800; -533.000; -675.000
378.972; -216.800; -871.000; -751.000
379.102;  -69.800; -652.000; -579.000
379.232;  -58.100; -126.000;  -73.000
379.362; -259.300;-1001.000; -885.000
379.492;  -82.100; -373.000; -424.000
379.623;  112.700;    0.000;  111.000
379.753; -267.400;-1107.000; -974.000
379.883;  236.200;   59.000;  156.000
380.013; -188.600;-1081.000;-1017.000
380.143; -257.000;-1097.000;-1056.000
380.273; -249.800; -985.000; -861.000
380.403;  -44.900; -344.000; -257.000
380.533; -181.100; -651.000; -664.000
380.663;   74.100;  173.000;  128.000
380.793; -264.300;-1027.000;-1074.000
380.923;  -33.100; -103.000;  -34.000
381.053; -191.700; -613.000; -623.000
381.183;  -34.700; -106.000; -248.000
381.313;  -46.900; -656.000; -470.000
381.443;  -54.300; -692.000; -473.000
381.573;   64.600; -402.000; -409.000
381.703;   28.800;-1249.000;-1095.000
381.833; -346.500;-1454.000;-1336.000
381.963;   71.200; -134.000;  -87.000
382.093;  881.200; -925.000; -909.000
382.223;  203.700; -713.000; -602.000
382.353; -133.800; -801.000; -608.000
382.482;  137.400;-1091.000; -964.000
382.612;  478.600; -872.000; -644.000
382.742;  206.700; -695.000; -622.000
382.872;   63.600; -565.000; -551.000
383.002;   84.600;  347.000; -132.000
383.131; -100.700; -226.000; -160.000
383.261; -130.300; -706.000; -768.000
383.391;   97.400; -552.000; -377.000
383.521; 2339.500;  451.000;  263.000
383.650;  316.500; -947.000; -904.000
383.780; -115.400; -783.000; -656.000
383.910;  179.300;  880.000;  802.000
384.039;  -86.400; -794.000; -656.000
384.169;  -86.500;-1205.000;-1017.000
384.299; -110.400; -650.000; -662.000
384.428; -245.400; -764.000; -680.000
384.558;  -39.300; -308.000; -275.000
384.687;  -97.300; -414.000; -334.000
384.817;   42.400;   75.000;   -2.000
384.947;  -24.100; -234.000; -141.000
385.076;  353.200;  982.000;  912.000
385.206;  122.100;  369.000;  480.000
385.335;  -97.800; -549.000; -417.000
385.465; -207.200; -655.000; -663.000
385.594;  120.900;  -53.000;  -44.000
385.724;  195.500; -868.000; -838.000
385.853;   34.800; -296.000; -270.000
385.982; 1033.300; -743.000; -787.000
386.112; 1649.700;-1052.000; -871.000
386.241;   55.900; -307.000; -312.000
386.371;   -6.800; -174.000;  -87.000
386.500; -154.300; -825.000; -789.000
386.629; -108.200; -874.000; -817.000
386.759;    1.100;  -43.000;   68.000
386.888;  -31.900; -170.000; -250.000
387.017; -219.400; -648.000; -620.000
387.147; -208.700; -771.000; -798.000
387.276;  -79.700; -410.000; -397.000
387.405;  -48.000; -398.000; -342.000
387.535; -120.400; -452.000; -361.000
387.664; -137.800; -692.000; -620.000
387.793;  -13.100; -198.000; -113.000
387.922;  454.500;  255.000;  200.000
388.052; -111.600; -576.000; -423.000
388.181;  -68.100; -342.000; -472.000
388.310; -136.500; -889.000; -710.000
388.439; -143.000; -749.000; -742.000
388.568;  205.800;  365.000;  244.000
388.697;  776.600; -756.000; -653.000
388.826;   35.700; -768.000; -666.000
388.956;   13.000; -285.000; -307.000
389.085;  -72.200; -347.000; -287.000
389.214; -188.900; -842.000; -872.000
389.343; -159.100; -645.000; -413.000
389.472;  334.700;  126.000;  149.000
389.601;  418.800;   91.000;    0.000
389.730;  -64.600; -568.000; -687.000
389.859;  108.300;  226.000;   46.000
389.988;  125.400; -423.000; -408.000
390.117;   31.300; -168.000; -146.000
390.246;  -41.600; -331.000; -320.000
390.375;  -48.400; -673.000; -626.000
390.504; -141.100; -703.000; -621.000
390.633; -214.200; -672.000; -726.000
390.761; -145.300; -732.000; -645.000
390.890;    7.500;   -4.000; -130.000
391.019;  -69.600; -421.000; -441.000
391.148; -243.900; -826.000; -855.000
391.277; -121.400; -576.000; -493.000
391.406; -206.000; -821.000; -805.000
391.534;   94.900;  574.000; -301.000
391.663; -156.200; -583.000; -645.000
391.792; -153.600; -673.000; -701.000
391.921;   90.700;   -3.000;   15.000
392.050;   94.600; -287.000; -228.000
392.178; -238.800;-1206.000;-1061.000
392.307;   29.500; -758.000; -712.000
392.436;  -83.800; -427.000; -641.000
392.564;   62.900;  166.000;   -6.000
392.693; -195.900; -860.000; -682.000
392.822;  110.800; -529.000; -534.000
392.950;  -57.000; -880.000; -714.000
393.079;  273.500; -188.000; -328.000
393.208;  -86.100; -488.000; -511.000
393.336;  -28.000; -170.000; -145.000
393.465;  -61.100; -317.000; -199.000
393.593;   65.500;   62.000;   79.000
393.722; -296.300;-1121.000; -916.000
393.850;  -43.000; -188.000;  -61.000
393.979; -287.900; -926.000; -805.000
394.107; -150.500; -517.000; -537.000
394.236; -117.900; -570.000; -507.000
394.364;  248.400;  383.000;  206.000
394.493;  159.700; -911.000; -767.000
394.621; -146.000; -955.000; -916.000
394.750;  283.500; -873.000; -923.000
394.878; 1870.000; -247.000; -149.000
395.007; 2321.500; -721.000; -807.000
395.135;   47.200; -790.000; -721.000
395.263; -289.100;-1038.000;-1040.000
395.392;   13.500;  -25.000; -107.000
395.520; -176.700; -818.000; -679.000
395.648; -189.400; -865.000; -915.000
395.777;  -64.800; -366.000; -405.000
395.905; -105.600; -449.000; -564.000
396.033;   17.000;  217.000;  172.000
396.162;  507.000; -399.000; -453.000
396.290;  476.700;  -17.000;   -2.000
396.418;  -16.400; -555.000; -514.000
396.546; -217.600; -571.000; -466.000
396.674; -217.500; -850.000; -878.000
396.803;   33.700;  -72.000;  -23.000
396.931;   27.400; -179.000; -199.000
397.059; -153.600;-1026.000; -989.000
397.187; -241.100;-1026.000; -975.000
397.315; -279.500; -884.000; -649.000
397.443; -146.700; -592.000; -443.000
397.572; -185.000; -578.000; -424.000
397.700; -114.500; -607.000; -614.000
397.828;  -12.800;  120.000;  -90.000
397.956; -137.300; -508.000; -478.000
398.084; -182.000; -767.000; -626.000
398.212;   36.800;  137.000;  124.000
398.340;   15.600;  -56.000;  159.000
398.468;  -41.900; -390.000; -169.000
398.596; -277.600; -993.000; -953.000
398.724; -226.900; -762.000; -767.000
398.852; -307.500;-1024.000; -976.000
398.980; -132.400; -560.000; -560.000
399.108; -174.600; -982.000; -735.000
399.236;   12.800;   13.000;    8.000
399.363;   12.700;  222.000;  196.000
399.491; -128.400; -404.000; -398.000
399.619; -272.600; -829.000; -800.000
399.747; -228.400; -859.000; -771.000
399.875;   52.200;  220.000;  234.000
400.003;  -81.200; -359.000; -284.000
400.130; -168.600; -421.000; -341.000
400.258;    7.900;  -83.000;   38.000
400.386;  -98.400; -352.000; -168.000
400.514; -108.200; -526.000; -587.000
400.641; -229.600; -928.000; -802.000
400.769; -262.100; -979.000; -888.000
400.897; -235.000; -838.000; -793.000
401.025;  -31.400; -166.000; -152.000
401.152;   14.600;  220.000;   38.000
401.280;  -93.900; -430.000; -429.000
401.408; -189.900; -712.000; -576.000
401.535; -206.500; -735.000; -758.000
401.663; -346.700;-1134.000;-1054.000
401.790; -143.200; -514.000; -525.000
401.918;   72.000;  436.000;  405.000
402.046;   25.100;  134.000;  122.000
402.173;  -34.200;  -18.000;    7.000
402.301;  -93.600; -519.000; -397.000
402.428;  103.300;  528.000;  383.000
402.556; -263.100;-1188.000; -913.000
402.683;  -45.700;  -20.000;   -1.000
402.811;   -8.000;  -37.000; -206.000
402.938;   11.100;   20.000;   27.000
403.066;   65.100; -574.000; -558.000
403.193;  251.900;  299.000;  239.000
403.321;   95.000; -396.000; -574.000
403.448;  263.000;   83.000;   27.000
403.575;  124.500;  -90.000;  -46.000
403.703; -211.100; -732.000; -557.000
403.830;  -98.000; -531.000; -496.000
403.957; -281.000;-1117.000;-1023.000
404.085;   -8.500;  -61.000; -172.000
404.212;   77.200;  -50.000;   63.000
404.339;  134.900; -566.000; -306.000
404.467; 3652.500; -612.000; -524.000
404.594; 2408.700; -287.000; -227.000
404.721;  426.600; -869.000; -764.000
404.848;   42.000; -113.000; -202.000
404.976; -249.700; -856.000; -783.000
405.103;   12.600;  -14.000;  -82.000
405.230;   23.300;  190.000;  226.000
405.357;   57.300;  117.000;   44.000
405.484;  159.000;  -49.000;    5.000
405.612;  -82.700; -548.000; -563.000
405.739; -130.500; -488.000; -243.000
405.866;  174.600;  669.000;  385.000
405.993;  -80.200; -398.000; -102.000
406.120; -237.500; -801.000; -887.000
406.247; -108.200; -323.000; -342.000
406.374;  439.600;  540.000;  629.000
406.501;  -89.000; -632.000; -702.000
406.628; -143.200; -621.000; -589.000
406.755; -219.800; -803.000; -620.000
406.882;  -45.800; -228.000; -277.000
407.009; -227.500; -719.000; -628.000
407.136;  -25.100; -480.000; -401.000
407.263; -100.500; -939.000; -829.000
407.390; -201.300; -692.000; -614.000
407.517; -340.400;-1139.000;-1187.000
407.644;  -91.100; -332.000; -256.000
407.771; -123.900; -249.000; -287.000
407.898;   47.400;  168.000;  328.000
408.025; -114.400; -421.000; -313.000
408.151;   10.600;   82.000;  153.000
408.278; -101.300; -267.000; -216.000
408.405; -238.800; -931.000; -899.000
408.532; -175.100; -549.000; -542.000
408.659; -207.800; -677.000; -648.000
408.785; -377.400;-1298.000;-1170.000
408.912;  -75.600; -412.000; -296.000
409.039; -187.300; -610.000; -686.000
409.166; -133.600; -591.000; -555.000
409.292; -169.600; -571.000; -534.000
409.419; -196.600; -665.000; -649.000
409.546; -148.700; -431.000; -192.000
409.672; -173.000; -713.000; -545.000
409.799;  -28.800;  -36.000;   34.000
409.926;  -53.700; -180.000; -179.000
410.052; -311.800;-1127.000;-1091.000
410.179; -101.400; -368.000; -392.000
410.305; -132.800; -375.000; -493.000
410.432;  -63.200; -220.000; -333.000
410.558; -145.500; -305.000; -380.000
410.685; -169.400; -688.000; -431.000
410.812; -178.400; -409.000; -588.000
410.938; -214.900; -964.000; -808.000
411.065; -172.200; -671.000; -645.000
411.191;  -42.800; -189.000; -174.000
411.317; -238.400; -823.000; -742.000
411.444;  -85.100; -317.000; -246.000
411.570; -142.700; -339.000; -294.000
411.697; -213.900; -758.000; -752.000
411.823; -322.200; -989.000; -999.000
411.949;  -22.800;  -56.000;   17.000
412.076; -196.700; -539.000; -519.000
412.202; -201.500; -758.000; -757.000
412.329; -239.400; -798.000; -752.000
412.455; -181.800; -821.000; -657.000
412.581;    2.100;  -15.000;  172.000
412.707; -156.200; -540.000; -457.000
412.834;   17.300;  156.000;  219.000
412.960; -178.800; -785.000; -784.000
413.086; -228.800; -743.000; -701.000
413.212;  198.800;  604.000;  578.000
413.339; -200.200; -685.000; -701.000
413.465;  -53.000; -364.000; -310.000
413.591; -217.700; -757.000; -474.000
413.717;  -64.400; -358.000; -366.000
413.843; -292.100; -839.000; -861.000
413.969; -119.600;  -47.000; -292.000
414.096; -201.400; -679.000; -679.000
414.222;   39.500;  -33.000;   85.000
414.348; -147.200; -652.000; -385.000
414.474;   31.700;   38.000;  -52.000
414.600;  -50.600; -126.000; -144.000
414.726;  -41.300;  -96.000;  -55.000
414.852; -139.900; -365.000; -342.000
414.978;   33.300;  104.000;  -18.000
415.104;    1.700;   38.000;   80.000
415.230;  -65.300; -329.000; -330.000
415.356;  -91.900; -409.000; -514.000
415.482;  122.000;   13.000;  -35.000
415.608;  165.000; -247.000; -323.000
415.734;  667.900;   67.000;   38.000
415.860;13806.900; -875.000; -767.000
415.986; 9025.500; -685.000; -607.000
416.111;  590.900; -798.000; -652.000
416.237;   75.400; -424.000; -571.000
416.363;  641.200; -765.000; -733.000
416.489; 2802.200; -324.000; -251.000
416.615;  116.800; -707.000; -742.000
416.741; -151.700; -677.000; -784.000
416.866; -214.500; -673.000; -736.000
416.992; -228.800; -801.000; -818.000
417.118;  -97.300;  -41.000;  -80.000
417.244; -155.700; -798.000; -531.000
417.369; -206.400; -801.000; -612.000
417.495;  -46.900; -325.000; -254.000
417.621; -241.100;-1015.000; -803.000
417.746; -104.500; -579.000; -572.000
417.872;    0.500; -254.000; -144.000
417.998;  -49.800; -515.000; -530.000
418.123;  557.900;-1073.000; -845.000
418.249; 3259.700; -512.000; -601.000
418.374;  248.600; -916.000; -824.000
418.500;    2.400; -383.000; -482.000
418.626;   72.800;   70.000;  -59.000
418.751;   -3.900; -549.000; -448.000
418.877;  -11.300; -637.000; -643.000
419.002; 1211.300; -688.000; -560.000
419.128; 8007.600; -930.000; -721.000
419.253; 1615.700; -967.000; -837.000
419.379;  148.300; -391.000; -338.000
419.504;  341.900;  325.000;  415.000
419.629;  320.200; -393.000; -212.000
419.755; 2392.200; -317.000; -254.000
419.880;13153.100;  -98.000;   67.000
420.006; 7618.000; -280.000; -221.000
420.131;19197.100; -662.000; -775.000
420.256; 2544.800; -315.000; -316.000
420.382;  240.700; -665.000; -687.000
420.507;  -87.900; -649.000; -778.000
420.632;   35.100; -337.000; -339.000
420.758;  225.700; -251.000; -425.000
420.883; -168.500; -876.000; -672.000
421.008; -192.800; -775.000; -619.000
421.133; -245.100; -509.000; -467.000
421.259;  -36.500; -325.000; -259.000
421.384; -226.400; -834.000; -693.000
421.509; -172.900;-1052.000; -862.000
421.634;  922.800; -936.000; -820.000
421.759;  353.700; -359.000; -327.000
421.885; -161.600; -717.000; -656.000
422.010; -120.400; -673.000; -542.000
422.135; -258.900; -695.000; -727.000
422.260;   87.300;  340.000;  280.000
422.385;  -59.200;   12.000;  -98.000
422.510;   56.900;  151.000;  -26.000
422.635;    6.300;  -87.000;  -43.000
422.760;  -10.400; -766.000; -791.000
422.885;   36.800;  -57.000;  -80.000
423.010;  -30.500; -112.000; -169.000
423.135; -200.800; -481.000; -561.000
423.260;  -25.400; -150.000; -245.000
423.385;  104.400;  476.000;  222.000
423.510;   48.400;   71.000;  -22.000
423.635;   41.700;  133.000;   45.000
423.760;  124.300;  383.000;  328.000
423.885;   80.500;  336.000;  391.000
424.010;   35.200;  -68.000;  -13.000
424.135;  -74.100;    5.000;  -33.000
424.259; -151.800; -654.000; -457.000
424.384; -131.600; -279.000; -272.000
424.509;  -60.900; -260.000; -186.000
424.634; -231.200; -761.000; -623.000
424.759; -114.400; -688.000; -544.000
424.883;  -77.100; -506.000; -527.000
425.008;   24.100; -502.000; -410.000
425.133; 1244.500; -679.000; -653.000
425.258;  460.200; -517.000; -381.000
425.382;  695.700; -867.000; -774.000
425.507; 1942.000; -487.000; -543.000
425.632;  156.000; -802.000; -663.000
425.756;  232.000; -256.000; -146.000
425.881; 4213.500; -831.000; -857.000
426.006;10471.400; -604.000; -355.000
426.130; 1397.600; -696.000; -508.000
426.255;  119.200; -611.000; -491.000
426.379;   56.000; -189.000; -577.000
426.504;  386.500;  660.000;  544.000
426.629; 2611.000; -519.000; -466.000
426.753; 1703.100;   64.000;  -46.000
426.878;  153.100; -252.000; -288.000
427.002;  -12.700; -651.000; -668.000
427.127; 1094.300;  -35.000; -158.000
427.251; 7893.600;  372.000;  401.000
427.375; 1946.100; -191.000; -173.000
427.500; 1649.200; -616.000; -610.000
427.624;  493.100; -234.000; -400.000
427.749;   31.300; -216.000; -225.000
427.873; -107.000; -499.000; -412.000
427.997;  -70.100; -222.000; -230.000
428.122;  180.700;  795.000;  703.000
428.246;  108.100;  433.000;  434.000
428.371; -220.500; -869.000; -773.000
428.495; -195.300; -624.000; -646.000
428.619;  -78.800; -186.000; -117.000
428.743;   31.000;   65.000;  132.000
428.868; -102.900; -732.000; -643.000
428.992; 1055.500; -219.000; -326.000
429.116;  363.500; -329.000; -357.000
429.240;  311.300;  419.000;  426.000
429.365;  -97.700; -454.000; -574.000
429.489; -134.500; -638.000; -647.000
429.613;   -5.100; -236.000; -177.000
429.737;  -72.700; -563.000; -432.000
429.861;  120.900; -247.000; -133.000
429.985; 3790.500; -425.000; -305.000
430.109; 3572.500; -770.000; -908.000
430.234;  439.700;   76.000;  -50.000
430.358;  -35.600; -250.000; -160.000
430.482; -127.000; -672.000; -564.000
430.606; -123.700; -655.000; -375.000
430.730;  -18.600; -437.000; -388.000
430.854;  -65.500; -909.000; -835.000
430.978; -147.500; -795.000; -764.000
431.102; -145.900; -499.000; -422.000
431.226; -185.800; -874.000; -815.000
431.350;   97.000;  345.000;  422.000
431.474; -152.500; -661.000; -373.000
431.597; -315.500;-1060.000; -848.000
431.721;  -98.900; -276.000; -267.000
431.845; -218.200; -704.000; -472.000
431.969; -125.000; -304.000; -349.000
432.093; -139.900; -395.000; -317.000
432.217;   34.200;   32.000;   82.000
432.341; -133.500; -523.000; -518.000
432.464;   -0.600;   96.000;   40.000
432.588;   50.500; -401.000; -329.000
432.712;   61.000;  -52.000;  -52.000
432.836;   98.700;  213.000;  263.000
432.959;  -70.200; -372.000; -311.000
433.083;   39.200;   11.000;    2.000
433.207;  319.900;  285.000;  930.000
433.330; 3283.700; -391.000; -200.000
433.454; 3686.400; -654.000; -638.000
433.578; 2283.000;  583.000;  278.000
433.701;  261.000; -623.000; -675.000
433.825;   27.600; -292.000; -299.000
433.949;   85.300;   28.000;  -72.000
434.072;  -36.800; -410.000; -323.000
434.196;  -45.600; -309.000; -117.000
434.319; 7544.600;25482.000;25124.000
434.443;  394.100; -656.000; -603.000
434.566; 1677.200;  281.000;   62.000
434.690;  156.700; -637.000; -383.000
434.813;  -47.900; -251.000; -173.000
434.937; -139.400; -569.000; -696.000
435.060; -121.600; -423.000; -332.000
435.184;  138.100; -492.000; -217.000
435.307;   92.000;  159.000;  102.000
435.431;   11.100;  -40.000;   24.000
435.554; -113.200; -399.000; -240.000
435.677;  -80.900; -350.000; -258.000
435.801;  -52.100;  -25.000;   49.000
435.924;    2.000;    1.000;  -67.000
436.048; -277.800;-1019.000; -732.000
436.171; -119.000; -240.000;  -66.000
436.294; -100.000; -248.000; -229.000
436.417;  -90.500; -963.000; -849.000
436.541; -225.500; -814.000; -840.000
436.664;  -59.300; -242.000; -316.000
436.787;  -14.500;   13.000;  113.000
436.910; -190.800; -792.000; -422.000
437.034;   16.200;  142.000;  143.000
437.157;   44.500;  -11.000;    0.000
437.280; -118.100; -392.000; -292.000
437.403; -199.700; -982.000; -869.000
437.526;  452.100; -903.000; -865.000
437.649; 1863.600; -505.000; -332.000
437.772;  106.600; -692.000; -540.000
437.896;  209.800;  700.000;  544.000
438.019; -181.900; -758.000; -503.000
438.142; -151.700; -596.000; -506.000
438.265; -137.200; -639.000; -670.000
438.388;  311.900; -520.000; -410.000
438.511;  -75.900; -597.000; -394.000
438.634;  -90.200; -247.000; -125.000
438.757; -249.000; -693.000; -619.000
438.880;  -12.500;  -34.000;  -57.000
439.003; -146.900; -417.000; -437.000
439.126;  -80.300; -287.000; -167.000
439.248;  -84.600;  -98.000; -139.000
439.371;  -33.500;    9.000;  -53.000
439.494;   98.900;  510.000;  439.000
439.617;  -52.700;   65.000;  -88.000
439.740; -325.400; -968.000; -816.000
439.863; -216.000; -755.000; -595.000
439.986; -222.600; -476.000; -431.000
440.108;  -52.700; -161.000; -112.000
440.231; -305.900; -950.000; -836.000
440.354;  -63.100;  -64.000; -150.000
440.477; -128.600; -566.000; -542.000
440.599;  -64.900; -200.000; -225.000
440.722; -215.400; -709.000; -586.000
440.845;  213.100;  751.000;  928.000
440.968; -201.700; -415.000; -311.000
441.090;  -68.800; -199.000;  -33.000
441.213; -313.700;-1021.000; -825.000
441.336;  -46.200; -159.000;   -5.000
441.458; -153.000; -549.000; -396.000
441.581; -202.600; -628.000; -629.000
441.703;  -91.400; -152.000;   13.000
441.826; -196.300; -557.000; -400.000
441.948;  -62.000;   56.000;   51.000
442.071;  116.000;  555.000;  424.000
442.193; -213.900; -531.000; -485.000
442.316;   24.100;  152.000;   97.000
442.438;  -71.200; -233.000;  -10.000
442.561;  120.500;  272.000;  262.000
442.683;  389.200; -809.000; -522.000
442.806;  930.100;   -8.000;   74.000
442.928; -153.200; -859.000; -604.000
443.051; -145.300; -577.000; -373.000
443.173; -150.200; -341.000; -339.000
443.295; -138.600; -263.000; -371.000
443.418; -112.600; -321.000;  -29.000
443.540;  -20.500; -106.000;   -4.000
443.662; -222.100; -563.000; -465.000
443.785;   38.200;  335.000;  199.000
443.907; -196.300; -362.000; -208.000
444.029; -200.500; -767.000; -494.000
444.152; -274.100; -644.000; -554.000
444.274;    2.700;  -18.000;  -24.000
444.396; -201.100; -461.000; -221.000
444.518; -168.900; -691.000; -454.000
444.640; -164.900; -268.000; -111.000
444.763;   11.200;  388.000;  249.000
444.885; -219.300; -432.000; -392.000
445.007;  -21.700;   35.000;   86.000
445.129; -214.700; -610.000; -515.000
445.251; -162.600; -372.000; -439.000
445.373; -253.000; -537.000; -386.000
445.495;   18.900;  242.000;  350.000
445.617;  144.800;  853.000;  753.000
445.739; -105.500; -215.000;  -97.000
445.861;  -55.600; -245.000; -112.000
445.984;  -86.200; -267.000; -101.000
446.105;  126.800; -418.000; -251.000
446.227;  524.500; -176.000;  -19.000
446.349; -110.600; -358.000; -249.000
446.471; -220.200; -615.000; -448.000
446.593; -117.500; -316.000;   19.000
446.715;    6.600;  -67.000;   41.000
446.837;  147.000;  697.000;  832.000
446.959; -173.400; -457.000; -478.000
447.081; -235.700; -628.000; -518.000
447.203;  175.800;  862.000;  834.000
447.325; -112.900; -270.000;   42.000
447.446;   62.900;  286.000;  530.000
447.568; -264.300; -921.000; -803.000
447.690; -138.800; -236.000; -245.000
447.812; -282.400; -798.000; -519.000
447.933;  -15.300;  155.000;  127.000
448.055; -137.800; -306.000; -261.000
448.177;  165.200;   31.000;   79.000
448.299; -119.300; -935.000; -727.000
448.420;   50.900;  -25.000;  159.000
448.542; -100.200;   -3.000;   33.000
448.664;    9.800;  109.000;  322.000
448.785;  -48.200;  265.000;   83.000
448.907; -156.900; -614.000; -353.000
449.028; -145.500; -771.000; -471.000
449.150;  161.400;  492.000;  589.000
449.272; -326.100;-1044.000; -913.000
449.393;  116.000;  612.000;  694.000
449.515; -268.700; -634.000; -581.000
449.636; -118.900; -264.000; -155.000
449.758;  134.800;  763.000;  622.000
449.879; -136.000; -498.000; -396.000
450.001; -146.000; -149.000;  -49.000
450.122;    3.400;  -95.000;  162.000
450.244;  -13.000;   37.000;  364.000
450.365; -146.900; -495.000; -301.000
450.486;  -56.000;   80.000;  268.000
450.608;   80.200;  393.000;  326.000
450.729;  111.300;  578.000;  645.000
450.850; -105.200; -574.000; -466.000
450.972;  367.500; -552.000; -389.000
451.093; 3259.300;  190.000;  588.000
451.214; 1082.500; -516.000; -337.000
451.336;  354.900;  773.000;  579.000
451.457;   79.200;  264.000;  393.000
451.578;  -75.300; -118.000;  -74.000
451.699; -199.800; -546.000; -540.000
451.821; -102.800; -284.000;  -50.000
451.942;    1.700;  278.000;  285.000
452.063;   70.500;  228.000;  419.000
452.184;  360.600;  -54.000;  -49.000
452.305;  721.600;  103.000;  170.000
452.427;  -28.500; -549.000; -301.000
452.548;  -36.900;   23.000;   79.000
452.669; -101.800; -257.000;  -89.000
452.790;  -31.400;    3.000;  -18.000
452.911;   14.500;  195.000;  259.000
453.032;  -90.900; -289.000;  -60.000
453.153;  -44.500;  -29.000;   81.000
453.274;  188.000;  737.000;  868.000
453.395;  -89.900;  -51.000;  175.000
453.516;  278.800; 1317.000; 1388.000
453.637; -150.200; -205.000; -150.000
453.758;  -53.800;   15.000;   69.000
453.879; -217.000; -462.000; -250.000
454.000;  200.400; 1086.000;  948.000
454.121; -221.400; -554.000; -326.000
454.242; -200.600; -599.000; -383.000
454.362;  -51.400;  -99.000;  114.000
454.483;  -80.200; -309.000; -229.000
454.604;  102.900;  512.000;  580.000
454.725; -209.100; -627.000; -555.000
454.846; -203.900; -474.000; -406.000
454.967;   10.500;  230.000;  539.000
455.087;  -32.100;  179.000;  153.000
455.208;  102.500;  554.000;  856.000
455.329;  -77.300;  -22.000;   82.000
455.450;   94.500;  473.000;  633.000
455.570; -149.700; -234.000; -211.000
455.691;  -36.300;  201.000;  407.000
455.812; -152.400; -270.000;  -92.000
455.932;  -57.500;  107.000;  -97.000
456.053;  -74.500;   36.000;   24.000
456.173; -159.700; -433.000; -355.000
456.294; -216.700; -476.000; -303.000
456.415;  -63.300;  -73.000;   70.000
456.535;  -20.900;  297.000;  273.000
456.656;  -21.600;  132.000;  240.000
456.776; -118.100;    3.000;  298.000
456.897;   63.200;  308.000;  513.000
457.017; -122.500; -153.000;   -3.000
457.138; -168.000; -402.000; -249.000
457.258;  -13.600;  263.000;  224.000
457.379;   18.300;  509.000;  521.000
457.499;   -9.600;  443.000;  432.000
457.620; -171.400; -407.000; -231.000
457.740; -132.900; -132.000;  -11.000
457.860;  -49.600;   87.000;   44.000
457.981;  -50.500;  132.000;  124.000
458.101; -128.400;  -89.000;   40.000
458.221;    4.300;  336.000;  402.000
458.342;  -40.400;   -4.000;  -37.000
458.462;   70.200;  617.000;  352.000
458.582;  -71.800; -302.000; -294.000
458.703;  -14.700;  303.000;  154.000
458.823;  -58.100;   22.000;  163.000
458.943;   26.900;  341.000;  467.000
459.063;  -12.200; 1124.000;  192.000
459.183;  -35.100;  328.000;  313.000
459.304;   49.700;  315.000;  517.000
459.424; -112.100; -246.000;  -89.000
459.544;  297.900;  388.000;  764.000
459.664;  576.600;  499.000;  506.000
459.784;  320.100; 1004.000; 1175.000
459.904;  127.300;  867.000;  744.000
460.024;  213.400;  867.000;  684.000
460.144;   17.300;  449.000;  554.000
460.264;   67.800;  515.000;  327.000
460.385; -149.700; -145.000; -119.000
460.505;  150.600;  905.000;  858.000
460.625; -179.000;  -17.000;  -68.000
460.745;   23.500;  396.000;  541.000
460.864;  -34.200;  153.000;  469.000
460.984;   78.100;  499.000;  573.000
461.104;  312.300; 1656.000; 1775.000
461.224;  153.900;  657.000;  650.000
461.344;  -27.000;  431.000;  360.000
461.464;   10.700;  258.000;  513.000
461.584;   -2.400;  283.000;  466.000
461.704;  -68.700;   58.000;  108.000
461.824;  -75.500;  238.000;  259.000
461.943;   -9.200;  191.000;  130.000
462.063; -125.000;    2.000;  324.000
462.183;  102.600;  639.000;  717.000
462.303;  245.000; 1678.000; 1230.000
462.422;  116.000;  781.000;  840.000
462.542;  -46.700;  271.000;  391.000
462.662;   79.400;  353.000;  380.000
462.782;  219.700;  833.000;  572.000
462.901;  383.300;  545.000;  717.000
463.021;  399.600; 1702.000; 1638.000
463.141;   32.300;  337.000;  770.000
463.260;    6.700;  614.000;  474.000
463.380;  103.600;  902.000;  884.000
463.499;  -58.300;  342.000;  332.000
463.619;   14.500;  581.000;  559.000
463.738;  270.500; 1644.000;  903.000
463.858;   85.300;  657.000;  811.000
463.978;  -36.000;  542.000;  396.000
464.097;  170.800;  921.000; 1114.000
464.217;  234.400; 1196.000; 1143.000
464.336;  262.900; 1068.000; 1130.000
464.455;  -13.900;  328.000;  659.000
464.575;   96.000;  597.000;  602.000
464.694;  275.800; 1204.000; 1179.000
464.814;  217.100; 1190.000; 1138.000
464.933;  143.900; 1095.000; 1027.000
465.052;  252.000; 1412.000; 1054.000
465.172;  121.000;  922.000;  799.000
465.291;  273.200; 1376.000; 1320.000
465.410;   58.400;  462.000;  735.000
465.530;  258.600; 1355.000; 1310.000
465.649;  168.300; 1209.000; 1273.000
465.768;  331.000; 1673.000; 1508.000
465.888;  154.300;  941.000; 1174.000
466.007;  251.200; 1335.000; 1440.000
466.126;   60.100;  721.000;  641.000
466.245;  160.200; 1176.000; 1187.000
466.364;  112.600;  950.000; 1060.000
466.484;  194.400; 1024.000; 1213.000
466.603;  128.400; 1101.000; 1222.000
466.722;  308.500; 1490.000; 1769.000
466.841;  205.400; 1151.000; 1401.000
466.960;  151.700; 1069.000;  972.000
467.079;  330.400; 1971.000; 1786.000
467.198;  186.400; 1238.000; 1181.000
467.317;  225.400; 1768.000; 1162.000
467.436;  193.800; 1709.000; 1261.000
467.555;  302.600; 1796.000; 1746.000
467.674;  172.600; 1227.000; 1329.000
467.793;  147.200; 1376.000; 1374.000
467.912;  256.700; 1658.000; 1539.000
468.031;  301.300; 2038.000; 1930.000
468.150;  336.800; 1842.000; 1837.000
468.269;  446.200; 2313.000; 2090.000
468.388;  445.200; 2168.000; 2339.000
468.507;  584.000; 2884.000; 2903.000
468.626;  669.700; 2555.000; 2541.000
468.744;  367.000; 2018.000; 2174.000
468.863;  474.900; 2312.000; 2523.000
468.982;  237.700; 1503.000; 1555.000
469.101;  549.100; 2788.000; 2692.000
469.220;  330.700; 2333.000; 2176.000
469.338;  593.500; 2935.000; 3051.000
469.457;  495.300; 2719.000; 2545.000
469.576;  752.300; 3953.000; 3784.000
469.695;  520.400; 2877.000; 3066.000
469.813;  908.000; 4148.000; 4192.000
469.932;  859.000; 4255.000; 4485.000
470.051;  836.200; 4075.000; 4161.000
470.169; 1212.900; 4470.000; 4338.000
470.288; 1637.000; 4700.000; 4809.000
470.406; 1226.100; 5059.000; 5194.000
470.525; 1254.700; 6101.000; 5787.000
470.644; 1319.400; 6847.000; 6794.000
470.762; 1712.600; 8397.000; 7873.000
470.881; 1843.800; 8651.000; 8464.000
470.999; 2070.700; 9685.000; 9151.000
471.118; 2201.300;11174.000;10711.000

