
Integration time [ms]: 200.000
Averaging Nr. [scans]: 10
Smoothing Nr. [pixels]: 0
Data measured with spectrometer [name]: 2101012U2
Wave   ;Sample   ;Dark     ;Reference
[nm]   ;[counts] ;[counts] ;[counts] 

197.733;  145.700;  516.000;  404.000
197.879; -192.900; -610.000; -634.000
198.025;  -91.700; -475.000; -420.000
198.171; -173.200; -602.000; -612.000
198.317;  -70.800; -401.000; -316.000
198.463; -167.700; -655.000; -404.000
198.609;   39.300;  181.000; -137.000
198.755; -165.700; -644.000; -410.000
198.901; -154.800; -505.000; -424.000
199.047; -168.300; -615.000; -488.000
199.193;  -93.200; -230.000; -468.000
199.339; -115.400; -222.000; -369.000
199.485;   61.600;  330.000;  271.000
199.631;   18.500;  227.000;  310.000
199.777; -102.100; -466.000; -398.000
199.923; -134.700; -610.000; -424.000
200.069;   -9.100; -141.000;  -58.000
200.215;  121.800;  128.000;  453.000
200.361;   67.300;  243.000;  477.000
200.507; -172.800; -600.000; -373.000
200.653;  -59.700; -371.000; -194.000
200.798;  -67.300; -215.000; -125.000
200.944;  -34.900; -146.000;  -41.000
201.090;   46.100;   61.000;  222.000
201.236;  -27.700; -116.000; -158.000
201.382;  267.800;  874.000;  903.000
201.528;   -0.600;  -58.000;  -48.000
201.674;  -67.300; -386.000; -293.000
201.819; -152.800; -540.000; -439.000
201.965; -186.600; -699.000; -447.000
202.111;  -61.000; -273.000; -226.000
202.257;  -94.100; -250.000; -238.000
202.402;    7.000;   13.000;  -36.000
202.548;  -65.500; -169.000; -116.000
202.694;  161.200;  410.000; -183.000
202.840; -164.200; -603.000; -531.000
202.985; -175.600; -681.000; -639.000
203.131; -262.200; -832.000; -666.000
203.277;  -64.500; -199.000; -262.000
203.423; -142.000; -434.000; -520.000
203.568;  -91.700; -462.000; -237.000
203.714; -152.200; -535.000; -542.000
203.860; -161.800; -682.000; -641.000
204.005;   29.300;  112.000;  167.000
204.151;  126.800;  561.000;  556.000
204.296; -108.300; -354.000; -221.000
204.442; -170.700; -600.000; -547.000
204.588; -175.000; -592.000; -579.000
204.733;   18.400;  178.000;  168.000
204.879; -279.900;-1018.000; -822.000
205.025;   15.500;  -99.000;  126.000
205.170;   26.700;  -17.000;   94.000
205.316;  165.400;  438.000;  661.000
205.461; -177.800; -698.000; -554.000
205.607;  169.300;  609.000;  665.000
205.752; -148.600; -626.000; -551.000
205.898; -137.200; -501.000; -391.000
206.043; -118.500; -578.000; -506.000
206.189; -115.600; -243.000; -285.000
206.334;  171.300;  554.000;  606.000
206.480;  160.600;  409.000;  239.000
206.625; -184.700; -529.000; -552.000
206.771;  -99.800; -451.000; -373.000
206.916;  -61.400; -210.000; -537.000
207.062; -140.300; -545.000; -591.000
207.207; -137.900; -546.000; -443.000
207.353;   71.100;  185.000;  460.000
207.498;   29.000;  196.000;   85.000
207.643; -126.900; -501.000; -370.000
207.789; -269.100;-1069.000; -910.000
207.934; -208.200; -665.000; -713.000
208.080;  -45.300; -154.000;   66.000
208.225;  -52.800;  -22.000;  -57.000
208.370; -197.400; -727.000; -619.000
208.516; -175.600; -741.000; -487.000
208.661;  -84.200; -127.000;  -69.000
208.806;  -60.300; -165.000; -171.000
208.952; -271.700;-1044.000; -731.000
209.097;  150.100;  378.000;  349.000
209.242; -122.500; -307.000; -382.000
209.387;  107.100;  392.000;  350.000
209.533; -131.400; -321.000; -350.000
209.678;  138.400;  472.000;  543.000
209.823; -121.000; -408.000; -310.000
209.969; -239.000; -860.000; -757.000
210.114; -224.900; -907.000; -719.000
210.259; -248.300; -939.000; -889.000
210.404;  -71.600; -171.000;  103.000
210.549;    5.400;  108.000;    3.000
210.695;  -24.200;   -3.000;  -95.000
210.840;   87.700;   94.000;   67.000
210.985; -153.100; -484.000; -303.000
211.130;  135.500;  268.000;  406.000
211.275;   17.100;  207.000;  199.000
211.420; -119.800; -300.000; -289.000
211.566; -157.100; -536.000; -489.000
211.711;   30.600;  218.000;  157.000
211.856; -145.500; -545.000; -519.000
212.001;  -17.600;  151.000;   44.000
212.146;   15.400;  153.000;   49.000
212.291;  -53.200; -210.000; -186.000
212.436;  -57.300; -280.000;   -6.000
212.581; -201.500; -685.000; -653.000
212.726; -157.200; -487.000; -538.000
212.871; -101.200; -552.000; -217.000
213.016; -342.000;-1172.000;-1029.000
213.161;  102.900;  406.000;  291.000
213.306; -173.400; -435.000; -577.000
213.451; -216.600; -778.000; -689.000
213.596;  -92.900; -455.000; -347.000
213.741; -121.200; -448.000; -538.000
213.886; -175.800; -498.000; -517.000
214.031;  -64.400; -294.000; -124.000
214.176; -113.400; -408.000; -341.000
214.321;  -16.000; -296.000; -157.000
214.466;  -49.100; -163.000;  -43.000
214.611;   12.200;  -61.000;  -10.000
214.756; -253.700; -948.000; -858.000
214.901;  -75.200; -388.000; -226.000
215.046; -253.000; -797.000; -825.000
215.191;   31.200;  128.000;   35.000
215.336;  -50.900; -157.000;  -19.000
215.480; -149.600; -684.000; -505.000
215.625;  -27.600; -175.000;  -19.000
215.770; -191.200; -757.000; -662.000
215.915;  -14.100;   -5.000;  -97.000
216.060;  -27.200; -113.000;  -21.000
216.205; -263.400; -731.000; -779.000
216.349; -145.400; -470.000; -533.000
216.494; -295.500; -939.000; -867.000
216.639; -260.300; -823.000; -888.000
216.784; -169.900; -577.000; -525.000
216.929;   91.700;  392.000;  281.000
217.073;  -21.700; -244.000;  -31.000
217.218;   19.000;   78.000;  -47.000
217.363; -181.900; -656.000; -618.000
217.507; -192.500; -623.000; -588.000
217.652; -266.000; -845.000; -874.000
217.797; -190.100; -708.000; -659.000
217.942; -253.800; -856.000; -720.000
218.086;  139.200;  608.000;  539.000
218.231;  -73.100; -174.000;  -26.000
218.376;  -80.600; -337.000; -229.000
218.520;  -33.400;  -41.000;   96.000
218.665;  -78.100; -338.000; -204.000
218.810;  -81.300; -275.000; -233.000
218.954;   23.400;  201.000;   35.000
219.099; -261.200; -713.000; -963.000
219.243; -180.100; -589.000; -554.000
219.388;  -54.500; -264.000; -136.000
219.532;  -46.200; -116.000; -116.000
219.677; -159.600; -564.000; -521.000
219.822;   28.800;   33.000;   89.000
219.966;   28.600;   17.000;  -99.000
220.111;  -93.100; -328.000;  -40.000
220.255; -175.300; -797.000; -750.000
220.400;  -45.400; -180.000; -146.000
220.544; -151.300; -516.000; -450.000
220.689; -112.500; -422.000; -451.000
220.833;  -47.500; -123.000;  -58.000
220.978; -117.500; -393.000; -563.000
221.122;   58.200;  319.000;  307.000
221.267; -221.900; -906.000; -837.000
221.411; -159.100; -478.000; -394.000
221.555;   15.500; -104.000;  -23.000
221.700; -113.300; -329.000; -222.000
221.844;   54.100;  255.000;  272.000
221.989; -109.600; -328.000; -311.000
222.133;  -80.700; -289.000; -307.000
222.277;  -35.800;    5.000;   78.000
222.422;   31.900;  227.000;  113.000
222.566;  -77.000; -381.000; -214.000
222.711; -119.100; -414.000; -479.000
222.855; -181.000; -643.000; -586.000
222.999; -189.200; -642.000; -717.000
223.144;  -70.500; -195.000; -194.000
223.288;   79.800;  423.000;  251.000
223.432;   -3.000;  184.000;  230.000
223.576;   19.500;  152.000;  -21.000
223.721;   60.700;  364.000;  273.000
223.865; -114.700; -472.000; -475.000
224.009;  541.000; 1673.000; 1631.000
224.153; -182.300; -660.000; -671.000
224.298; -141.800; -531.000; -489.000
224.442;  -12.500;  -74.000;  -33.000
224.586;  -43.300; -169.000; -106.000
224.730; -222.000; -858.000; -670.000
224.875; -225.500; -739.000; -688.000
225.019;   11.100;  102.000;  188.000
225.163;  123.600;  208.000;  341.000
225.307;    2.100;   97.000;  -91.000
225.451;   79.000;  360.000;  481.000
225.595;   63.800;  264.000;  176.000
225.739;  -42.400; -170.000;  -94.000
225.884;   22.600;   86.000;    5.000
226.028; -216.200; -760.000; -626.000
226.172;  -91.300; -260.000; -273.000
226.316; -254.500; -941.000; -902.000
226.460; -138.100; -645.000; -493.000
226.604;  -95.500; -406.000; -400.000
226.748; -222.300; -836.000; -733.000
226.892;  -28.400; -227.000; -181.000
227.036; -102.800; -537.000; -447.000
227.180; -100.200; -551.000; -375.000
227.324; -138.300; -561.000; -580.000
227.468; -250.400; -819.000; -717.000
227.612;    5.200;  242.000;  -28.000
227.756; -249.500; -845.000; -698.000
227.900;  119.500;  342.000;  441.000
228.044; -123.700; -509.000; -290.000
228.188;  119.100;  448.000;  568.000
228.332; -194.900; -546.000; -472.000
228.476;  -55.700; -223.000; -149.000
228.620;  -84.600; -210.000; -150.000
228.764;  173.100;  431.000;  349.000
228.908;  -42.800; -155.000;   30.000
229.052; -121.700; -615.000; -528.000
229.195;  -26.500; -172.000;   13.000
229.339;  -41.200; -235.000; -305.000
229.483;  -54.800;    5.000; -162.000
229.627;   -7.000; -156.000;  139.000
229.771;  -80.100; -218.000; -294.000
229.915;    4.300;  230.000;   79.000
230.059; -201.600; -648.000; -663.000
230.202;  -78.800; -370.000; -317.000
230.346;  -52.800; -107.000;  107.000
230.490; -151.600; -489.000; -521.000
230.634; -238.700; -736.000; -553.000
230.777;  159.500;  478.000;  509.000
230.921;  -93.700; -450.000; -359.000
231.065; -109.000; -246.000; -286.000
231.209;   41.200;  261.000;  265.000
231.352;   42.100;   54.000;   40.000
231.496;   45.500;  568.000;  188.000
231.640; -170.700; -693.000; -621.000
231.783;  138.200;  546.000;  525.000
231.927; -130.100; -294.000; -365.000
232.071; -259.000; -962.000; -736.000
232.214; -242.000; -980.000; -764.000
232.358; -216.100; -683.000; -599.000
232.502;   29.700;  -19.000;    7.000
232.645; -300.600;-1090.000; -927.000
232.789;  -38.400; -257.000; -218.000
232.933;  -95.800; -407.000; -224.000
233.076; -302.200;-1038.000; -897.000
233.220; -210.900; -752.000; -777.000
233.363; -180.000; -669.000; -477.000
233.507;  126.800;  371.000;  129.000
233.650; -213.300; -764.000; -834.000
233.794;   88.800;  438.000;  461.000
233.938; -127.400; -530.000; -362.000
234.081;  -39.800;  -93.000;   31.000
234.225; -140.200; -631.000; -539.000
234.368; -237.200; -773.000; -723.000
234.512;  -75.100; -385.000; -299.000
234.655; -207.000; -582.000; -555.000
234.798; -136.600; -493.000; -466.000
234.942; -267.600; -884.000;-1002.000
235.085; -171.100; -651.000; -443.000
235.229; -119.200; -405.000; -410.000
235.372; -114.900; -247.000; -191.000
235.516; -113.700; -397.000; -321.000
235.659;   46.800;   92.000;  121.000
235.802;    8.100;  -38.000;  -22.000
235.946;   49.800;  335.000;  215.000
236.089;   38.600;  126.000;  250.000
236.233;  100.100;  275.000;  298.000
236.376; -118.600; -235.000; -378.000
236.519;  -85.700; -297.000; -319.000
236.663;  -54.700; -215.000; -117.000
236.806; -280.100;-1029.000; -999.000
236.949;   86.700;  543.000;  431.000
237.092;  122.900;  412.000;  391.000
237.236; -169.600; -589.000; -502.000
237.379;  144.500;  352.000;  428.000
237.522; -231.700; -879.000; -768.000
237.666;  -20.000; -271.000;   18.000
237.809; -292.900; -851.000; -823.000
237.952;   84.700;  469.000;  271.000
238.095; -123.000; -447.000; -442.000
238.238;  154.000;  688.000;  700.000
238.382;   -4.300;  166.000;  103.000
238.525; -137.800; -598.000; -511.000
238.668; -293.900;-1060.000; -985.000
238.811; -172.300; -638.000; -643.000
238.954;  -95.300; -483.000; -334.000
239.097;  202.000;  617.000;  664.000
239.241;   59.500;  394.000;  326.000
239.384; -115.700; -254.000; -214.000
239.527; -126.900; -424.000; -224.000
239.670; -319.400; -994.000;-1091.000
239.813; -241.900; -696.000; -658.000
239.956;  156.200;  579.000;  473.000
240.099; -247.300; -778.000; -725.000
240.242;  125.700;  428.000;  432.000
240.385;  120.200;  466.000;  450.000
240.528; -153.700; -706.000; -473.000
240.671;   26.700;  189.000;  134.000
240.814;  -98.900; -441.000; -158.000
240.957; -218.100; -767.000; -578.000
241.100; -188.300; -779.000; -755.000
241.243; -275.500;-1234.000; -893.000
241.386; -140.400; -508.000; -379.000
241.529; -170.700; -735.000; -547.000
241.672; -149.500; -566.000; -495.000
241.815; -230.600; -832.000; -808.000
241.958;  -33.700; -125.000; -182.000
242.101; -127.200; -545.000; -390.000
242.244; -101.000; -270.000; -325.000
242.387;  -61.500; -304.000; -246.000
242.530;  107.500;  470.000;  134.000
242.673;  -91.400; -381.000; -309.000
242.815; -263.000; -925.000; -899.000
242.958; -140.300; -482.000; -381.000
243.101;   22.800;  132.000;  187.000
243.244; -160.400; -564.000; -521.000
243.387;  -96.500; -313.000; -316.000
243.530; -214.500; -657.000; -674.000
243.672;   -2.300;   43.000;  -92.000
243.815;  -86.500; -355.000; -283.000
243.958;   34.600;   98.000;  -26.000
244.101;  -26.300;   59.000;  -16.000
244.243;  -17.300;  -47.000;  101.000
244.386; -234.700; -761.000; -630.000
244.529;  -45.600; -132.000; -139.000
244.672; -353.900;-1154.000; -951.000
244.814; -243.100; -621.000; -794.000
244.957; -125.300; -380.000; -304.000
245.100; -181.700; -489.000; -489.000
245.242; -109.400; -387.000; -374.000
245.385;  -41.100;  -59.000;  -39.000
245.528; -269.500; -871.000; -705.000
245.670;  197.400;  612.000;  634.000
245.813; -163.100; -599.000; -547.000
245.956;  -96.800; -324.000; -275.000
246.098; -152.700; -508.000; -650.000
246.241;   26.100;  194.000;   48.000
246.383;  -54.500; -119.000;  -73.000
246.526; -152.900; -454.000; -525.000
246.669; -275.200; -889.000; -780.000
246.811;   28.000;  172.000;   -1.000
246.954; -130.500; -512.000; -426.000
247.096;  -75.200;  -84.000;   -6.000
247.239; -150.700; -482.000; -445.000
247.381; -143.700; -647.000; -488.000
247.524;  164.000;  645.000;  679.000
247.666;  -10.800;   58.000;   11.000
247.809; -253.700; -887.000; -691.000
247.951;   -9.700;  -75.000;  138.000
248.094;   85.600;  432.000;  308.000
248.236; -353.300;-1262.000;-1238.000
248.378;  -10.600; -356.000;  -81.000
248.521;  -82.300; -334.000; -337.000
248.663;  -78.900; -236.000; -267.000
248.806;  -59.300; -300.000; -266.000
248.948; -226.900; -886.000; -763.000
249.090; -124.800; -428.000; -398.000
249.233; -122.600; -344.000; -381.000
249.375; -113.900; -474.000; -451.000
249.518;  -29.800;  -83.000; -133.000
249.660;  -14.100; -103.000;    3.000
249.802; -352.000;-1303.000;-1189.000
249.945; -138.000; -612.000; -540.000
250.087; -232.700; -834.000; -768.000
250.229;  -71.500; -362.000; -480.000
250.371; -158.800; -494.000; -439.000
250.514; -101.100; -310.000; -244.000
250.656; -118.300;   69.000;  102.000
250.798; -261.000; -849.000; -800.000
250.940; -131.700; -322.000; -322.000
251.083;  -71.200; -335.000; -111.000
251.225;  128.700;  338.000;  310.000
251.367;  -68.100; -274.000; -373.000
251.509;  -87.600; -265.000; -210.000
251.651; -188.600; -731.000; -671.000
251.794;  135.100;  538.000;  632.000
251.936; -210.000; -821.000; -747.000
252.078; -159.100; -540.000; -461.000
252.220; -138.600; -645.000; -477.000
252.362;  159.400;  344.000;  462.000
252.504; -161.100; -677.000; -584.000
252.646; -230.900; -875.000; -722.000
252.788;  -22.800;   14.000; -128.000
252.931;  -53.000; -257.000; -253.000
253.073;  -88.500; -376.000; -317.000
253.215;  -15.500;  141.000;  122.000
253.357;  -18.800;   82.000; -153.000
253.499;  -99.100; -374.000; -234.000
253.641; -200.500; -749.000; -594.000
253.783; -192.900; -609.000; -527.000
253.925; -188.700; -586.000; -591.000
254.067; -231.100; -744.000; -667.000
254.209;  -80.800; -391.000; -259.000
254.351; -278.200; -865.000; -883.000
254.493; -142.300; -441.000; -417.000
254.635; -225.300; -936.000; -818.000
254.777; -195.800; -752.000; -687.000
254.918; -195.100; -512.000; -430.000
255.060; -152.900; -551.000; -395.000
255.202; -147.600; -473.000; -261.000
255.344; -166.800; -658.000; -455.000
255.486; -158.700; -471.000; -406.000
255.628; -232.700; -780.000; -781.000
255.770; -191.400; -676.000; -536.000
255.912; -129.100; -559.000; -468.000
256.053; -211.200; -730.000; -508.000
256.195;  309.300; 1008.000;  903.000
256.337; -231.000; -861.000; -595.000
256.479;  136.300;  532.000;  416.000
256.621; -104.900; -394.000; -212.000
256.762; -201.900; -789.000; -742.000
256.904;  148.400;  485.000;  487.000
257.046;  -84.500; -381.000; -271.000
257.188;  -92.100; -351.000; -264.000
257.329; -139.800; -525.000; -464.000
257.471; -241.800; -939.000; -807.000
257.613; -130.300; -584.000; -498.000
257.755; -331.200;-1073.000; -982.000
257.896;  101.100;  286.000;  392.000
258.038; -154.700; -403.000; -352.000
258.180;  -93.500; -354.000; -279.000
258.321; -202.100; -581.000; -457.000
258.463;   11.000;  -71.000;  133.000
258.605; -164.100; -562.000; -570.000
258.746; -209.600; -886.000; -772.000
258.888; -317.300;-1026.000;-1020.000
259.029;   38.300;  121.000;   -8.000
259.171; -178.200; -614.000; -550.000
259.313;    6.400;  -49.000;  -47.000
259.454; -158.800; -536.000; -414.000
259.596; -146.000; -483.000; -390.000
259.737; -137.100; -590.000; -474.000
259.879;   82.600;  217.000;  311.000
260.020;  175.400;  901.000;  636.000
260.162;  -44.700; -146.000; -253.000
260.303; -241.900; -768.000; -687.000
260.445; -177.300; -609.000; -613.000
260.586;   62.800;  392.000;  157.000
260.728; -110.500; -360.000; -248.000
260.869; -146.900; -350.000; -343.000
261.011;  162.400;  706.000;  537.000
261.152; -143.700; -479.000; -319.000
261.293; -170.400; -576.000; -595.000
261.435;  -66.100; -219.000; -184.000
261.576; -136.000; -455.000; -325.000
261.718;  132.100;  420.000;  470.000
261.859; -246.000; -940.000; -949.000
262.000; -266.200; -951.000;-1016.000
262.142;  -34.300;  -52.000;  -60.000
262.283; -242.900; -808.000; -691.000
262.424; -178.400; -666.000; -625.000
262.566; -313.800;-1161.000; -983.000
262.707; -218.100; -840.000; -830.000
262.848; -253.200; -769.000; -726.000
262.990;  -83.100; -362.000; -345.000
263.131;  180.300;  650.000;  681.000
263.272;  -16.900;  -61.000;  -41.000
263.413; -180.400; -589.000; -561.000
263.555; -121.200; -669.000; -143.000
263.696; -161.200; -550.000; -641.000
263.837; -127.700; -449.000; -551.000
263.978;   15.500;   -5.000;  -77.000
264.119; -113.900; -283.000; -264.000
264.261; -227.700; -847.000; -630.000
264.402;   -2.600;   33.000;   40.000
264.543; -164.800; -509.000; -524.000
264.684;  -42.800;   61.000;  -50.000
264.825; -155.200; -816.000; -538.000
264.966;   19.800;  -84.000;  -67.000
265.107; -224.700; -646.000; -670.000
265.248; -236.700; -825.000; -812.000
265.390;    8.800;  152.000;   -9.000
265.531;  -24.700; -238.000; -107.000
265.672; -180.000; -557.000; -630.000
265.813;  135.700;  563.000;  439.000
265.954; -270.900; -959.000; -940.000
266.095;  -26.600; -372.000; -322.000
266.236; -197.100; -686.000; -548.000
266.377;  -92.800; -243.000; -297.000
266.518; -139.800; -619.000; -547.000
266.659;   76.000;  170.000;  268.000
266.800;   29.000;   83.000;   85.000
266.941; -172.200; -487.000; -478.000
267.082;   36.200;  354.000;   99.000
267.223;  -97.200; -344.000; -273.000
267.364; -244.100; -892.000; -686.000
267.504;    2.800;    3.000;  135.000
267.645;   13.600;  160.000;   67.000
267.786;  -69.600; -147.000;  -86.000
267.927; -133.100; -473.000; -379.000
268.068;  -50.900; -186.000;  -61.000
268.209; -102.000; -175.000; -413.000
268.350; -134.200; -388.000; -532.000
268.490; -167.300; -648.000; -521.000
268.631;   83.100;  127.000;  225.000
268.772; -218.200; -874.000; -647.000
268.913; -120.600; -328.000; -476.000
269.054;  -12.500; -117.000;   12.000
269.194;  -95.700; -418.000; -402.000
269.335; -333.900;-1137.000;-1074.000
269.476;  -27.600;   33.000;  -35.000
269.617;  -85.700; -347.000; -392.000
269.757; -203.200; -713.000; -646.000
269.898; -219.100; -856.000; -613.000
270.039; -109.300; -415.000; -405.000
270.180; -280.900; -952.000; -816.000
270.320;  -59.100; -190.000; -250.000
270.461;  -88.800; -277.000; -249.000
270.602;  -45.100; -186.000; -156.000
270.742; -263.900; -868.000; -943.000
270.883; -127.000; -442.000; -390.000
271.023; -117.000; -358.000; -357.000
271.164; -149.000; -607.000; -528.000
271.305; -189.700; -666.000; -654.000
271.445; -199.800; -722.000; -683.000
271.586; -138.900; -462.000; -283.000
271.726;  -83.000; -397.000; -322.000
271.867; -158.900; -594.000; -534.000
272.008;  256.600; -473.000; -285.000
272.148;  238.100;  462.000;  468.000
272.289;   26.800; -113.000; -181.000
272.429;   31.400;   19.000;  185.000
272.570; -188.600; -633.000; -737.000
272.710; -203.100; -825.000; -775.000
272.851;  -38.200;  113.000; -130.000
272.991; -353.400;-1173.000;-1077.000
273.131; -160.100; -419.000; -459.000
273.272; -222.800; -683.000; -723.000
273.412;   11.700; -143.000;  -31.000
273.553; -126.600; -488.000; -507.000
273.693;  285.900;  913.000;  858.000
273.834; -225.500; -894.000; -692.000
273.974; -156.900; -664.000; -615.000
274.114; -193.000; -772.000; -560.000
274.255;  165.600;  414.000;  373.000
274.395;  -21.000; -180.000; -125.000
274.535;  103.100;  199.000;  350.000
274.676;   59.000;  225.000;   94.000
274.816;    7.600;  110.000;   34.000
274.956; -178.200; -624.000; -690.000
275.097; -167.800;-1014.000; -922.000
275.237; -244.600; -913.000; -803.000
275.377; -220.600; -778.000; -689.000
275.517; -334.700; -878.000; -937.000
275.658; -158.400; -590.000; -555.000
275.798; -152.600; -606.000; -413.000
275.938;   59.100;  215.000;  323.000
276.078; -156.900; -626.000; -395.000
276.218;   31.500;   99.000;  104.000
276.359; -276.500;-1026.000;-1024.000
276.499; -139.800; -605.000; -446.000
276.639;  -49.400; -305.000; -151.000
276.779;  -89.600; -475.000; -357.000
276.919; -213.300; -783.000; -624.000
277.059;  -52.800; -261.000; -212.000
277.199;  -72.200; -357.000; -259.000
277.340;  112.600;  287.000;  175.000
277.480; -212.600; -840.000; -693.000
277.620;   60.200;  192.000;   16.000
277.760; -392.300;-1533.000;-1294.000
277.900;   31.100;  113.000;   33.000
278.040;   15.800;  137.000;  159.000
278.180;  112.500;  270.000;  170.000
278.320;   27.300;   21.000;   56.000
278.460; -143.100; -443.000; -469.000
278.600; -188.400; -708.000; -598.000
278.740;  122.300;  448.000;  224.000
278.880; -169.900; -768.000; -791.000
279.020;   45.300; -194.000; -144.000
279.160; -192.400; -672.000; -595.000
279.300; -232.800; -926.000; -873.000
279.440; -175.500; -709.000; -622.000
279.579; -110.600;-1014.000; -929.000
279.719; -119.000; -410.000; -394.000
279.859;  110.200;   -4.000;   41.000
279.999;   27.200; -208.000;  101.000
280.139;  -44.900; -435.000; -387.000
280.279; -160.100; -708.000; -745.000
280.419;  -19.400; -229.000; -147.000
280.559;  -64.900; -259.000; -180.000
280.698; -187.500; -790.000; -639.000
280.838; -209.800; -778.000; -800.000
280.978; -179.800; -846.000; -790.000
281.118; -238.700; -811.000; -704.000
281.257;   51.500;   24.000;    6.000
281.397; -278.700;-1094.000; -960.000
281.537; -180.800; -599.000; -712.000
281.677;  -32.400; -150.000; -101.000
281.816; -146.500; -700.000; -630.000
281.956;  -40.100; -193.000; -257.000
282.096; -119.200; -539.000; -396.000
282.235; -231.400; -672.000; -638.000
282.375;  -53.800; -243.000;  -98.000
282.515; -187.900; -715.000; -707.000
282.654;   47.500;   29.000;  106.000
282.794;   77.900;  388.000;  244.000
282.934; -102.600; -530.000; -491.000
283.073; -277.700;-1030.000; -857.000
283.213; -103.200; -460.000; -467.000
283.353; -105.000; -408.000; -349.000
283.492;  -52.100; -264.000; -296.000
283.632;  -97.700; -254.000; -168.000
283.771; -213.900; -859.000; -730.000
283.911; -102.900; -369.000; -260.000
284.050; -207.200; -794.000; -748.000
284.190; -318.900;-1229.000;-1096.000
284.329; -300.800;-1055.000; -964.000
284.469; -169.200; -516.000; -591.000
284.608; -168.200; -559.000; -598.000
284.748; -156.800; -614.000; -570.000
284.887;  -15.300;  -87.000;  -20.000
285.027; -271.800; -844.000; -892.000
285.166;  -86.700; -192.000; -249.000
285.306;   38.000; -116.000;  -33.000
285.445;  -87.200; -229.000; -343.000
285.584; -197.600; -630.000; -494.000
285.724;  -99.800; -282.000; -322.000
285.863; -221.800; -857.000; -507.000
286.002; -105.000; -366.000; -276.000
286.142; -213.100; -715.000; -622.000
286.281; -154.000; -525.000; -493.000
286.420; -138.100; -554.000; -417.000
286.560;  241.700;  653.000;  623.000
286.699; -273.800; -958.000; -912.000
286.838; -144.600; -590.000; -591.000
286.978; -166.900; -533.000; -537.000
287.117; -264.600;-1085.000; -950.000
287.256;  -51.700; -228.000; -211.000
287.395; -122.200; -197.000; -378.000
287.535;  -75.500; -370.000; -298.000
287.674; -164.400; -509.000; -484.000
287.813;  134.900;  661.000;  533.000
287.952; -267.800;-1010.000; -871.000
288.091; -297.300;-1049.000; -915.000
288.231;   19.400;   13.000;   15.000
288.370; -346.000;-1217.000;-1200.000
288.509; -162.700; -728.000; -645.000
288.648; -165.000; -770.000; -548.000
288.787;  -37.100; -243.000;  -87.000
288.926;  -97.700; -454.000; -475.000
289.065;  243.900;  859.000;  672.000
289.204;  -83.000; -377.000; -217.000
289.344; -190.100; -791.000; -690.000
289.483;   99.200;  416.000;  304.000
289.622;  -46.300; -291.000; -149.000
289.761;  -25.300; -309.000; -166.000
289.900; -221.800; -785.000; -626.000
290.039;  -28.300;  -12.000;  -95.000
290.178;  -89.700; -274.000; -180.000
290.317; -155.000; -618.000; -479.000
290.456; -139.400; -463.000; -451.000
290.595; -291.200; -961.000; -833.000
290.734; -271.000; -904.000; -891.000
290.873; -117.200; -456.000; -420.000
291.011; -212.200; -833.000; -843.000
291.150; -187.600; -770.000; -682.000
291.289;  -40.800; -343.000; -110.000
291.428; -190.700; -599.000; -480.000
291.567;  -90.100; -370.000; -442.000
291.706;   -5.700;  109.000;  154.000
291.845; -177.800; -597.000; -505.000
291.984; -358.300;-1234.000;-1061.000
292.122;  165.600;  602.000;  582.000
292.261;  119.600;  620.000;  463.000
292.400;   15.300; -144.000;  211.000
292.539; -251.000; -959.000; -813.000
292.678;  -56.400; -325.000; -300.000
292.816; -306.900;-1136.000; -965.000
292.955; -220.100; -844.000; -684.000
293.094;  -51.300; -173.000; -337.000
293.233; -117.500; -556.000; -400.000
293.371;  -76.700; -225.000;  -84.000
293.510; -210.000; -866.000; -780.000
293.649; -245.000; -959.000; -924.000
293.787; -159.700;-1083.000;-1012.000
293.926;  -14.100; -113.000;  -32.000
294.065;  -88.900; -379.000; -290.000
294.203;  120.700;  298.000;  406.000
294.342;   82.100;   74.000;  156.000
294.481;14714.600;51180.000; -836.000
294.619;  -37.600; -425.000; -582.000
294.758; -310.800;-1230.000;-1137.000
294.896;  122.600; -125.000;    5.000
295.035; -293.900;-1040.000;-1006.000
295.174; -253.200;-1082.000; -954.000
295.312;  -81.700; -323.000; -203.000
295.451;  -72.100; -307.000; -428.000
295.589; -123.500; -389.000; -518.000
295.728;   34.300; -292.000; -165.000
295.866;    6.300;  -36.000;  -51.000
296.005; -150.400; -584.000; -341.000
296.143; -160.200; -558.000; -596.000
296.282; -219.500; -957.000; -881.000
296.420; -200.900; -657.000; -557.000
296.559; -187.800; -892.000; -633.000
296.697;  -12.200; -847.000; -665.000
296.835;   50.100;-1141.000;-1002.000
296.974;   86.400;  -23.000;   39.000
297.112;  -50.600; -443.000; -504.000
297.251; -162.300; -815.000; -755.000
297.389;   94.900; -576.000; -438.000
297.527;   66.000; -145.000;  -83.000
297.666; -135.800; -486.000; -438.000
297.804;  -91.800; -404.000; -264.000
297.942;  -19.700; -136.000; -161.000
298.081;   -8.400; -183.000;   63.000
298.219;   67.100;  -17.000;  -19.000
298.357;   48.400; -144.000;  -71.000
298.495;  -54.300; -810.000; -812.000
298.634;  124.400;  245.000;  219.000
298.772;   61.900; -220.000; -338.000
298.910;  -62.300; -309.000; -182.000
299.048;  -17.800; -130.000; -153.000
299.187;  -71.000; -350.000; -250.000
299.325;   15.100;   52.000;  122.000
299.463;   67.600; -389.000; -299.000
299.601;  157.100; -327.000; -271.000
299.739; -235.200; -908.000; -883.000
299.877; -171.900; -791.000; -703.000
300.016; -147.900;-1095.000; -935.000
300.154;  248.500;  -19.000; -161.000
300.292;   77.100; -428.000; -348.000
300.430;   37.200; -408.000; -291.000
300.568; -245.300; -940.000; -874.000
300.706; -129.400; -366.000; -469.000
300.844; -208.800;-1108.000; -979.000
300.982;  213.400;  246.000;  282.000
301.120; -253.300; -965.000; -866.000
301.258; -185.200; -812.000; -705.000
301.396;   78.600;  104.000;  -41.000
301.534;  111.000; -218.000; -293.000
301.672;  -37.400; -664.000; -521.000
301.810;   -2.200; -613.000; -545.000
301.948;  251.100;   53.000;  149.000
302.086;  880.300; -250.000;  -32.000
302.224; 1435.200; -610.000; -585.000
302.362;   18.900; -558.000; -622.000
302.500; -133.100; -923.000; -893.000
302.638;  161.200;  128.000;  245.000
302.776;  -24.200; -352.000; -408.000
302.913;  130.000;  447.000;  236.000
303.051;    3.900;  -86.000;  -23.000
303.189;  116.800;   90.000;  118.000
303.327;  -47.700; -341.000; -256.000
303.465; -149.200; -832.000; -588.000
303.603; -199.100; -805.000; -604.000
303.740;  203.800;  417.000;  241.000
303.878;  -35.300; -800.000; -759.000
304.016; -190.800; -915.000; -790.000
304.154; -281.200;-1123.000;-1152.000
304.291;  -78.900; -505.000; -554.000
304.429;   38.700;  102.000;   74.000
304.567; -284.600; -908.000; -893.000
304.705;  -81.100; -408.000; -515.000
304.842;   94.100; -616.000; -540.000
304.980;  124.000;  215.000;   35.000
305.118;   68.600; -367.000; -365.000
305.255; -186.300; -945.000; -927.000
305.393;  112.500;  178.000;  239.000
305.531; -231.500;-1173.000; -956.000
305.668; -155.900; -663.000; -582.000
305.806;  150.600; -358.000; -439.000
305.943;   95.800; -629.000; -637.000
306.081;   88.600; -378.000; -267.000
306.219; -218.100; -863.000; -748.000
306.356;   37.800;  158.000;   27.000
306.494;  258.000;  981.000;  761.000
306.631;    4.000;  -11.000;  -55.000
306.769;   10.400; -613.000; -485.000
306.906;  -24.400; -284.000; -258.000
307.044;  -92.200; -473.000; -488.000
307.181; -116.100; -410.000; -332.000
307.319;   97.100;  112.000;   87.000
307.456; -356.200;-1191.000;-1153.000
307.594; -227.700; -980.000; -727.000
307.731;  -18.300; -371.000; -164.000
307.868;    3.700;  -15.000;   20.000
308.006; -276.300; -961.000; -847.000
308.143; -113.000; -618.000; -330.000
308.281;  380.700;  -37.000; -254.000
308.418;   15.600; -748.000; -640.000
308.555; -133.200; -400.000; -250.000
308.693; -144.300; -577.000; -573.000
308.830; -231.400; -712.000; -657.000
308.967;    4.400; -215.000;  -95.000
309.105;  -84.000; -507.000; -396.000
309.242;   77.600; -468.000; -367.000
309.379;  747.500; -577.000; -655.000
309.517; -121.500; -936.000; -948.000
309.654; -186.600; -910.000; -734.000
309.791; -146.300; -662.000; -580.000
309.928; -226.900; -977.000; -914.000
310.065;  315.900;  819.000;  697.000
310.203;  -68.800; -825.000; -850.000
310.340;  -32.200; -465.000; -321.000
310.477; -139.300; -412.000; -516.000
310.614; -125.900; -383.000; -473.000
310.751; -128.700; -427.000; -518.000
310.889;  -48.400;    1.000;   11.000
311.026; -321.300;-1161.000; -939.000
311.163; -104.400; -386.000; -380.000
311.300; -130.300; -512.000; -479.000
311.437; -155.600; -658.000; -619.000
311.574; -334.300;-1226.000; -985.000
311.711; -137.500; -595.000; -433.000
311.848;  -63.900; -380.000; -388.000
311.985;   40.100;  270.000;   93.000
312.122; -254.800; -932.000; -762.000
312.259; -237.700; -941.000; -994.000
312.396; -160.800; -508.000; -551.000
312.533; -157.000; -812.000; -790.000
312.670; -276.900;-1070.000; -898.000
312.807;  -46.100; -352.000; -367.000
312.944; -134.100; -513.000; -611.000
313.081;  -52.400; -150.000; -415.000
313.218; -205.400;-1111.000; -867.000
313.355;  -12.600; -531.000; -449.000
313.492;    2.900; -455.000; -292.000
313.629;  290.200;  815.000;  735.000
313.766; -314.600;-1176.000;-1008.000
313.902;    0.600; -186.000;   21.000
314.039; -101.900; -372.000; -289.000
314.176;   86.000;  286.000;  192.000
314.313; -155.600; -569.000; -473.000
314.450; -164.600; -788.000; -684.000
314.587; -112.600; -468.000; -480.000
314.723;   39.500;  -78.000;  130.000
314.860;   76.200;  318.000;  332.000
314.997;   62.500;  223.000;  142.000
315.134; -114.600; -385.000; -368.000
315.270;  -69.700; -480.000; -496.000
315.407; -266.200;-1094.000; -967.000
315.544; -134.300; -657.000; -538.000
315.681; -121.500; -681.000; -565.000
315.817;   33.600; -133.000; -176.000
315.954;   13.400; -613.000; -392.000
316.091; -263.000;-1045.000;-1023.000
316.227;  -20.200;  -71.000; -179.000
316.364;   45.000;   23.000;    6.000
316.500;  -77.800; -113.000; -300.000
316.637;  -78.900; -181.000; -302.000
316.774; -149.900; -625.000; -358.000
316.910; -185.600; -598.000; -629.000
317.047; -158.200; -487.000; -351.000
317.183;  -95.900; -435.000; -566.000
317.320;  -22.500; -367.000; -321.000
317.456; -199.400; -733.000; -805.000
317.593; -191.100; -598.000; -641.000
317.729;   22.200;  168.000;  -67.000
317.866; -406.700;-1434.000;-1285.000
318.002; -178.000; -708.000; -948.000
318.139; -209.600; -883.000; -867.000
318.275; -214.400;-1003.000; -738.000
318.412; -112.800; -517.000; -336.000
318.548;  -68.400; -751.000; -720.000
318.685; -227.500; -985.000; -888.000
318.821; -179.700; -762.000; -735.000
318.957;  -18.800;   34.000;  -23.000
319.094;   91.400;  297.000;  154.000
319.230; -135.500; -756.000; -742.000
319.367;  173.700; -471.000; -520.000
319.503;   38.900; -538.000; -436.000
319.639; -184.000; -877.000; -793.000
319.775; -141.800; -750.000; -685.000
319.912; -111.300; -424.000; -519.000
320.048; -208.400;-1184.000;-1184.000
320.184;  145.500;   59.000;   70.000
320.321; -121.200; -497.000; -467.000
320.457;  151.300;  475.000;  662.000
320.593; -126.100; -375.000; -382.000
320.729; -209.000; -732.000; -734.000
320.866; -143.200; -577.000; -635.000
321.002; -178.400; -759.000; -809.000
321.138;  -41.300; -135.000; -211.000
321.274;  111.200; -148.000; -115.000
321.410;  -70.500; -585.000; -353.000
321.546;  -83.700;-1011.000; -911.000
321.683;  104.600;  400.000;  185.000
321.819;   37.000;  -48.000; -117.000
321.955; -229.700; -743.000; -722.000
322.091; -104.400; -585.000; -540.000
322.227;  -18.100; -382.000; -202.000
322.363;  -61.800; -320.000; -215.000
322.499;  -59.800; -343.000; -331.000
322.635;  326.400;  636.000;  443.000
322.771;   55.800; -139.000;   12.000
322.907;  200.700;  129.000;  327.000
323.043;  -22.100; -115.000; -206.000
323.179;  -58.000; -394.000; -363.000
323.315;  -13.800; -401.000; -371.000
323.451;   84.600; -328.000; -236.000
323.587;  127.500;  -60.000;  -77.000
323.723;    6.100; -682.000; -601.000
323.859;  -26.200; -258.000;  -76.000
323.995;  -74.800; -467.000; -409.000
324.131; -261.200; -967.000; -892.000
324.267;  -70.700; -254.000; -276.000
324.402; -256.400; -960.000; -983.000
324.538;  -45.300; -279.000; -104.000
324.674;   58.700;  164.000;   77.000
324.810;  254.000;  226.000;  308.000
324.946;    5.500; -810.000; -658.000
325.082; -140.900; -568.000; -475.000
325.217;   -2.200;  -62.000;   16.000
325.353; -232.200; -764.000; -659.000
325.489; -161.500; -540.000; -506.000
325.625; -133.600; -579.000; -525.000
325.760;  136.300;  517.000;  376.000
325.896;  -69.800; -515.000; -702.000
326.032; -103.800; -403.000; -352.000
326.168; -114.500; -462.000; -369.000
326.303;  -99.400; -352.000; -461.000
326.439;  -21.200; -336.000; -276.000
326.575;   10.400; -190.000;  -29.000
326.710;  -10.600; -156.000;  -30.000
326.846;    2.300;  146.000;  103.000
326.982; -161.600; -530.000; -548.000
327.117; -135.800; -481.000; -442.000
327.253; -170.000; -745.000; -742.000
327.388; -347.100;-1137.000;-1153.000
327.524; -116.600; -811.000; -578.000
327.659;  -51.900;  -58.000;  -22.000
327.795;   23.300;   69.000;   45.000
327.931; -179.300; -723.000; -499.000
328.066;  -33.700; -417.000; -276.000
328.202;    0.100;   12.000; -129.000
328.337;  235.600;  957.000;  713.000
328.473;  -23.300;  -12.000;  -74.000
328.608;  -27.300; -256.000; -267.000
328.743; -155.600; -799.000; -664.000
328.879;   38.600;  214.000;  114.000
329.014; -107.900; -102.000; -122.000
329.150; -149.500; -358.000; -483.000
329.285; -159.900; -465.000; -466.000
329.421;  -93.500; -548.000; -246.000
329.556;  -20.200;  -36.000;   85.000
329.691; -177.100; -633.000; -615.000
329.827; -175.000; -626.000; -480.000
329.962;  -96.900;  131.000; -301.000
330.097; -195.500; -673.000; -585.000
330.233;  -70.200; -410.000; -223.000
330.368; -223.200; -839.000; -628.000
330.503;  -35.900;    3.000;   98.000
330.638;   -6.200;  -93.000; -125.000
330.774; -109.300; -609.000; -530.000
330.909;  -70.000; -434.000; -244.000
331.044; -180.300; -714.000; -708.000
331.179; -348.900;-1217.000;-1109.000
331.315;   47.000;   77.000;   20.000
331.450;   71.300;  157.000;  285.000
331.585; -160.500; -805.000; -706.000
331.720; -154.900; -510.000; -460.000
331.855;  -30.600;  -35.000; -102.000
331.990;  326.700;   62.000;  138.000
332.126;  160.200; -110.000;   71.000
332.261;  -75.000; -379.000; -265.000
332.396;  -32.700; -135.000; -242.000
332.531; -217.400;-1074.000;-1031.000
332.666;   24.700; -519.000; -363.000
332.801; -212.400; -726.000; -807.000
332.936;   -0.200; -192.000; -122.000
333.071; -278.700; -870.000; -817.000
333.206;   71.300;  307.000;  379.000
333.341;   63.800;  344.000;  418.000
333.476; -155.300; -627.000; -623.000
333.611;  -33.500; -251.000; -173.000
333.746;  -65.400; -381.000; -464.000
333.881; -246.400; -973.000; -935.000
334.016; -263.400; -936.000; -917.000
334.151; -244.300; -746.000; -702.000
334.286;   61.900;  152.000;  186.000
334.421;  -44.500; -125.000; -178.000
334.556; -130.500; -611.000; -567.000
334.690; -151.600; -631.000; -577.000
334.825;  122.400;  381.000;   83.000
334.960; -108.300; -285.000; -413.000
335.095;   32.800;  135.000;  -91.000
335.230; -214.500; -722.000; -738.000
335.365; -281.700;-1084.000; -990.000
335.499; -288.500;-1108.000;-1037.000
335.634;   57.800;    9.000;  534.000
335.769; -193.400; -755.000; -720.000
335.904; -131.700; -603.000; -561.000
336.038; -137.300; -735.000; -657.000
336.173; -241.000;-1206.000;-1194.000
336.308;  -20.500; -116.000; -189.000
336.443;   -8.900; -544.000; -634.000
336.577; -170.900; -936.000; -787.000
336.712;   73.500;   -4.000;  -12.000
336.847;  -95.200; -724.000; -607.000
336.981;   78.400; -272.000; -208.000
337.116;  463.600;  615.000;  501.000
337.250;  187.200; -434.000; -421.000
337.385;  347.600; -297.000; -208.000
337.520;   62.300; -632.000; -603.000
337.654;  -87.200; -215.000; -126.000
337.789; -241.200; -989.000; -933.000
337.923;  -45.100; -104.000; -205.000
338.058; -183.300; -673.000; -738.000
338.192; -112.800; -611.000; -488.000
338.327;   -0.500;  -18.000; -155.000
338.461; -158.600; -299.000; -469.000
338.596; -164.800; -780.000; -638.000
338.730; -204.000; -767.000; -803.000
338.865;  130.300;  -46.000; -140.000
338.999; -149.000; -846.000; -702.000
339.134; -106.300; -634.000; -536.000
339.268;  -10.300; -741.000; -603.000
339.403;  450.300; -740.000; -775.000
339.537;   96.800; -894.000; -820.000
339.671; -223.300; -829.000; -813.000
339.806; -112.400; -556.000; -512.000
339.940;   -4.800; -261.000; -235.000
340.074; -163.600; -685.000; -510.000
340.209;  -69.100; -351.000; -230.000
340.343; -193.900; -517.000; -573.000
340.477;  333.600;  998.000; 1036.000
340.612; -139.900;-1033.000; -900.000
340.746;  184.500; -199.000; -243.000
340.880; -161.100; -924.000; -785.000
341.014;  -40.200;  -45.000; -154.000
341.149; -222.700; -756.000; -718.000
341.283; -241.300; -839.000; -754.000
341.417; -220.200;-1124.000; -938.000
341.551;  145.300; -768.000; -708.000
341.685; -108.800; -633.000; -611.000
341.820;  -87.800; -562.000; -493.000
341.954;  -90.300; -218.000; -349.000
342.088; -295.200;-1102.000;-1019.000
342.222;  154.700;  565.000;  618.000
342.356; -136.600; -395.000; -335.000
342.490; -200.400; -880.000; -841.000
342.624;  -86.900; -339.000; -242.000
342.758;  -38.800; -364.000; -312.000
342.892; -148.900; -710.000; -585.000
343.026;  -44.200;  -58.000; -116.000
343.160;  -90.200; -426.000; -376.000
343.294; -145.200; -474.000; -337.000
343.428;  -49.500; -488.000; -448.000
343.562;  -37.300; -172.000;  -23.000
343.696;  -45.700; -385.000; -314.000
343.830;  -27.800; -362.000; -356.000
343.964;   24.400; -231.000; -168.000
344.098; 1408.700;  199.000;   70.000
344.232; 1144.700; -266.000; -127.000
344.366;  125.300; -567.000; -453.000
344.500;   60.100; -665.000; -744.000
344.634;   41.600; -324.000; -164.000
344.768;  -47.900; -531.000; -341.000
344.902;  106.500;  278.000;  256.000
345.035; -159.300; -556.000; -496.000
345.169; -246.400; -933.000; -656.000
345.303;  -53.200; -308.000; -482.000
345.437; -159.300; -826.000; -717.000
345.571; -179.700; -675.000; -594.000
345.704; -124.700; -309.000; -532.000
345.838;  -11.400; -331.000; -284.000
345.972;  -65.200; -543.000; -495.000
346.106;  246.900; -179.000; -190.000
346.239;  592.400; -312.000; -243.000
346.373;    3.200; -343.000; -302.000
346.507; -290.400; -950.000; -962.000
346.640;  255.400;  -30.000;   13.000
346.774; -112.400; -650.000; -797.000
346.908;   -1.200; -138.000;  -11.000
347.041; -164.700; -646.000; -593.000
347.175;   37.800;  259.000;   27.000
347.309; -155.000; -698.000; -628.000
347.442; -218.700; -883.000; -732.000
347.576;  477.800;  670.000;  668.000
347.709;  318.500; -123.000;  -52.000
347.843; -163.300; -933.000; -825.000
347.976;  106.800;  235.000;  294.000
348.110; -350.000;-1268.000;-1186.000
348.243; -193.200; -679.000; -772.000
348.377;   15.700;  -26.000;   60.000
348.510;  134.200;  403.000;  540.000
348.644;  -63.000;  -37.000; -159.000
348.777;    9.000;  180.000;  191.000
348.911;  -57.200; -142.000; -112.000
349.044;  301.100;  471.000;  448.000
349.178;  188.300;-1069.000;-1006.000
349.311;  208.100;  141.000;  255.000
349.444;  -95.600; -927.000; -813.000
349.578;  -36.900; -347.000; -200.000
349.711; -191.100; -959.000; -862.000
349.845;  -58.300; -661.000; -591.000
349.978; -319.200;-1224.000;-1137.000
350.111; -161.300; -546.000; -612.000
350.244; -160.100; -596.000; -700.000
350.378;  -72.300; -392.000; -393.000
350.511; -151.700; -393.000; -426.000
350.644; -212.800; -808.000; -806.000
350.778;   -3.100;  168.000;  104.000
350.911;   17.300;  134.000;  140.000
351.044; -138.600; -685.000; -615.000
351.177;  -71.000; -321.000; -281.000
351.310;   14.800;    3.000; -131.000
351.444; -184.500; -888.000; -788.000
351.577;  214.300;  140.000;   90.000
351.710;  238.200;  593.000;  417.000
351.843;  -25.500; -165.000;  -77.000
351.976;   25.400;  149.000;  -79.000
352.109; -173.400; -621.000; -612.000
352.242;  -41.000; -464.000; -419.000
352.376; -150.600; -580.000; -636.000
352.509;  204.500; -437.000; -356.000
352.642;  -44.900; -654.000; -604.000
352.775;  117.400; -141.000;  -98.000
352.908; -225.400; -933.000; -904.000
353.041; -214.100; -814.000; -824.000
353.174;  -72.900; -551.000; -424.000
353.307; -157.800; -753.000; -764.000
353.440;  150.900;  541.000;  453.000
353.573; -261.600; -957.000;-1008.000
353.706;  -81.900; -384.000; -558.000
353.839;  -48.700; -264.000; -220.000
353.971; -156.900; -657.000; -512.000
354.104; -199.200; -896.000; -835.000
354.237;  -96.200; -627.000; -662.000
354.370; -152.600; -846.000; -879.000
354.503; -363.600;-1231.000;-1308.000
354.636;  -93.900; -529.000; -348.000
354.769; -238.900; -937.000; -860.000
354.902;  -23.600; -230.000; -139.000
355.034;  -22.900; -164.000; -220.000
355.167;  -27.800; -262.000; -162.000
355.300; -229.900;-1061.000; -880.000
355.433; 1346.800;  -71.000;  -14.000
355.565; 2053.200; -402.000; -384.000
355.698;  491.500; -356.000; -296.000
355.831;  -77.600; -882.000; -801.000
355.964;  146.500; -285.000; -170.000
356.096; -209.600; -856.000; -843.000
356.229;  -21.500; -523.000; -530.000
356.362;  418.900; -373.000; -266.000
356.494;  784.600; -229.000; -162.000
356.627;  727.400;  269.000;  377.000
356.760;  945.500;  120.000;   53.000
356.892; 1202.800; -286.000; -601.000
357.025; 1011.000;  403.000;  389.000
357.157;  843.200; -167.000; -179.000
357.290;  847.000; -856.000; -713.000
357.423;  200.900; -667.000; -556.000
357.555;  171.800; -217.000; -228.000
357.688;  163.800; -483.000; -364.000
357.820;  584.700; -870.000; -877.000
357.953; 5473.500; -563.000; -589.000
358.085; 1109.600; -632.000; -612.000
358.218; 1580.000;-1131.000; -932.000
358.350;  357.600;  -58.000;  312.000
358.483; -259.700;-1300.000;-1187.000
358.615; -111.100;-1182.000;-1078.000
358.747; -176.900;-1187.000;-1058.000
358.880;  -28.200; -810.000; -744.000
359.012;    4.400; -376.000; -202.000
359.145;  -86.000; -480.000; -511.000
359.277;  -20.100; -962.000; -913.000
359.409; 4654.300;  536.000;  231.000
359.542; 1087.800; -738.000; -688.000
359.674;   96.900;   46.000;   13.000
359.806; -127.700; -565.000; -438.000
359.939;  -96.100; -617.000; -516.000
360.071;  -38.400; -583.000; -579.000
360.203;  -35.500; -411.000; -364.000
360.335;  128.400;  164.000;  -16.000
360.468;  264.700; -249.000; -307.000
360.600; 3568.700; -547.000; -454.000
360.732; 3749.700; -546.000; -423.000
360.864;  403.400;-1216.000;-1044.000
360.996;  416.900; -516.000; -554.000
361.129;   22.000; -389.000; -598.000
361.261;   92.000;  110.000; -113.000
361.393;  -29.200; -252.000; -214.000
361.525;   46.600;   94.000;  244.000
361.657; -102.600; -821.000; -703.000
361.789;   22.800; -139.000; -155.000
361.921;  328.600; -642.000; -593.000
362.053;  446.200;  524.000;  541.000
362.185;  130.800;  288.000;   72.000
362.318; -121.000; -709.000; -705.000
362.450;  258.900;  294.000;  444.000
362.582;  130.500; -913.000; -870.000
362.714;  -71.300; -353.000; -332.000
362.846; -130.600; -606.000; -490.000
362.978; -287.800; -941.000; -811.000
363.109;   85.700; -161.000; -260.000
363.241;  571.000; -739.000; -749.000
363.373;  549.800; -649.000; -564.000
363.505;  901.100; -186.000;  -91.000
363.637;  191.800; -787.000; -601.000
363.769; -270.400;-1067.000;-1080.000
363.901; -112.500; -596.000; -654.000
364.033; -257.600;-1103.000;-1062.000
364.165;    4.300; -283.000; -283.000
364.296;  100.400; -316.000; -177.000
364.428;  -14.900;-1344.000;-1220.000
364.560; -130.500; -679.000; -661.000
364.692; -106.100; -738.000; -835.000
364.824;  385.100; -588.000; -456.000
364.955;  600.700; -402.000; -564.000
365.087; 1132.300;-1097.000; -852.000
365.219;  -14.500; -686.000; -816.000
365.351; -135.400; -526.000; -572.000
365.482;  129.600;  300.000;  240.000
365.614;  -93.000; -402.000; -314.000
365.746; -183.200; -729.000; -752.000
365.877; -200.400; -706.000; -672.000
366.009;  384.500;  -35.000;  -62.000
366.141; -239.500;-1249.000;-1134.000
366.272; -201.500; -803.000; -719.000
366.404; -203.900;-1005.000; -874.000
366.535;   -7.500; -139.000;  -12.000
366.667; -153.300; -644.000; -649.000
366.799;   85.900;  353.000;  203.000
366.930; -215.700; -862.000; -996.000
367.062;  128.800; -639.000; -613.000
367.193;  138.000; -872.000; -842.000
367.325; -145.600; -580.000; -684.000
367.456;   66.900; -246.000;   31.000
367.588;  202.000; -371.000; -318.000
367.719;   65.500;  -44.000;  -45.000
367.851;  -32.300; -222.000; -241.000
367.982; -103.900; -875.000; -732.000
368.113;  144.300; -475.000; -358.000
368.245; -258.200; -960.000; -841.000
368.376;  -30.000; -254.000; -302.000
368.508;  -38.600; -188.000; -263.000
368.639; -275.500;-1166.000;-1034.000
368.770;  -62.700; -670.000; -589.000
368.902; -157.200; -836.000; -926.000
369.033; -188.400; -906.000; -855.000
369.164; -138.000; -720.000; -653.000
369.296; -201.700; -452.000; -601.000
369.427;   24.300; -209.000; -144.000
369.558; -130.100; -593.000; -377.000
369.689; -172.100; -721.000; -569.000
369.821; -244.500; -951.000; -845.000
369.952;    9.400;   42.000; -108.000
370.083;  -97.800; -229.000; -108.000
370.214; -166.600; -735.000; -650.000
370.345;   20.000;   65.000;   81.000
370.477; -163.500; -810.000; -790.000
370.608;  386.400; -328.000; -264.000
370.739; -156.700;-1233.000;-1292.000
370.870; -100.400;-1102.000; -923.000
371.001;  131.100; -378.000; -467.000
371.132; -147.400; -754.000; -735.000
371.263;  -37.800;  -42.000; -148.000
371.394; -236.200; -841.000; -748.000
371.525;   87.000;  345.000;  225.000
371.657; -126.200; -808.000; -670.000
371.788;  138.100;  103.000;  199.000
371.919;  248.400; -384.000; -304.000
372.050; 5766.200;  -91.000; -156.000
372.181; 1600.400; -188.000; -294.000
372.311;  578.000;   42.000; -127.000
372.442;   66.200; -457.000; -451.000
372.573;  -33.300; -444.000; -340.000
372.704; -271.500;-1008.000; -980.000
372.835;  117.200; -228.000; -289.000
372.966; -144.800; -646.000; -554.000
373.097; -124.800; -575.000; -711.000
373.228;  -84.300; -717.000; -542.000
373.359;  178.000; -824.000; -536.000
373.490; 1376.700; -881.000; -727.000
373.620; 1668.800;-1001.000; -803.000
373.751; 2773.000; -332.000; -396.000
373.882; 1170.600; -663.000; -733.000
374.013;  131.200; -449.000; -262.000
374.143;  -80.500; -581.000; -659.000
374.274; -214.000; -987.000; -908.000
374.405;  249.100; -388.000; -276.000
374.536;  670.100; -526.000; -387.000
374.666; 1695.000; -759.000; -807.000
374.797;  303.500; -817.000; -868.000
374.928; 1292.300; -710.000; -560.000
375.058; 1282.800; -535.000; -500.000
375.189;  131.900;  -59.000;  -93.000
375.320; -207.900; -928.000;-1034.000
375.450;  -68.600; -625.000; -616.000
375.581;  -76.000; -526.000; -436.000
375.712;  -71.300; -574.000; -250.000
375.842;  468.800; -438.000; -415.000
375.973;  290.000; -554.000; -513.000
376.103; -101.000; -665.000; -648.000
376.234; -125.500; -531.000; -552.000
376.364; -127.200; -944.000; -867.000
376.495;  571.400;  925.000;  529.000
376.625;  -46.300; -472.000; -485.000
376.756;   75.600; -709.000; -678.000
376.886; -149.300;-1178.000;-1026.000
377.017;  -23.200;-1048.000;-1061.000
377.147;  366.700; -786.000; -782.000
377.278;  120.800;  174.000;  228.000
377.408; -193.100; -801.000; -815.000
377.538; -169.100; -707.000; -693.000
377.669; -124.900; -537.000; -613.000
377.799; -181.500; -645.000; -635.000
377.929; -117.700; -610.000; -428.000
378.060; -253.700; -781.000; -847.000
378.190; -132.300; -726.000; -531.000
378.320;  -79.900; -401.000; -406.000
378.451;  -11.000; -131.000;  -22.000
378.581;   -4.100;  -67.000; -110.000
378.711;  299.900; 1035.000;  866.000
378.841;  -67.100; -533.000; -675.000
378.972; -190.600; -871.000; -751.000
379.102;  -37.800; -652.000; -579.000
379.232;  -10.900; -126.000;  -73.000
379.362; -209.900;-1001.000; -885.000
379.492;    7.500; -373.000; -424.000
379.623;  213.500;    0.000;  111.000
379.753; -210.600;-1107.000; -974.000
379.883;  299.400;   59.000;  156.000
380.013;  -26.000;-1081.000;-1017.000
380.143; -229.400;-1097.000;-1056.000
380.273; -217.200; -985.000; -861.000
380.403;  -12.900; -344.000; -257.000
380.533;  -76.200; -651.000; -664.000
380.663;  129.100;  173.000;  128.000
380.793; -218.700;-1027.000;-1074.000
380.923;  -18.100; -103.000;  -34.000
381.053; -154.100; -613.000; -623.000
381.183;  -54.300; -106.000; -248.000
381.313;   44.000; -656.000; -470.000
381.443;   45.700; -692.000; -473.000
381.573;  291.700; -402.000; -409.000
381.703;  348.800;-1249.000;-1095.000
381.833; -279.400;-1454.000;-1336.000
381.963;  166.400; -134.000;  -87.000
382.093; 2069.700; -925.000; -909.000
382.223;  570.800; -713.000; -602.000
382.353; -110.800; -801.000; -608.000
382.482;  523.500;-1091.000; -964.000
382.612; 1101.000; -872.000; -644.000
382.742;  627.400; -695.000; -622.000
382.872;  366.400; -565.000; -551.000
383.002;  132.700;  347.000; -132.000
383.131;   -2.700; -226.000; -160.000
383.261; -104.200; -706.000; -768.000
383.391;  427.700; -552.000; -377.000
383.521; 4477.200;  451.000;  263.000
383.650;  823.100; -947.000; -904.000
383.780;  -77.200; -783.000; -656.000
383.910;  227.100;  880.000;  802.000
384.039;   -1.300; -794.000; -656.000
384.169;  239.600;-1205.000;-1017.000
384.299;  -81.900; -650.000; -662.000
384.428; -180.500; -764.000; -680.000
384.558;  -84.300; -308.000; -275.000
384.687;  -82.400; -414.000; -334.000
384.817;   58.000;   75.000;   -2.000
384.947;   42.600; -234.000; -141.000
385.076;  533.900;  982.000;  912.000
385.206;  175.100;  369.000;  480.000
385.335;  -60.900; -549.000; -417.000
385.465; -190.500; -655.000; -663.000
385.594;  230.100;  -53.000;  -44.000
385.724;  573.000; -868.000; -838.000
385.853;  178.800; -296.000; -270.000
385.982; 2161.600; -743.000; -787.000
386.112; 3274.100;-1052.000; -871.000
386.241;  186.300; -307.000; -312.000
386.371;   55.800; -174.000;  -87.000
386.500;  -27.200; -825.000; -789.000
386.629;  -21.600; -874.000; -817.000
386.759;  132.200;  -43.000;   68.000
386.888;   23.500; -170.000; -250.000
387.017; -160.500; -648.000; -620.000
387.147; -188.100; -771.000; -798.000
387.276;  -48.500; -410.000; -397.000
387.405;   -6.600; -398.000; -342.000
387.535;  -62.200; -452.000; -361.000
387.664; -116.000; -692.000; -620.000
387.793;  110.400; -198.000; -113.000
387.922;  820.000;  255.000;  200.000
388.052;    2.400; -576.000; -423.000
388.181;   22.800; -342.000; -472.000
388.310;  -70.500; -889.000; -710.000
388.439; -123.300; -749.000; -742.000
388.568;  352.600;  365.000;  244.000
388.697; 1593.800; -756.000; -653.000
388.826;  300.400; -768.000; -666.000
388.956;   60.400; -285.000; -307.000
389.085;  -43.000; -347.000; -287.000
389.214; -209.900; -842.000; -872.000
389.343; -137.800; -645.000; -413.000
389.472;  614.800;  126.000;  149.000
389.601;  767.300;   91.000;    0.000
389.730;  -32.000; -568.000; -687.000
389.859;  156.400;  226.000;   46.000
389.988;  302.600; -423.000; -408.000
390.117;  209.900; -168.000; -146.000
390.246;  -31.200; -331.000; -320.000
390.375;  101.600; -673.000; -626.000
390.504; -135.200; -703.000; -621.000
390.633; -168.100; -672.000; -726.000
390.761; -126.100; -732.000; -645.000
390.890;   39.100;   -4.000; -130.000
391.019;  -49.900; -421.000; -441.000
391.148; -241.400; -826.000; -855.000
391.277; -119.000; -576.000; -493.000
391.406; -159.500; -821.000; -805.000
391.534;   73.400;  574.000; -301.000
391.663; -115.800; -583.000; -645.000
391.792; -133.900; -673.000; -701.000
391.921;  220.500;   -3.000;   15.000
392.050;  298.000; -287.000; -228.000
392.178; -130.500;-1206.000;-1061.000
392.307;  182.700; -758.000; -712.000
392.436;   99.100; -427.000; -641.000
392.564;   71.900;  166.000;   -6.000
392.693; -188.900; -860.000; -682.000
392.822;  339.400; -529.000; -534.000
392.950;  107.600; -880.000; -714.000
393.079;  484.900; -188.000; -328.000
393.208;   48.100; -488.000; -511.000
393.336;   22.400; -170.000; -145.000
393.465;  -59.600; -317.000; -199.000
393.593;   39.000;   62.000;   79.000
393.722; -302.400;-1121.000; -916.000
393.850;  -32.300; -188.000;  -61.000
393.979; -295.400; -926.000; -805.000
394.107;  -79.400; -517.000; -537.000
394.236;  -57.100; -570.000; -507.000
394.364;  491.100;  383.000;  206.000
394.493;  803.700; -911.000; -767.000
394.621;  -38.700; -955.000; -916.000
394.750;  963.800; -873.000; -923.000
394.878; 4109.500; -247.000; -149.000
395.007; 5271.700; -721.000; -807.000
395.135;  296.900; -790.000; -721.000
395.263; -227.200;-1038.000;-1040.000
395.392;   47.500;  -25.000; -107.000
395.520; -225.700; -818.000; -679.000
395.648; -166.600; -865.000; -915.000
395.777;  -21.800; -366.000; -405.000
395.905;  -90.900; -449.000; -564.000
396.033;  101.400;  217.000;  172.000
396.162; 1373.100; -399.000; -453.000
396.290; 1131.400;  -17.000;   -2.000
396.418;  147.200; -555.000; -514.000
396.546; -163.900; -571.000; -466.000
396.674; -229.600; -850.000; -878.000
396.803;   65.300;  -72.000;  -23.000
396.931;  141.900; -179.000; -199.000
397.059;    9.300;-1026.000; -989.000
397.187; -221.200;-1026.000; -975.000
397.315; -230.600; -884.000; -649.000
397.443; -161.500; -592.000; -443.000
397.572; -162.800; -578.000; -424.000
397.700;  -62.900; -607.000; -614.000
397.828;   96.100;  120.000;  -90.000
397.956;  -94.800; -508.000; -478.000
398.084; -152.400; -767.000; -626.000
398.212;   92.300;  137.000;  124.000
398.340;   50.700;  -56.000;  159.000
398.468;   35.700; -390.000; -169.000
398.596; -222.400; -993.000; -953.000
398.724; -215.700; -762.000; -767.000
398.852; -292.100;-1024.000; -976.000
398.980; -121.800; -560.000; -560.000
399.108; -140.600; -982.000; -735.000
399.236;   75.100;   13.000;    8.000
399.363;   72.500;  222.000;  196.000
399.491; -112.100; -404.000; -398.000
399.619; -220.200; -829.000; -800.000
399.747; -191.500; -859.000; -771.000
399.875;  187.600;  220.000;  234.000
400.003;  -58.800; -359.000; -284.000
400.130; -163.200; -421.000; -341.000
400.258;  -26.900;  -83.000;   38.000
400.386;  -99.100; -352.000; -168.000
400.514;  -97.000; -526.000; -587.000
400.641; -200.900; -928.000; -802.000
400.769; -280.700; -979.000; -888.000
400.897; -228.400; -838.000; -793.000
401.025;    0.700; -166.000; -152.000
401.152;   44.000;  220.000;   38.000
401.280; -107.200; -430.000; -429.000
401.408; -258.600; -712.000; -576.000
401.535; -191.300; -735.000; -758.000
401.663; -339.100;-1134.000;-1054.000
401.790; -148.900; -514.000; -525.000
401.918;  115.400;  436.000;  405.000
402.046;   29.300;  134.000;  122.000
402.173;  -14.000;  -18.000;    7.000
402.301;  -86.000; -519.000; -397.000
402.428;  117.200;  528.000;  383.000
402.556; -281.500;-1188.000; -913.000
402.683;  -35.400;  -20.000;   -1.000
402.811;  -19.300;  -37.000; -206.000
402.938;   41.200;   20.000;   27.000
403.066;  303.800; -574.000; -558.000
403.193;  488.600;  299.000;  239.000
403.321;  395.300; -396.000; -574.000
403.448;  546.900;   83.000;   27.000
403.575;  231.100;  -90.000;  -46.000
403.703; -201.100; -732.000; -557.000
403.830;  -99.300; -531.000; -496.000
403.957; -290.000;-1117.000;-1023.000
404.085;   23.500;  -61.000; -172.000
404.212;  148.000;  -50.000;   63.000
404.339;  408.000; -566.000; -306.000
404.467; 8146.600; -612.000; -524.000
404.594; 5066.800; -287.000; -227.000
404.721; 1107.200; -869.000; -764.000
404.848;  125.900; -113.000; -202.000
404.976; -177.000; -856.000; -783.000
405.103;  -10.500;  -14.000;  -82.000
405.230;   37.200;  190.000;  226.000
405.357;   53.600;  117.000;   44.000
405.484;  420.900;  -49.000;    5.000
405.612;   29.000; -548.000; -563.000
405.739; -109.000; -488.000; -243.000
405.866;  203.300;  669.000;  385.000
405.993; -100.800; -398.000; -102.000
406.120; -237.200; -801.000; -887.000
406.247;  -78.600; -323.000; -342.000
406.374;  764.400;  540.000;  629.000
406.501;  132.700; -632.000; -702.000
406.628; -163.100; -621.000; -589.000
406.755; -167.400; -803.000; -620.000
406.882;  -79.100; -228.000; -277.000
407.009; -214.200; -719.000; -628.000
407.136;   79.700; -480.000; -401.000
407.263;  117.200; -939.000; -829.000
407.390; -156.300; -692.000; -614.000
407.517; -328.900;-1139.000;-1187.000
407.644; -119.200; -332.000; -256.000
407.771; -139.700; -249.000; -287.000
407.898;   76.400;  168.000;  328.000
408.025; -105.000; -421.000; -313.000
408.151;   -2.900;   82.000;  153.000
408.278; -114.300; -267.000; -216.000
408.405; -221.100; -931.000; -899.000
408.532; -103.100; -549.000; -542.000
408.659; -217.300; -677.000; -648.000
408.785; -379.700;-1298.000;-1170.000
408.912;  -98.700; -412.000; -296.000
409.039; -176.400; -610.000; -686.000
409.166; -174.900; -591.000; -555.000
409.292; -176.200; -571.000; -534.000
409.419; -223.800; -665.000; -649.000
409.546; -149.700; -431.000; -192.000
409.672; -215.100; -713.000; -545.000
409.799;  -16.000;  -36.000;   34.000
409.926;  -66.600; -180.000; -179.000
410.052; -324.800;-1127.000;-1091.000
410.179; -122.200; -368.000; -392.000
410.305; -141.100; -375.000; -493.000
410.432;  -71.500; -220.000; -333.000
410.558; -139.100; -305.000; -380.000
410.685; -176.400; -688.000; -431.000
410.812; -168.700; -409.000; -588.000
410.938; -255.500; -964.000; -808.000
411.065; -162.000; -671.000; -645.000
411.191;  -13.200; -189.000; -174.000
411.317; -224.500; -823.000; -742.000
411.444;  -91.100; -317.000; -246.000
411.570; -113.700; -339.000; -294.000
411.697; -211.300; -758.000; -752.000
411.823; -310.800; -989.000; -999.000
411.949;  -10.500;  -56.000;   17.000
412.076; -188.200; -539.000; -519.000
412.202; -235.100; -758.000; -757.000
412.329; -222.300; -798.000; -752.000
412.455; -205.000; -821.000; -657.000
412.581;  -14.900;  -15.000;  172.000
412.707; -120.600; -540.000; -457.000
412.834;   72.800;  156.000;  219.000
412.960; -148.700; -785.000; -784.000
413.086; -184.800; -743.000; -701.000
413.212;  334.000;  604.000;  578.000
413.339; -148.200; -685.000; -701.000
413.465;    9.400; -364.000; -310.000
413.591; -154.700; -757.000; -474.000
413.717;  -57.300; -358.000; -366.000
413.843; -231.900; -839.000; -861.000
413.969;  -94.000;  -47.000; -292.000
414.096; -192.100; -679.000; -679.000
414.222;    3.400;  -33.000;   85.000
414.348;  -64.600; -652.000; -385.000
414.474;  170.300;   38.000;  -52.000
414.600;  -16.400; -126.000; -144.000
414.726;   15.500;  -96.000;  -55.000
414.852; -117.400; -365.000; -342.000
414.978;   93.600;  104.000;  -18.000
415.104;   96.900;   38.000;   80.000
415.230;   28.700; -329.000; -330.000
415.356;   27.500; -409.000; -514.000
415.482;  278.400;   13.000;  -35.000
415.608;  355.700; -247.000; -323.000
415.734; 1445.700;   67.000;   38.000
415.860;29394.100; -875.000; -767.000
415.986;18938.100; -685.000; -607.000
416.111; 1530.200; -798.000; -652.000
416.237;  285.900; -424.000; -571.000
416.363; 1664.000; -765.000; -733.000
416.489; 5674.400; -324.000; -251.000
416.615;  490.800; -707.000; -742.000
416.741;  -90.800; -677.000; -784.000
416.866; -176.900; -673.000; -736.000
416.992; -226.200; -801.000; -818.000
417.118;  -15.900;  -41.000;  -80.000
417.244; -153.100; -798.000; -531.000
417.369; -153.900; -801.000; -612.000
417.495;   -4.600; -325.000; -254.000
417.621; -222.200;-1015.000; -803.000
417.746;   15.300; -579.000; -572.000
417.872;   67.900; -254.000; -144.000
417.998;   34.000; -515.000; -530.000
418.123; 1560.000;-1073.000; -845.000
418.249; 7252.600; -512.000; -601.000
418.374;  858.900; -916.000; -824.000
418.500;  103.700; -383.000; -482.000
418.626;  225.800;   70.000;  -59.000
418.751;  157.700; -549.000; -448.000
418.877;  264.400; -637.000; -643.000
419.002; 2834.900; -688.000; -560.000
419.128;17495.400; -930.000; -721.000
419.253; 3692.100; -967.000; -837.000
419.379;  472.800; -391.000; -338.000
419.504;  589.700;  325.000;  415.000
419.629;  660.200; -393.000; -212.000
419.755; 5439.700; -317.000; -254.000
419.880;29182.000;  -98.000;   67.000
420.006;16273.500; -280.000; -221.000
420.131;40125.800; -662.000; -775.000
420.256; 5215.600; -315.000; -316.000
420.382;  662.600; -665.000; -687.000
420.507;   27.300; -649.000; -778.000
420.632;  203.800; -337.000; -339.000
420.758;  397.900; -251.000; -425.000
420.883; -188.200; -876.000; -672.000
421.008; -209.400; -775.000; -619.000
421.133; -127.800; -509.000; -467.000
421.259;  -74.400; -325.000; -259.000
421.384; -230.300; -834.000; -693.000
421.509; -100.500;-1052.000; -862.000
421.634; 1855.800; -936.000; -820.000
421.759;  727.400; -359.000; -327.000
421.885;  -93.600; -717.000; -656.000
422.010; -152.600; -673.000; -542.000
422.135; -260.000; -695.000; -727.000
422.260;   93.200;  340.000;  280.000
422.385;  -61.600;   12.000;  -98.000
422.510;   65.200;  151.000;  -26.000
422.635;   59.000;  -87.000;  -43.000
422.760;  102.800; -766.000; -791.000
422.885;   95.000;  -57.000;  -80.000
423.010;  -46.900; -112.000; -169.000
423.135; -161.800; -481.000; -561.000
423.260;   -0.400; -150.000; -245.000
423.385;  159.700;  476.000;  222.000
423.510;   90.600;   71.000;  -22.000
423.635;  143.200;  133.000;   45.000
423.760;  125.300;  383.000;  328.000
423.885;  148.000;  336.000;  391.000
424.010;   45.900;  -68.000;  -13.000
424.135;   13.200;    5.000;  -33.000
424.259; -149.800; -654.000; -457.000
424.384;  -82.900; -279.000; -272.000
424.509;  -16.800; -260.000; -186.000
424.634; -154.200; -761.000; -623.000
424.759;  -62.300; -688.000; -544.000
424.883;  -11.900; -506.000; -527.000
425.008;  236.300; -502.000; -410.000
425.133; 2843.700; -679.000; -653.000
425.258; 1148.100; -517.000; -381.000
425.382; 1618.900; -867.000; -774.000
425.507; 3830.500; -487.000; -543.000
425.632;  585.300; -802.000; -663.000
425.756;  645.600; -256.000; -146.000
425.881; 9891.500; -831.000; -857.000
426.006;23587.100; -604.000; -355.000
426.130; 3316.700; -696.000; -508.000
426.255;  410.300; -611.000; -491.000
426.379;  220.900; -189.000; -577.000
426.504;  633.300;  660.000;  544.000
426.629; 5927.700; -519.000; -466.000
426.753; 3662.000;   64.000;  -46.000
426.878;  391.000; -252.000; -288.000
427.002;  194.300; -651.000; -668.000
427.127; 2518.300;  -35.000; -158.000
427.251;16104.300;  372.000;  401.000
427.375; 4100.700; -191.000; -173.000
427.500; 3403.300; -616.000; -610.000
427.624; 1034.000; -234.000; -400.000
427.749;  167.000; -216.000; -225.000
427.873;  -61.100; -499.000; -412.000
427.997;  -51.100; -222.000; -230.000
428.122;  203.100;  795.000;  703.000
428.246;  215.900;  433.000;  434.000
428.371; -199.300; -869.000; -773.000
428.495; -191.600; -624.000; -646.000
428.619;  -27.100; -186.000; -117.000
428.743;  105.500;   65.000;  132.000
428.868;   12.000; -732.000; -643.000
428.992; 2170.500; -219.000; -326.000
429.116;  758.100; -329.000; -357.000
429.240;  412.700;  419.000;  426.000
429.365;  -56.300; -454.000; -574.000
429.489;  -83.800; -638.000; -647.000
429.613;   43.600; -236.000; -177.000
429.737;   17.100; -563.000; -432.000
429.861;  413.200; -247.000; -133.000
429.985; 8321.600; -425.000; -305.000
430.109; 8044.900; -770.000; -908.000
430.234;  914.900;   76.000;  -50.000
430.358;   78.800; -250.000; -160.000
430.482; -163.600; -672.000; -564.000
430.606; -120.100; -655.000; -375.000
430.730;   19.600; -437.000; -388.000
430.854;  139.800; -909.000; -835.000
430.978; -130.900; -795.000; -764.000
431.102; -133.700; -499.000; -422.000
431.226; -222.800; -874.000; -815.000
431.350;   60.100;  345.000;  422.000
431.474; -124.500; -661.000; -373.000
431.597; -266.900;-1060.000; -848.000
431.721; -127.900; -276.000; -267.000
431.845; -189.900; -704.000; -472.000
431.969; -120.000; -304.000; -349.000
432.093; -131.500; -395.000; -317.000
432.217;   14.800;   32.000;   82.000
432.341; -157.000; -523.000; -518.000
432.464;   32.900;   96.000;   40.000
432.588;  298.300; -401.000; -329.000
432.712;  152.900;  -52.000;  -52.000
432.836;  103.300;  213.000;  263.000
432.959;  -28.600; -372.000; -311.000
433.083;  152.500;   11.000;    2.000
433.207;  589.000;  285.000;  930.000
433.330; 7483.300; -391.000; -200.000
433.454; 8205.300; -654.000; -638.000
433.578; 4936.900;  583.000;  278.000
433.701;  743.100; -623.000; -675.000
433.825;  166.400; -292.000; -299.000
433.949;  303.900;   28.000;  -72.000
434.072;   60.500; -410.000; -323.000
434.196;  -24.900; -309.000; -117.000
434.319; 7905.600;25482.000;25124.000
434.443; 1092.500; -656.000; -603.000
434.566; 3629.300;  281.000;   62.000
434.690;  509.600; -637.000; -383.000
434.813;   74.700; -251.000; -173.000
434.937; -151.600; -569.000; -696.000
435.060;  -65.700; -423.000; -332.000
435.184;  473.700; -492.000; -217.000
435.307;  264.600;  159.000;  102.000
435.431;   10.800;  -40.000;   24.000
435.554; -102.100; -399.000; -240.000
435.677; -139.000; -350.000; -258.000
435.801;  -26.700;  -25.000;   49.000
435.924;   17.800;    1.000;  -67.000
436.048; -238.200;-1019.000; -732.000
436.171; -101.700; -240.000;  -66.000
436.294;  -45.400; -248.000; -229.000
436.417;   47.300; -963.000; -849.000
436.541; -210.600; -814.000; -840.000
436.664;  -64.500; -242.000; -316.000
436.787;  -15.500;   13.000;  113.000
436.910; -200.800; -792.000; -422.000
437.034;   56.600;  142.000;  143.000
437.157;  127.100;  -11.000;    0.000
437.280; -108.500; -392.000; -292.000
437.403; -135.500; -982.000; -869.000
437.526; 1045.700; -903.000; -865.000
437.649; 3511.200; -505.000; -332.000
437.772;  392.600; -692.000; -540.000
437.896;  261.900;  700.000;  544.000
438.019; -177.900; -758.000; -503.000
438.142; -163.600; -596.000; -506.000
438.265;  -63.900; -639.000; -670.000
438.388;  817.900; -520.000; -410.000
438.511;  124.400; -597.000; -394.000
438.634;  -78.000; -247.000; -125.000
438.757; -248.100; -693.000; -619.000
438.880;  -38.100;  -34.000;  -57.000
439.003; -167.100; -417.000; -437.000
439.126; -116.800; -287.000; -167.000
439.248;  -55.400;  -98.000; -139.000
439.371;  -44.600;    9.000;  -53.000
439.494;   89.700;  510.000;  439.000
439.617;  -45.100;   65.000;  -88.000
439.740; -330.800; -968.000; -816.000
439.863; -239.500; -755.000; -595.000
439.986; -190.200; -476.000; -431.000
440.108;  -65.600; -161.000; -112.000
440.231; -309.900; -950.000; -836.000
440.354;  -48.600;  -64.000; -150.000
440.477;  -11.200; -566.000; -542.000
440.599;  -17.900; -200.000; -225.000
440.722; -220.800; -709.000; -586.000
440.845;  216.100;  751.000;  928.000
440.968; -172.900; -415.000; -311.000
441.090;  -75.500; -199.000;  -33.000
441.213; -306.700;-1021.000; -825.000
441.336;  -56.000; -159.000;   -5.000
441.458; -120.500; -549.000; -396.000
441.581; -172.600; -628.000; -629.000
441.703;  -95.600; -152.000;   13.000
441.826; -198.600; -557.000; -400.000
441.948;  -57.400;   56.000;   51.000
442.071;  126.600;  555.000;  424.000
442.193; -191.400; -531.000; -485.000
442.316;   82.600;  152.000;   97.000
442.438;   74.500; -233.000;  -10.000
442.561;  170.500;  272.000;  262.000
442.683;  901.000; -809.000; -522.000
442.806; 1775.100;   -8.000;   74.000
442.928;  -57.700; -859.000; -604.000
443.051;  -90.700; -577.000; -373.000
443.173; -162.700; -341.000; -339.000
443.295; -145.100; -263.000; -371.000
443.418; -105.500; -321.000;  -29.000
443.540;   19.400; -106.000;   -4.000
443.662; -207.700; -563.000; -465.000
443.785;   23.000;  335.000;  199.000
443.907; -207.300; -362.000; -208.000
444.029; -211.600; -767.000; -494.000
444.152; -250.300; -644.000; -554.000
444.274;    1.400;  -18.000;  -24.000
444.396; -202.900; -461.000; -221.000
444.518; -225.400; -691.000; -454.000
444.640; -167.100; -268.000; -111.000
444.763;   22.500;  388.000;  249.000
444.885; -209.500; -432.000; -392.000
445.007;  -44.300;   35.000;   86.000
445.129; -198.800; -610.000; -515.000
445.251; -171.200; -372.000; -439.000
445.373; -246.100; -537.000; -386.000
445.495;   59.900;  242.000;  350.000
445.617;  158.100;  853.000;  753.000
445.739; -106.200; -215.000;  -97.000
445.861;  -36.100; -245.000; -112.000
445.984;  -61.700; -267.000; -101.000
446.105;  352.300; -418.000; -251.000
446.227;  963.800; -176.000;  -19.000
446.349;  -15.700; -358.000; -249.000
446.471; -181.600; -615.000; -448.000
446.593;  -95.200; -316.000;   19.000
446.715;    9.200;  -67.000;   41.000
446.837;  168.400;  697.000;  832.000
446.959; -181.800; -457.000; -478.000
447.081; -221.800; -628.000; -518.000
447.203;  184.600;  862.000;  834.000
447.325; -116.200; -270.000;   42.000
447.446;    7.500;  286.000;  530.000
447.568; -301.600; -921.000; -803.000
447.690; -106.100; -236.000; -245.000
447.812; -254.800; -798.000; -519.000
447.933;  -10.200;  155.000;  127.000
448.055;  -84.900; -306.000; -261.000
448.177;  271.400;   31.000;   79.000
448.299;   61.000; -935.000; -727.000
448.420;   57.400;  -25.000;  159.000
448.542;  -30.900;   -3.000;   33.000
448.664;   20.900;  109.000;  322.000
448.785;  -23.000;  265.000;   83.000
448.907; -118.000; -614.000; -353.000
449.028;  -68.900; -771.000; -471.000
449.150;  181.800;  492.000;  589.000
449.272; -337.500;-1044.000; -913.000
449.393;  123.200;  612.000;  694.000
449.515; -252.700; -634.000; -581.000
449.636;  -90.900; -264.000; -155.000
449.758;  202.700;  763.000;  622.000
449.879; -164.500; -498.000; -396.000
450.001; -119.300; -149.000;  -49.000
450.122;  -25.000;  -95.000;  162.000
450.244;   -2.100;   37.000;  364.000
450.365; -136.000; -495.000; -301.000
450.486;  -17.800;   80.000;  268.000
450.608;   27.100;  393.000;  326.000
450.729;  198.900;  578.000;  645.000
450.850;  -26.500; -574.000; -466.000
450.972; 1065.500; -552.000; -389.000
451.093; 7093.600;  190.000;  588.000
451.214; 2650.800; -516.000; -337.000
451.336;  570.200;  773.000;  579.000
451.457;  114.900;  264.000;  393.000
451.578;  -17.600; -118.000;  -74.000
451.699; -206.300; -546.000; -540.000
451.821;  -93.500; -284.000;  -50.000
451.942;   41.000;  278.000;  285.000
452.063;   89.600;  228.000;  419.000
452.184;  850.200;  -54.000;  -49.000
452.305; 1513.300;  103.000;  170.000
452.427;  108.200; -549.000; -301.000
452.548;   13.300;   23.000;   79.000
452.669;  -94.900; -257.000;  -89.000
452.790;  -50.000;    3.000;  -18.000
452.911;   27.100;  195.000;  259.000
453.032;  -85.000; -289.000;  -60.000
453.153;  -52.300;  -29.000;   81.000
453.274;  215.700;  737.000;  868.000
453.395;  -41.600;  -51.000;  175.000
453.516;  353.200; 1317.000; 1388.000
453.637;  -89.300; -205.000; -150.000
453.758;  -64.400;   15.000;   69.000
453.879; -180.400; -462.000; -250.000
454.000;  234.800; 1086.000;  948.000
454.121; -190.800; -554.000; -326.000
454.242; -194.500; -599.000; -383.000
454.362;  -94.400;  -99.000;  114.000
454.483;  -64.700; -309.000; -229.000
454.604;  108.100;  512.000;  580.000
454.725; -206.800; -627.000; -555.000
454.846; -207.200; -474.000; -406.000
454.967;   15.800;  230.000;  539.000
455.087;   -3.500;  179.000;  153.000
455.208;   99.600;  554.000;  856.000
455.329;  -84.100;  -22.000;   82.000
455.450;  141.900;  473.000;  633.000
455.570; -117.900; -234.000; -211.000
455.691;   -9.000;  201.000;  407.000
455.812; -170.200; -270.000;  -92.000
455.932;  -72.500;  107.000;  -97.000
456.053; -101.700;   36.000;   24.000
456.173; -143.800; -433.000; -355.000
456.294; -246.300; -476.000; -303.000
456.415; -109.300;  -73.000;   70.000
456.535;    6.500;  297.000;  273.000
456.656;  -59.600;  132.000;  240.000
456.776;  -96.900;    3.000;  298.000
456.897;   53.400;  308.000;  513.000
457.017; -140.100; -153.000;   -3.000
457.138; -174.800; -402.000; -249.000
457.258;   -0.500;  263.000;  224.000
457.379;   41.500;  509.000;  521.000
457.499;  -18.000;  443.000;  432.000
457.620; -197.800; -407.000; -231.000
457.740; -144.000; -132.000;  -11.000
457.860;  -67.700;   87.000;   44.000
457.981;  -37.200;  132.000;  124.000
458.101; -102.300;  -89.000;   40.000
458.221;    6.400;  336.000;  402.000
458.342;  -98.600;   -4.000;  -37.000
458.462;   74.600;  617.000;  352.000
458.582;  -66.900; -302.000; -294.000
458.703;   37.600;  303.000;  154.000
458.823;  -24.100;   22.000;  163.000
458.943;   72.500;  341.000;  467.000
459.063;   -6.100; 1124.000;  192.000
459.183;  -32.000;  328.000;  313.000
459.304;   48.800;  315.000;  517.000
459.424;  -85.500; -246.000;  -89.000
459.544;  571.000;  388.000;  764.000
459.664; 1169.800;  499.000;  506.000
459.784;  484.000; 1004.000; 1175.000
459.904;  116.600;  867.000;  744.000
460.024;  172.500;  867.000;  684.000
460.144;   74.100;  449.000;  554.000
460.264;   41.600;  515.000;  327.000
460.385; -153.000; -145.000; -119.000
460.505;  130.800;  905.000;  858.000
460.625; -134.100;  -17.000;  -68.000
460.745;    2.000;  396.000;  541.000
460.864;  -72.000;  153.000;  469.000
460.984;   80.500;  499.000;  573.000
461.104;  324.800; 1656.000; 1775.000
461.224;   78.200;  657.000;  650.000
461.344;   23.100;  431.000;  360.000
461.464;   19.800;  258.000;  513.000
461.584;    2.700;  283.000;  466.000
461.704;  -82.200;   58.000;  108.000
461.824;  -44.400;  238.000;  259.000
461.943;    6.200;  191.000;  130.000
462.063; -118.900;    2.000;  324.000
462.183;  111.900;  639.000;  717.000
462.303;  247.100; 1678.000; 1230.000
462.422;  113.600;  781.000;  840.000
462.542;  -42.300;  271.000;  391.000
462.662;   84.000;  353.000;  380.000
462.782;  399.600;  833.000;  572.000
462.901;  739.100;  545.000;  717.000
463.021;  527.800; 1702.000; 1638.000
463.141;    1.200;  337.000;  770.000
463.260;   38.800;  614.000;  474.000
463.380;   77.900;  902.000;  884.000
463.499;  -40.300;  342.000;  332.000
463.619;  -13.700;  581.000;  559.000
463.738;  292.500; 1644.000;  903.000
463.858;   76.300;  657.000;  811.000
463.978;  -11.500;  542.000;  396.000
464.097;  101.500;  921.000; 1114.000
464.217;  275.600; 1196.000; 1143.000
464.336;  264.600; 1068.000; 1130.000
464.455;  -30.900;  328.000;  659.000
464.575;  132.200;  597.000;  602.000
464.694;  350.200; 1204.000; 1179.000
464.814;  283.600; 1190.000; 1138.000
464.933;  195.600; 1095.000; 1027.000
465.052;  238.000; 1412.000; 1054.000
465.172;  177.700;  922.000;  799.000
465.291;  335.000; 1376.000; 1320.000
465.410;   66.900;  462.000;  735.000
465.530;  252.700; 1355.000; 1310.000
465.649;  178.100; 1209.000; 1273.000
465.768;  331.500; 1673.000; 1508.000
465.888;  155.600;  941.000; 1174.000
466.007;  223.600; 1335.000; 1440.000
466.126;   48.000;  721.000;  641.000
466.245;  144.200; 1176.000; 1187.000
466.364;   96.300;  950.000; 1060.000
466.484;  143.500; 1024.000; 1213.000
466.603;  118.900; 1101.000; 1222.000
466.722;  298.100; 1490.000; 1769.000
466.841;  229.200; 1151.000; 1401.000
466.960;  129.400; 1069.000;  972.000
467.079;  358.900; 1971.000; 1786.000
467.198;  126.900; 1238.000; 1181.000
467.317;  225.100; 1768.000; 1162.000
467.436;  200.400; 1709.000; 1261.000
467.555;  338.300; 1796.000; 1746.000
467.674;  196.900; 1227.000; 1329.000
467.793;  171.000; 1376.000; 1374.000
467.912;  237.700; 1658.000; 1539.000
468.031;  340.800; 2038.000; 1930.000
468.150;  341.900; 1842.000; 1837.000
468.269;  447.800; 2313.000; 2090.000
468.388;  433.700; 2168.000; 2339.000
468.507;  617.400; 2884.000; 2903.000
468.626;  605.400; 2555.000; 2541.000
468.744;  358.400; 2018.000; 2174.000
468.863;  487.500; 2312.000; 2523.000
468.982;  223.400; 1503.000; 1555.000
469.101;  499.000; 2788.000; 2692.000
469.220;  393.200; 2333.000; 2176.000
469.338;  559.100; 2935.000; 3051.000
469.457;  417.000; 2719.000; 2545.000
469.576;  768.200; 3953.000; 3784.000
469.695;  552.100; 2877.000; 3066.000
469.813;  946.600; 4148.000; 4192.000
469.932;  868.000; 4255.000; 4485.000
470.051;  858.800; 4075.000; 4161.000
470.169; 1517.500; 4470.000; 4338.000
470.288; 2410.100; 4700.000; 4809.000
470.406; 1533.900; 5059.000; 5194.000
470.525; 1275.500; 6101.000; 5787.000
470.644; 1383.200; 6847.000; 6794.000
470.762; 1698.800; 8397.000; 7873.000
470.881; 1881.600; 8651.000; 8464.000
470.999; 2145.000; 9685.000; 9151.000
471.118; 2317.400;11174.000;10711.000

