
Integration time [ms]: 200.000
Averaging Nr. [scans]: 10
Smoothing Nr. [pixels]: 0
Data measured with spectrometer [name]: 2101012U2
Wave   ;Sample   ;Dark     ;Reference
[nm]   ;[counts] ;[counts] ;[counts] 

197.733;  111.000;  516.000;  404.000
197.879; -161.300; -610.000; -634.000
198.025; -144.100; -475.000; -420.000
198.171; -190.400; -602.000; -612.000
198.317;  -65.900; -401.000; -316.000
198.463; -137.200; -655.000; -404.000
198.609;   51.400;  181.000; -137.000
198.755; -176.600; -644.000; -410.000
198.901; -119.000; -505.000; -424.000
199.047; -141.600; -615.000; -488.000
199.193;  -49.100; -230.000; -468.000
199.339;  -68.500; -222.000; -369.000
199.485;   92.900;  330.000;  271.000
199.631;   52.100;  227.000;  310.000
199.777; -142.900; -466.000; -398.000
199.923; -152.700; -610.000; -424.000
200.069;   -7.700; -141.000;  -58.000
200.215;  118.400;  128.000;  453.000
200.361;   99.900;  243.000;  477.000
200.507; -133.100; -600.000; -373.000
200.653;  -46.500; -371.000; -194.000
200.798;  -60.700; -215.000; -125.000
200.944;   -0.600; -146.000;  -41.000
201.090;   77.800;   61.000;  222.000
201.236;   -5.800; -116.000; -158.000
201.382;  239.900;  874.000;  903.000
201.528;    8.200;  -58.000;  -48.000
201.674; -127.000; -386.000; -293.000
201.819; -141.400; -540.000; -439.000
201.965; -170.600; -699.000; -447.000
202.111;  -37.400; -273.000; -226.000
202.257;  -79.500; -250.000; -238.000
202.402;   23.500;   13.000;  -36.000
202.548;  -32.600; -169.000; -116.000
202.694;  159.700;  410.000; -183.000
202.840; -173.100; -603.000; -531.000
202.985; -164.600; -681.000; -639.000
203.131; -210.100; -832.000; -666.000
203.277;  -58.400; -199.000; -262.000
203.423; -151.400; -434.000; -520.000
203.568;  -95.600; -462.000; -237.000
203.714; -105.500; -535.000; -542.000
203.860; -173.100; -682.000; -641.000
204.005;   11.700;  112.000;  167.000
204.151;  130.900;  561.000;  556.000
204.296; -111.000; -354.000; -221.000
204.442; -140.100; -600.000; -547.000
204.588; -172.600; -592.000; -579.000
204.733;   13.600;  178.000;  168.000
204.879; -267.700;-1018.000; -822.000
205.025;   38.700;  -99.000;  126.000
205.170;   10.900;  -17.000;   94.000
205.316;  178.400;  438.000;  661.000
205.461; -212.200; -698.000; -554.000
205.607;  162.100;  609.000;  665.000
205.752; -186.900; -626.000; -551.000
205.898;  -93.600; -501.000; -391.000
206.043; -155.900; -578.000; -506.000
206.189;  -76.600; -243.000; -285.000
206.334;  191.300;  554.000;  606.000
206.480;  158.900;  409.000;  239.000
206.625; -179.100; -529.000; -552.000
206.771; -132.500; -451.000; -373.000
206.916;  -63.600; -210.000; -537.000
207.062; -149.700; -545.000; -591.000
207.207; -145.600; -546.000; -443.000
207.353;   99.800;  185.000;  460.000
207.498;   20.600;  196.000;   85.000
207.643; -102.600; -501.000; -370.000
207.789; -269.000;-1069.000; -910.000
207.934; -213.800; -665.000; -713.000
208.080;  -55.700; -154.000;   66.000
208.225;  -20.300;  -22.000;  -57.000
208.370; -188.600; -727.000; -619.000
208.516; -168.700; -741.000; -487.000
208.661;  -59.400; -127.000;  -69.000
208.806;  -30.400; -165.000; -171.000
208.952; -279.200;-1044.000; -731.000
209.097;  149.600;  378.000;  349.000
209.242;  -85.100; -307.000; -382.000
209.387;  107.300;  392.000;  350.000
209.533; -104.800; -321.000; -350.000
209.678;  168.000;  472.000;  543.000
209.823; -105.600; -408.000; -310.000
209.969; -210.200; -860.000; -757.000
210.114; -237.000; -907.000; -719.000
210.259; -239.400; -939.000; -889.000
210.404;   -0.200; -171.000;  103.000
210.549;   27.600;  108.000;    3.000
210.695;  -32.000;   -3.000;  -95.000
210.840;   49.200;   94.000;   67.000
210.985; -139.100; -484.000; -303.000
211.130;  157.800;  268.000;  406.000
211.275;   28.400;  207.000;  199.000
211.420; -128.700; -300.000; -289.000
211.566; -139.500; -536.000; -489.000
211.711;   30.400;  218.000;  157.000
211.856; -140.400; -545.000; -519.000
212.001;   36.000;  151.000;   44.000
212.146;   26.600;  153.000;   49.000
212.291;  -44.800; -210.000; -186.000
212.436;  -56.200; -280.000;   -6.000
212.581; -139.100; -685.000; -653.000
212.726; -178.100; -487.000; -538.000
212.871;  -92.300; -552.000; -217.000
213.016; -316.200;-1172.000;-1029.000
213.161;  145.200;  406.000;  291.000
213.306; -143.500; -435.000; -577.000
213.451; -212.000; -778.000; -689.000
213.596;  -79.300; -455.000; -347.000
213.741; -140.600; -448.000; -538.000
213.886; -168.100; -498.000; -517.000
214.031;  -72.400; -294.000; -124.000
214.176;  -93.600; -408.000; -341.000
214.321;  -51.800; -296.000; -157.000
214.466;  -70.500; -163.000;  -43.000
214.611;   20.600;  -61.000;  -10.000
214.756; -266.800; -948.000; -858.000
214.901;  -46.800; -388.000; -226.000
215.046; -267.800; -797.000; -825.000
215.191;   41.100;  128.000;   35.000
215.336;  -32.100; -157.000;  -19.000
215.480; -137.000; -684.000; -505.000
215.625;  -21.900; -175.000;  -19.000
215.770; -169.500; -757.000; -662.000
215.915;    4.400;   -5.000;  -97.000
216.060;  -15.700; -113.000;  -21.000
216.205; -241.000; -731.000; -779.000
216.349; -139.300; -470.000; -533.000
216.494; -276.300; -939.000; -867.000
216.639; -229.200; -823.000; -888.000
216.784; -168.800; -577.000; -525.000
216.929;  117.100;  392.000;  281.000
217.073;  -15.800; -244.000;  -31.000
217.218;   -0.100;   78.000;  -47.000
217.363; -163.900; -656.000; -618.000
217.507; -143.100; -623.000; -588.000
217.652; -273.000; -845.000; -874.000
217.797; -194.000; -708.000; -659.000
217.942; -232.500; -856.000; -720.000
218.086;  137.100;  608.000;  539.000
218.231;  -52.300; -174.000;  -26.000
218.376;  -56.500; -337.000; -229.000
218.520;  -12.000;  -41.000;   96.000
218.665;  -64.400; -338.000; -204.000
218.810;  -79.900; -275.000; -233.000
218.954;   61.600;  201.000;   35.000
219.099; -244.100; -713.000; -963.000
219.243; -156.000; -589.000; -554.000
219.388;  -55.000; -264.000; -136.000
219.532;  -31.900; -116.000; -116.000
219.677; -167.500; -564.000; -521.000
219.822;   11.400;   33.000;   89.000
219.966;   14.400;   17.000;  -99.000
220.111;  -59.000; -328.000;  -40.000
220.255; -204.700; -797.000; -750.000
220.400;  -62.300; -180.000; -146.000
220.544; -150.300; -516.000; -450.000
220.689; -107.900; -422.000; -451.000
220.833;  -42.600; -123.000;  -58.000
220.978;  -88.500; -393.000; -563.000
221.122;   21.100;  319.000;  307.000
221.267; -221.500; -906.000; -837.000
221.411; -137.400; -478.000; -394.000
221.555;   -7.200; -104.000;  -23.000
221.700; -113.200; -329.000; -222.000
221.844;   81.100;  255.000;  272.000
221.989;  -84.500; -328.000; -311.000
222.133;  -67.800; -289.000; -307.000
222.277;   -4.600;    5.000;   78.000
222.422;   29.500;  227.000;  113.000
222.566;  -99.500; -381.000; -214.000
222.711; -110.800; -414.000; -479.000
222.855; -138.600; -643.000; -586.000
222.999; -187.800; -642.000; -717.000
223.144;  -39.400; -195.000; -194.000
223.288;  138.100;  423.000;  251.000
223.432;   25.000;  184.000;  230.000
223.576;   56.300;  152.000;  -21.000
223.721;  111.600;  364.000;  273.000
223.865; -119.200; -472.000; -475.000
224.009;  411.200; 1673.000; 1631.000
224.153; -134.600; -660.000; -671.000
224.298; -158.500; -531.000; -489.000
224.442;  -29.700;  -74.000;  -33.000
224.586;  -48.200; -169.000; -106.000
224.730; -190.700; -858.000; -670.000
224.875; -214.400; -739.000; -688.000
225.019;   20.500;  102.000;  188.000
225.163;  113.800;  208.000;  341.000
225.307;   23.400;   97.000;  -91.000
225.451;   96.400;  360.000;  481.000
225.595;   90.000;  264.000;  176.000
225.739;  -28.800; -170.000;  -94.000
225.884;   14.000;   86.000;    5.000
226.028; -190.000; -760.000; -626.000
226.172;  -70.700; -260.000; -273.000
226.316; -229.700; -941.000; -902.000
226.460; -139.700; -645.000; -493.000
226.604;  -79.100; -406.000; -400.000
226.748; -207.300; -836.000; -733.000
226.892;  -46.400; -227.000; -181.000
227.036;  -90.600; -537.000; -447.000
227.180;  -99.600; -551.000; -375.000
227.324; -162.000; -561.000; -580.000
227.468; -224.800; -819.000; -717.000
227.612;   60.100;  242.000;  -28.000
227.756; -254.700; -845.000; -698.000
227.900;  121.400;  342.000;  441.000
228.044; -109.000; -509.000; -290.000
228.188;  127.700;  448.000;  568.000
228.332; -169.600; -546.000; -472.000
228.476;  -65.800; -223.000; -149.000
228.620;  -49.000; -210.000; -150.000
228.764;  159.400;  431.000;  349.000
228.908;  -21.900; -155.000;   30.000
229.052; -144.400; -615.000; -528.000
229.195;  -13.100; -172.000;   13.000
229.339;  -67.300; -235.000; -305.000
229.483;  -47.200;    5.000; -162.000
229.627;  -25.700; -156.000;  139.000
229.771;  -79.300; -218.000; -294.000
229.915;   31.400;  230.000;   79.000
230.059; -179.800; -648.000; -663.000
230.202;  -85.300; -370.000; -317.000
230.346;  -23.200; -107.000;  107.000
230.490;  -90.600; -489.000; -521.000
230.634; -221.300; -736.000; -553.000
230.777;  163.700;  478.000;  509.000
230.921; -142.400; -450.000; -359.000
231.065;  -75.400; -246.000; -286.000
231.209;   56.000;  261.000;  265.000
231.352;   47.200;   54.000;   40.000
231.496;   54.900;  568.000;  188.000
231.640; -152.800; -693.000; -621.000
231.783;  144.600;  546.000;  525.000
231.927;  -84.800; -294.000; -365.000
232.071; -241.800; -962.000; -736.000
232.214; -238.800; -980.000; -764.000
232.358; -188.600; -683.000; -599.000
232.502;   -7.400;  -19.000;    7.000
232.645; -285.900;-1090.000; -927.000
232.789;  -29.200; -257.000; -218.000
232.933;  -87.100; -407.000; -224.000
233.076; -244.800;-1038.000; -897.000
233.220; -213.000; -752.000; -777.000
233.363; -159.600; -669.000; -477.000
233.507;  138.700;  371.000;  129.000
233.650; -192.200; -764.000; -834.000
233.794;   84.900;  438.000;  461.000
233.938; -120.300; -530.000; -362.000
234.081;  -44.100;  -93.000;   31.000
234.225; -141.500; -631.000; -539.000
234.368; -223.000; -773.000; -723.000
234.512;  -96.200; -385.000; -299.000
234.655; -183.600; -582.000; -555.000
234.798; -118.000; -493.000; -466.000
234.942; -238.700; -884.000;-1002.000
235.085; -125.500; -651.000; -443.000
235.229; -161.900; -405.000; -410.000
235.372;  -94.400; -247.000; -191.000
235.516; -119.700; -397.000; -321.000
235.659;   47.400;   92.000;  121.000
235.802;  -50.000;  -38.000;  -22.000
235.946;   38.800;  335.000;  215.000
236.089;   47.200;  126.000;  250.000
236.233;  108.500;  275.000;  298.000
236.376; -103.300; -235.000; -378.000
236.519; -112.700; -297.000; -319.000
236.663;  -34.800; -215.000; -117.000
236.806; -275.600;-1029.000; -999.000
236.949;  163.200;  543.000;  431.000
237.092;  134.000;  412.000;  391.000
237.236; -181.200; -589.000; -502.000
237.379;  172.600;  352.000;  428.000
237.522; -258.000; -879.000; -768.000
237.666;  -20.500; -271.000;   18.000
237.809; -264.600; -851.000; -823.000
237.952;   81.000;  469.000;  271.000
238.095; -126.200; -447.000; -442.000
238.238;  164.500;  688.000;  700.000
238.382;   17.600;  166.000;  103.000
238.525; -137.100; -598.000; -511.000
238.668; -260.300;-1060.000; -985.000
238.811; -140.100; -638.000; -643.000
238.954; -112.900; -483.000; -334.000
239.097;  216.700;  617.000;  664.000
239.241;   97.900;  394.000;  326.000
239.384;  -74.900; -254.000; -214.000
239.527;  -85.200; -424.000; -224.000
239.670; -278.100; -994.000;-1091.000
239.813; -238.400; -696.000; -658.000
239.956;  144.700;  579.000;  473.000
240.099; -236.000; -778.000; -725.000
240.242;  158.200;  428.000;  432.000
240.385;   75.500;  466.000;  450.000
240.528; -158.200; -706.000; -473.000
240.671;   18.900;  189.000;  134.000
240.814;  -87.700; -441.000; -158.000
240.957; -194.300; -767.000; -578.000
241.100; -180.200; -779.000; -755.000
241.243; -268.200;-1234.000; -893.000
241.386; -107.300; -508.000; -379.000
241.529; -186.300; -735.000; -547.000
241.672; -123.500; -566.000; -495.000
241.815; -236.700; -832.000; -808.000
241.958;  -24.500; -125.000; -182.000
242.101; -169.700; -545.000; -390.000
242.244;  -83.600; -270.000; -325.000
242.387;  -65.100; -304.000; -246.000
242.530;  139.200;  470.000;  134.000
242.673; -106.200; -381.000; -309.000
242.815; -223.200; -925.000; -899.000
242.958; -152.400; -482.000; -381.000
243.101;   29.500;  132.000;  187.000
243.244; -153.000; -564.000; -521.000
243.387; -115.800; -313.000; -316.000
243.530; -172.300; -657.000; -674.000
243.672;  -23.600;   43.000;  -92.000
243.815; -104.200; -355.000; -283.000
243.958;   19.000;   98.000;  -26.000
244.101;   -2.000;   59.000;  -16.000
244.243;    0.300;  -47.000;  101.000
244.386; -215.400; -761.000; -630.000
244.529;  -43.600; -132.000; -139.000
244.672; -300.200;-1154.000; -951.000
244.814; -203.900; -621.000; -794.000
244.957; -131.300; -380.000; -304.000
245.100; -136.400; -489.000; -489.000
245.242; -131.100; -387.000; -374.000
245.385;   23.500;  -59.000;  -39.000
245.528; -219.900; -871.000; -705.000
245.670;  183.900;  612.000;  634.000
245.813; -181.700; -599.000; -547.000
245.956;  -52.700; -324.000; -275.000
246.098; -132.700; -508.000; -650.000
246.241;    9.700;  194.000;   48.000
246.383;  -11.300; -119.000;  -73.000
246.526; -158.200; -454.000; -525.000
246.669; -220.900; -889.000; -780.000
246.811;   22.200;  172.000;   -1.000
246.954; -107.700; -512.000; -426.000
247.096;  -33.100;  -84.000;   -6.000
247.239; -138.700; -482.000; -445.000
247.381; -138.500; -647.000; -488.000
247.524;  165.700;  645.000;  679.000
247.666;    6.400;   58.000;   11.000
247.809; -253.600; -887.000; -691.000
247.951;  -11.700;  -75.000;  138.000
248.094;   74.200;  432.000;  308.000
248.236; -330.600;-1262.000;-1238.000
248.378;  -32.300; -356.000;  -81.000
248.521;  -64.800; -334.000; -337.000
248.663;  -84.400; -236.000; -267.000
248.806;  -59.600; -300.000; -266.000
248.948; -234.300; -886.000; -763.000
249.090; -111.000; -428.000; -398.000
249.233; -113.900; -344.000; -381.000
249.375; -122.800; -474.000; -451.000
249.518;  -35.300;  -83.000; -133.000
249.660;    2.700; -103.000;    3.000
249.802; -344.500;-1303.000;-1189.000
249.945; -170.100; -612.000; -540.000
250.087; -232.000; -834.000; -768.000
250.229;  -81.600; -362.000; -480.000
250.371; -157.200; -494.000; -439.000
250.514;  -87.600; -310.000; -244.000
250.656;   18.500;   69.000;  102.000
250.798; -227.500; -849.000; -800.000
250.940; -106.000; -322.000; -322.000
251.083;  -53.400; -335.000; -111.000
251.225;  114.900;  338.000;  310.000
251.367; -101.400; -274.000; -373.000
251.509;  -52.300; -265.000; -210.000
251.651; -185.200; -731.000; -671.000
251.794;  105.300;  538.000;  632.000
251.936; -234.900; -821.000; -747.000
252.078; -154.400; -540.000; -461.000
252.220; -145.200; -645.000; -477.000
252.362;  113.000;  344.000;  462.000
252.504; -151.300; -677.000; -584.000
252.646; -222.600; -875.000; -722.000
252.788;  -11.200;   14.000; -128.000
252.931;  -79.400; -257.000; -253.000
253.073;  -94.000; -376.000; -317.000
253.215;    0.800;  141.000;  122.000
253.357;   -3.100;   82.000; -153.000
253.499; -120.000; -374.000; -234.000
253.641; -173.800; -749.000; -594.000
253.783; -183.400; -609.000; -527.000
253.925; -179.900; -586.000; -591.000
254.067; -230.100; -744.000; -667.000
254.209;  -66.300; -391.000; -259.000
254.351; -270.300; -865.000; -883.000
254.493; -125.600; -441.000; -417.000
254.635; -241.000; -936.000; -818.000
254.777; -188.300; -752.000; -687.000
254.918; -172.600; -512.000; -430.000
255.060; -132.600; -551.000; -395.000
255.202;  -90.900; -473.000; -261.000
255.344; -164.500; -658.000; -455.000
255.486; -116.800; -471.000; -406.000
255.628; -217.900; -780.000; -781.000
255.770; -170.100; -676.000; -536.000
255.912; -131.000; -559.000; -468.000
256.053; -181.200; -730.000; -508.000
256.195;  322.400; 1008.000;  903.000
256.337; -207.500; -861.000; -595.000
256.479;  159.300;  532.000;  416.000
256.621; -102.100; -394.000; -212.000
256.762; -195.000; -789.000; -742.000
256.904;  132.600;  485.000;  487.000
257.046;  -88.300; -381.000; -271.000
257.188;  -91.800; -351.000; -264.000
257.329; -131.900; -525.000; -464.000
257.471; -232.300; -939.000; -807.000
257.613; -127.500; -584.000; -498.000
257.755; -283.600;-1073.000; -982.000
257.896;   71.400;  286.000;  392.000
258.038; -145.500; -403.000; -352.000
258.180;  -81.200; -354.000; -279.000
258.321; -171.300; -581.000; -457.000
258.463;   18.900;  -71.000;  133.000
258.605; -158.900; -562.000; -570.000
258.746; -215.400; -886.000; -772.000
258.888; -275.300;-1026.000;-1020.000
259.029;   61.600;  121.000;   -8.000
259.171; -172.200; -614.000; -550.000
259.313;  -22.700;  -49.000;  -47.000
259.454; -136.800; -536.000; -414.000
259.596;  -92.900; -483.000; -390.000
259.737; -139.400; -590.000; -474.000
259.879;   91.700;  217.000;  311.000
260.020;  172.000;  901.000;  636.000
260.162;  -63.000; -146.000; -253.000
260.303; -229.100; -768.000; -687.000
260.445; -173.500; -609.000; -613.000
260.586;   43.100;  392.000;  157.000
260.728; -101.100; -360.000; -248.000
260.869; -152.800; -350.000; -343.000
261.011;  194.700;  706.000;  537.000
261.152; -148.700; -479.000; -319.000
261.293; -143.200; -576.000; -595.000
261.435;  -62.200; -219.000; -184.000
261.576;  -92.400; -455.000; -325.000
261.718;  105.800;  420.000;  470.000
261.859; -230.300; -940.000; -949.000
262.000; -270.900; -951.000;-1016.000
262.142;  -41.700;  -52.000;  -60.000
262.283; -247.500; -808.000; -691.000
262.424; -146.800; -666.000; -625.000
262.566; -308.500;-1161.000; -983.000
262.707; -205.500; -840.000; -830.000
262.848; -253.400; -769.000; -726.000
262.990;  -72.900; -362.000; -345.000
263.131;  194.600;  650.000;  681.000
263.272;   10.000;  -61.000;  -41.000
263.413; -159.700; -589.000; -561.000
263.555; -149.100; -669.000; -143.000
263.696; -142.600; -550.000; -641.000
263.837; -105.200; -449.000; -551.000
263.978;   31.000;   -5.000;  -77.000
264.119;  -96.800; -283.000; -264.000
264.261; -268.700; -847.000; -630.000
264.402;   -1.400;   33.000;   40.000
264.543; -174.200; -509.000; -524.000
264.684;   -6.300;   61.000;  -50.000
264.825; -145.300; -816.000; -538.000
264.966;   -1.100;  -84.000;  -67.000
265.107; -238.200; -646.000; -670.000
265.248; -232.100; -825.000; -812.000
265.390;   11.500;  152.000;   -9.000
265.531;  -68.500; -238.000; -107.000
265.672; -165.900; -557.000; -630.000
265.813;  163.200;  563.000;  439.000
265.954; -274.300; -959.000; -940.000
266.095;  -42.400; -372.000; -322.000
266.236; -186.200; -686.000; -548.000
266.377;  -81.600; -243.000; -297.000
266.518; -115.300; -619.000; -547.000
266.659;   56.300;  170.000;  268.000
266.800;   18.300;   83.000;   85.000
266.941; -174.100; -487.000; -478.000
267.082;   27.600;  354.000;   99.000
267.223; -106.400; -344.000; -273.000
267.364; -214.000; -892.000; -686.000
267.504;   -6.400;    3.000;  135.000
267.645;  -10.900;  160.000;   67.000
267.786;  -42.800; -147.000;  -86.000
267.927; -129.400; -473.000; -379.000
268.068;  -24.900; -186.000;  -61.000
268.209;  -56.200; -175.000; -413.000
268.350;  -74.800; -388.000; -532.000
268.490; -207.900; -648.000; -521.000
268.631;   62.500;  127.000;  225.000
268.772; -220.900; -874.000; -647.000
268.913; -102.300; -328.000; -476.000
269.054;  -15.700; -117.000;   12.000
269.194;  -91.900; -418.000; -402.000
269.335; -297.300;-1137.000;-1074.000
269.476;  -45.700;   33.000;  -35.000
269.617; -101.400; -347.000; -392.000
269.757; -199.300; -713.000; -646.000
269.898; -188.600; -856.000; -613.000
270.039; -130.400; -415.000; -405.000
270.180; -280.600; -952.000; -816.000
270.320;  -50.500; -190.000; -250.000
270.461;  -54.600; -277.000; -249.000
270.602;  -26.200; -186.000; -156.000
270.742; -251.200; -868.000; -943.000
270.883; -129.000; -442.000; -390.000
271.023; -101.100; -358.000; -357.000
271.164; -149.600; -607.000; -528.000
271.305; -188.100; -666.000; -654.000
271.445; -173.600; -722.000; -683.000
271.586; -147.100; -462.000; -283.000
271.726; -115.300; -397.000; -322.000
271.867; -140.400; -594.000; -534.000
272.008;   92.400; -473.000; -285.000
272.148;  177.100;  462.000;  468.000
272.289;  -21.000; -113.000; -181.000
272.429;   25.500;   19.000;  185.000
272.570; -192.000; -633.000; -737.000
272.710; -213.600; -825.000; -775.000
272.851;  -20.200;  113.000; -130.000
272.991; -324.800;-1173.000;-1077.000
273.131; -119.200; -419.000; -459.000
273.272; -185.000; -683.000; -723.000
273.412;  -38.100; -143.000;  -31.000
273.553; -127.700; -488.000; -507.000
273.693;  249.800;  913.000;  858.000
273.834; -247.800; -894.000; -692.000
273.974; -136.200; -664.000; -615.000
274.114; -196.200; -772.000; -560.000
274.255;  102.400;  414.000;  373.000
274.395;  -26.600; -180.000; -125.000
274.535;   85.100;  199.000;  350.000
274.676;   40.200;  225.000;   94.000
274.816;   31.000;  110.000;   34.000
274.956; -210.300; -624.000; -690.000
275.097; -219.900;-1014.000; -922.000
275.237; -182.900; -913.000; -803.000
275.377; -191.000; -778.000; -689.000
275.517; -311.200; -878.000; -937.000
275.658; -126.500; -590.000; -555.000
275.798; -153.500; -606.000; -413.000
275.938;   79.100;  215.000;  323.000
276.078; -203.500; -626.000; -395.000
276.218;   13.800;   99.000;  104.000
276.359; -298.900;-1026.000;-1024.000
276.499; -144.100; -605.000; -446.000
276.639;  -76.600; -305.000; -151.000
276.779;  -85.400; -475.000; -357.000
276.919; -215.600; -783.000; -624.000
277.059;  -29.300; -261.000; -212.000
277.199; -109.900; -357.000; -259.000
277.340;  117.600;  287.000;  175.000
277.480; -233.100; -840.000; -693.000
277.620;   89.700;  192.000;   16.000
277.760; -385.100;-1533.000;-1294.000
277.900;    6.400;  113.000;   33.000
278.040;   22.700;  137.000;  159.000
278.180;   72.900;  270.000;  170.000
278.320;    9.000;   21.000;   56.000
278.460; -106.700; -443.000; -469.000
278.600; -164.200; -708.000; -598.000
278.740;   84.000;  448.000;  224.000
278.880; -216.000; -768.000; -791.000
279.020;  -24.700; -194.000; -144.000
279.160; -155.900; -672.000; -595.000
279.300; -219.700; -926.000; -873.000
279.440; -189.300; -709.000; -622.000
279.579; -196.200;-1014.000; -929.000
279.719; -135.900; -410.000; -394.000
279.859;   41.700;   -4.000;   41.000
279.999;  -20.800; -208.000;  101.000
280.139;  -85.100; -435.000; -387.000
280.279; -185.800; -708.000; -745.000
280.419;    1.000; -229.000; -147.000
280.559;  -74.700; -259.000; -180.000
280.698; -158.000; -790.000; -639.000
280.838; -216.000; -778.000; -800.000
280.978; -194.100; -846.000; -790.000
281.118; -205.700; -811.000; -704.000
281.257;   14.400;   24.000;    6.000
281.397; -288.500;-1094.000; -960.000
281.537; -179.600; -599.000; -712.000
281.677;  -39.200; -150.000; -101.000
281.816; -149.000; -700.000; -630.000
281.956;  -37.200; -193.000; -257.000
282.096;  -96.300; -539.000; -396.000
282.235; -184.600; -672.000; -638.000
282.375;  -45.700; -243.000;  -98.000
282.515; -174.300; -715.000; -707.000
282.654;   54.500;   29.000;  106.000
282.794;   85.300;  388.000;  244.000
282.934;  -96.600; -530.000; -491.000
283.073; -257.100;-1030.000; -857.000
283.213;  -83.000; -460.000; -467.000
283.353;  -67.800; -408.000; -349.000
283.492;  -60.600; -264.000; -296.000
283.632;  -95.700; -254.000; -168.000
283.771; -182.400; -859.000; -730.000
283.911; -124.900; -369.000; -260.000
284.050; -205.400; -794.000; -748.000
284.190; -303.800;-1229.000;-1096.000
284.329; -290.000;-1055.000; -964.000
284.469; -149.300; -516.000; -591.000
284.608; -131.900; -559.000; -598.000
284.748; -142.700; -614.000; -570.000
284.887;  -29.100;  -87.000;  -20.000
285.027; -255.900; -844.000; -892.000
285.166;  -70.300; -192.000; -249.000
285.306;   -2.700; -116.000;  -33.000
285.445;  -61.900; -229.000; -343.000
285.584; -170.900; -630.000; -494.000
285.724;  -77.100; -282.000; -322.000
285.863; -200.900; -857.000; -507.000
286.002;  -63.900; -366.000; -276.000
286.142; -195.700; -715.000; -622.000
286.281; -139.300; -525.000; -493.000
286.420; -127.900; -554.000; -417.000
286.560;  178.700;  653.000;  623.000
286.699; -277.400; -958.000; -912.000
286.838; -175.800; -590.000; -591.000
286.978; -158.000; -533.000; -537.000
287.117; -272.100;-1085.000; -950.000
287.256;  -66.300; -228.000; -211.000
287.395;  -73.300; -197.000; -378.000
287.535; -125.000; -370.000; -298.000
287.674; -135.700; -509.000; -484.000
287.813;  115.000;  661.000;  533.000
287.952; -244.000;-1010.000; -871.000
288.091; -290.300;-1049.000; -915.000
288.231;   62.200;   13.000;   15.000
288.370; -352.500;-1217.000;-1200.000
288.509; -171.800; -728.000; -645.000
288.648; -180.100; -770.000; -548.000
288.787;  -62.000; -243.000;  -87.000
288.926; -127.300; -454.000; -475.000
289.065;  250.400;  859.000;  672.000
289.204; -160.900; -377.000; -217.000
289.344; -198.400; -791.000; -690.000
289.483;   39.100;  416.000;  304.000
289.622;  -46.800; -291.000; -149.000
289.761;    5.800; -309.000; -166.000
289.900; -188.100; -785.000; -626.000
290.039;  -56.800;  -12.000;  -95.000
290.178;  -40.700; -274.000; -180.000
290.317; -175.600; -618.000; -479.000
290.456; -130.900; -463.000; -451.000
290.595; -298.000; -961.000; -833.000
290.734; -256.000; -904.000; -891.000
290.873; -131.600; -456.000; -420.000
291.011; -216.600; -833.000; -843.000
291.150; -211.100; -770.000; -682.000
291.289;  -37.200; -343.000; -110.000
291.428; -177.800; -599.000; -480.000
291.567; -102.900; -370.000; -442.000
291.706;   23.400;  109.000;  154.000
291.845; -145.300; -597.000; -505.000
291.984; -314.600;-1234.000;-1061.000
292.122;  166.100;  602.000;  582.000
292.261;  133.200;  620.000;  463.000
292.400;    3.700; -144.000;  211.000
292.539; -214.800; -959.000; -813.000
292.678;  -30.900; -325.000; -300.000
292.816; -308.900;-1136.000; -965.000
292.955; -193.600; -844.000; -684.000
293.094;  -41.700; -173.000; -337.000
293.233; -118.100; -556.000; -400.000
293.371;  -62.000; -225.000;  -84.000
293.510; -187.700; -866.000; -780.000
293.649; -259.000; -959.000; -924.000
293.787; -215.800;-1083.000;-1012.000
293.926;  -28.600; -113.000;  -32.000
294.065;  -59.200; -379.000; -290.000
294.203;   82.000;  298.000;  406.000
294.342;   71.000;   74.000;  156.000
294.481;11654.900;51180.000; -836.000
294.619;  -81.000; -425.000; -582.000
294.758; -297.100;-1230.000;-1137.000
294.896;   54.900; -125.000;    5.000
295.035; -272.200;-1040.000;-1006.000
295.174; -266.700;-1082.000; -954.000
295.312;  -77.200; -323.000; -203.000
295.451;  -45.500; -307.000; -428.000
295.589; -140.000; -389.000; -518.000
295.728;   39.700; -292.000; -165.000
295.866;   21.300;  -36.000;  -51.000
296.005; -131.800; -584.000; -341.000
296.143; -142.500; -558.000; -596.000
296.282; -196.400; -957.000; -881.000
296.420; -184.300; -657.000; -557.000
296.559; -180.000; -892.000; -633.000
296.697; -100.400; -847.000; -665.000
296.835; -129.800;-1141.000;-1002.000
296.974;   75.800;  -23.000;   39.000
297.112;  -58.800; -443.000; -504.000
297.251; -183.900; -815.000; -755.000
297.389;  -18.400; -576.000; -438.000
297.527;   45.800; -145.000;  -83.000
297.666; -136.600; -486.000; -438.000
297.804; -112.400; -404.000; -264.000
297.942;  -19.200; -136.000; -161.000
298.081;   -9.300; -183.000;   63.000
298.219;   45.800;  -17.000;  -19.000
298.357;  -23.200; -144.000;  -71.000
298.495; -131.500; -810.000; -812.000
298.634;   54.200;  245.000;  219.000
298.772;  -14.700; -220.000; -338.000
298.910;  -84.100; -309.000; -182.000
299.048;   31.200; -130.000; -153.000
299.187;  -53.900; -350.000; -250.000
299.325;   19.300;   52.000;  122.000
299.463;  -35.800; -389.000; -299.000
299.601;   11.300; -327.000; -271.000
299.739; -237.300; -908.000; -883.000
299.877; -180.500; -791.000; -703.000
300.016; -247.500;-1095.000; -935.000
300.154;   81.200;  -19.000; -161.000
300.292;  -45.600; -428.000; -348.000
300.430;  -47.600; -408.000; -291.000
300.568; -222.900; -940.000; -874.000
300.706; -101.500; -366.000; -469.000
300.844; -261.700;-1108.000; -979.000
300.982;  170.000;  246.000;  282.000
301.120; -255.400; -965.000; -866.000
301.258; -186.200; -812.000; -705.000
301.396;   36.300;  104.000;  -41.000
301.534;  -14.600; -218.000; -293.000
301.672;  -86.900; -664.000; -521.000
301.810; -111.900; -613.000; -545.000
301.948;  113.300;   53.000;  149.000
302.086;  373.400; -250.000;  -32.000
302.224;  571.100; -610.000; -585.000
302.362;  -95.600; -558.000; -622.000
302.500; -154.700; -923.000; -893.000
302.638;   98.000;  128.000;  245.000
302.776;  -48.300; -352.000; -408.000
302.913;   80.100;  447.000;  236.000
303.051;  -41.900;  -86.000;  -23.000
303.189;   42.900;   90.000;  118.000
303.327;  -75.600; -341.000; -256.000
303.465; -185.900; -832.000; -588.000
303.603; -172.000; -805.000; -604.000
303.740;  139.500;  417.000;  241.000
303.878; -137.600; -800.000; -759.000
304.016; -195.100; -915.000; -790.000
304.154; -302.600;-1123.000;-1152.000
304.291; -110.500; -505.000; -554.000
304.429;   18.600;  102.000;   74.000
304.567; -246.400; -908.000; -893.000
304.705;  -83.200; -408.000; -515.000
304.842;  -15.400; -616.000; -540.000
304.980;   74.400;  215.000;   35.000
305.118;  -10.700; -367.000; -365.000
305.255; -212.500; -945.000; -927.000
305.393;  103.100;  178.000;  239.000
305.531; -273.400;-1173.000; -956.000
305.668; -164.500; -663.000; -582.000
305.806;   21.800; -358.000; -439.000
305.943;  -31.000; -629.000; -637.000
306.081;   11.200; -378.000; -267.000
306.219; -215.600; -863.000; -748.000
306.356;   47.200;  158.000;   27.000
306.494;  329.000;  981.000;  761.000
306.631;   38.000;  -11.000;  -55.000
306.769;  -24.900; -613.000; -485.000
306.906;   24.000; -284.000; -258.000
307.044;  -52.300; -473.000; -488.000
307.181;  -97.600; -410.000; -332.000
307.319;  122.100;  112.000;   87.000
307.456; -324.800;-1191.000;-1153.000
307.594; -193.400; -980.000; -727.000
307.731;  -38.000; -371.000; -164.000
307.868;   21.200;  -15.000;   20.000
308.006; -238.300; -961.000; -847.000
308.143; -103.300; -618.000; -330.000
308.281;  115.000;  -37.000; -254.000
308.418;  -90.500; -748.000; -640.000
308.555; -103.800; -400.000; -250.000
308.693; -122.400; -577.000; -573.000
308.830; -168.400; -712.000; -657.000
308.967;   18.600; -215.000;  -95.000
309.105;  -16.600; -507.000; -396.000
309.242;   64.200; -468.000; -367.000
309.379;  207.300; -577.000; -655.000
309.517; -143.000; -936.000; -948.000
309.654; -148.300; -910.000; -734.000
309.791; -102.100; -662.000; -580.000
309.928; -200.500; -977.000; -914.000
310.065;  322.700;  819.000;  697.000
310.203; -115.600; -825.000; -850.000
310.340;   -7.300; -465.000; -321.000
310.477; -140.400; -412.000; -516.000
310.614;  -70.000; -383.000; -473.000
310.751;  -83.200; -427.000; -518.000
310.889;   -0.600;    1.000;   11.000
311.026; -287.800;-1161.000; -939.000
311.163;  -55.700; -386.000; -380.000
311.300; -124.700; -512.000; -479.000
311.437; -118.400; -658.000; -619.000
311.574; -272.600;-1226.000; -985.000
311.711; -104.400; -595.000; -433.000
311.848;  -40.600; -380.000; -388.000
311.985;   57.000;  270.000;   93.000
312.122; -218.300; -932.000; -762.000
312.259; -206.800; -941.000; -994.000
312.396;  -89.800; -508.000; -551.000
312.533; -133.000; -812.000; -790.000
312.670; -238.200;-1070.000; -898.000
312.807;   -5.200; -352.000; -367.000
312.944; -110.400; -513.000; -611.000
313.081;  -50.200; -150.000; -415.000
313.218; -207.200;-1111.000; -867.000
313.355;  -39.800; -531.000; -449.000
313.492;  -24.000; -455.000; -292.000
313.629;  265.000;  815.000;  735.000
313.766; -261.200;-1176.000;-1008.000
313.902;  -11.000; -186.000;   21.000
314.039;  -64.300; -372.000; -289.000
314.176;  119.100;  286.000;  192.000
314.313; -133.000; -569.000; -473.000
314.450; -127.000; -788.000; -684.000
314.587; -119.600; -468.000; -480.000
314.723;   37.100;  -78.000;  130.000
314.860;   82.100;  318.000;  332.000
314.997;   74.200;  223.000;  142.000
315.134;  -94.000; -385.000; -368.000
315.270; -101.000; -480.000; -496.000
315.407; -221.500;-1094.000; -967.000
315.544; -107.700; -657.000; -538.000
315.681; -141.700; -681.000; -565.000
315.817;   -8.400; -133.000; -176.000
315.954; -102.700; -613.000; -392.000
316.091; -264.000;-1045.000;-1023.000
316.227;   -3.500;  -71.000; -179.000
316.364;   28.800;   23.000;    6.000
316.500;  -40.300; -113.000; -300.000
316.637;  -32.600; -181.000; -302.000
316.774; -148.700; -625.000; -358.000
316.910; -152.800; -598.000; -629.000
317.047; -115.400; -487.000; -351.000
317.183;  -94.300; -435.000; -566.000
317.320;  -66.100; -367.000; -321.000
317.456; -147.700; -733.000; -805.000
317.593; -129.400; -598.000; -641.000
317.729;   28.500;  168.000;  -67.000
317.866; -387.800;-1434.000;-1285.000
318.002; -156.000; -708.000; -948.000
318.139; -239.600; -883.000; -867.000
318.275; -190.700;-1003.000; -738.000
318.412;  -88.600; -517.000; -336.000
318.548; -109.900; -751.000; -720.000
318.685; -231.200; -985.000; -888.000
318.821; -181.500; -762.000; -735.000
318.957;  -17.700;   34.000;  -23.000
319.094;   95.700;  297.000;  154.000
319.230; -158.800; -756.000; -742.000
319.367;   65.100; -471.000; -520.000
319.503;  -29.800; -538.000; -436.000
319.639; -203.500; -877.000; -793.000
319.775; -168.400; -750.000; -685.000
319.912; -120.300; -424.000; -519.000
320.048; -244.100;-1184.000;-1184.000
320.184;   75.800;   59.000;   70.000
320.321; -114.000; -497.000; -467.000
320.457;  125.500;  475.000;  662.000
320.593; -119.800; -375.000; -382.000
320.729; -193.200; -732.000; -734.000
320.866; -156.000; -577.000; -635.000
321.002; -180.000; -759.000; -809.000
321.138;  -35.200; -135.000; -211.000
321.274;   46.700; -148.000; -115.000
321.410; -101.900; -585.000; -353.000
321.546; -180.900;-1011.000; -911.000
321.683;  108.800;  400.000;  185.000
321.819;   24.900;  -48.000; -117.000
321.955; -236.700; -743.000; -722.000
322.091;  -95.900; -585.000; -540.000
322.227;  -51.000; -382.000; -202.000
322.363;  -42.400; -320.000; -215.000
322.499;  -80.000; -343.000; -331.000
322.635;  191.500;  636.000;  443.000
322.771;   -6.200; -139.000;   12.000
322.907;  107.500;  129.000;  327.000
323.043;  -45.100; -115.000; -206.000
323.179;  -73.400; -394.000; -363.000
323.315;  -82.800; -401.000; -371.000
323.451;   42.000; -328.000; -236.000
323.587;   44.300;  -60.000;  -77.000
323.723;  -80.600; -682.000; -601.000
323.859;  -53.800; -258.000;  -76.000
323.995;  -96.400; -467.000; -409.000
324.131; -232.100; -967.000; -892.000
324.267;  -48.700; -254.000; -276.000
324.402; -250.200; -960.000; -983.000
324.538;  -30.900; -279.000; -104.000
324.674;   36.600;  164.000;   77.000
324.810;  175.800;  226.000;  308.000
324.946;  -63.700; -810.000; -658.000
325.082; -124.700; -568.000; -475.000
325.217;  -12.600;  -62.000;   16.000
325.353; -182.900; -764.000; -659.000
325.489; -149.400; -540.000; -506.000
325.625; -112.300; -579.000; -525.000
325.760;  130.900;  517.000;  376.000
325.896;  -94.700; -515.000; -702.000
326.032;  -88.900; -403.000; -352.000
326.168;  -81.800; -462.000; -369.000
326.303;  -90.400; -352.000; -461.000
326.439;  -30.900; -336.000; -276.000
326.575;  -23.400; -190.000;  -29.000
326.710;  -16.600; -156.000;  -30.000
326.846;   -0.900;  146.000;  103.000
326.982; -147.100; -530.000; -548.000
327.117; -129.400; -481.000; -442.000
327.253; -206.300; -745.000; -742.000
327.388; -335.100;-1137.000;-1153.000
327.524; -126.600; -811.000; -578.000
327.659;  -21.400;  -58.000;  -22.000
327.795;    4.400;   69.000;   45.000
327.931; -158.700; -723.000; -499.000
328.066;  -56.300; -417.000; -276.000
328.202;  -76.300;   12.000; -129.000
328.337;  241.200;  957.000;  713.000
328.473;   -3.600;  -12.000;  -74.000
328.608;  -53.100; -256.000; -267.000
328.743; -173.500; -799.000; -664.000
328.879;   56.500;  214.000;  114.000
329.014; -125.900; -102.000; -122.000
329.150; -134.900; -358.000; -483.000
329.285; -144.000; -465.000; -466.000
329.421;  -79.800; -548.000; -246.000
329.556;  -13.300;  -36.000;   85.000
329.691; -167.400; -633.000; -615.000
329.827; -130.100; -626.000; -480.000
329.962;  -65.900;  131.000; -301.000
330.097; -181.300; -673.000; -585.000
330.233;  -55.200; -410.000; -223.000
330.368; -227.900; -839.000; -628.000
330.503;   -8.800;    3.000;   98.000
330.638;    6.200;  -93.000; -125.000
330.774; -140.100; -609.000; -530.000
330.909;  -91.200; -434.000; -244.000
331.044; -171.900; -714.000; -708.000
331.179; -314.600;-1217.000;-1109.000
331.315;   55.100;   77.000;   20.000
331.450;   27.400;  157.000;  285.000
331.585; -197.000; -805.000; -706.000
331.720; -141.000; -510.000; -460.000
331.855;  -22.300;  -35.000; -102.000
331.990;  197.300;   62.000;  138.000
332.126;   95.800; -110.000;   71.000
332.261;  -82.200; -379.000; -265.000
332.396;  -38.100; -135.000; -242.000
332.531; -254.900;-1074.000;-1031.000
332.666;  -31.000; -519.000; -363.000
332.801; -198.400; -726.000; -807.000
332.936;  -37.000; -192.000; -122.000
333.071; -286.400; -870.000; -817.000
333.206;   31.700;  307.000;  379.000
333.341;   95.700;  344.000;  418.000
333.476; -169.900; -627.000; -623.000
333.611;  -68.500; -251.000; -173.000
333.746;  -81.000; -381.000; -464.000
333.881; -232.900; -973.000; -935.000
334.016; -251.100; -936.000; -917.000
334.151; -246.000; -746.000; -702.000
334.286;   88.700;  152.000;  186.000
334.421;   -5.000; -125.000; -178.000
334.556; -162.400; -611.000; -567.000
334.690; -191.000; -631.000; -577.000
334.825;  118.900;  381.000;   83.000
334.960; -165.800; -285.000; -413.000
335.095;    1.200;  135.000;  -91.000
335.230; -225.800; -722.000; -738.000
335.365; -292.200;-1084.000; -990.000
335.499; -292.800;-1108.000;-1037.000
335.634;   28.400;    9.000;  534.000
335.769; -218.400; -755.000; -720.000
335.904; -143.300; -603.000; -561.000
336.038; -157.900; -735.000; -657.000
336.173; -272.700;-1206.000;-1194.000
336.308;  -34.800; -116.000; -189.000
336.443;  -38.500; -544.000; -634.000
336.577; -229.500; -936.000; -787.000
336.712;   18.500;   -4.000;  -12.000
336.847; -169.500; -724.000; -607.000
336.981;  -22.000; -272.000; -208.000
337.116;  219.900;  615.000;  501.000
337.250;   12.800; -434.000; -421.000
337.385;  107.000; -297.000; -208.000
337.520;  -38.400; -632.000; -603.000
337.654;  -74.200; -215.000; -126.000
337.789; -238.700; -989.000; -933.000
337.923;  -49.100; -104.000; -205.000
338.058; -210.000; -673.000; -738.000
338.192; -132.800; -611.000; -488.000
338.327;  -30.600;  -18.000; -155.000
338.461; -131.500; -299.000; -469.000
338.596; -172.400; -780.000; -638.000
338.730; -209.300; -767.000; -803.000
338.865;   49.900;  -46.000; -140.000
338.999; -210.800; -846.000; -702.000
339.134; -115.100; -634.000; -536.000
339.268; -119.400; -741.000; -603.000
339.403;   81.400; -740.000; -775.000
339.537;  -70.900; -894.000; -820.000
339.671; -209.900; -829.000; -813.000
339.806; -150.700; -556.000; -512.000
339.940;   -8.300; -261.000; -235.000
340.074; -192.300; -685.000; -510.000
340.209;  -72.300; -351.000; -230.000
340.343; -189.300; -517.000; -573.000
340.477;  311.700;  998.000; 1036.000
340.612; -195.300;-1033.000; -900.000
340.746;   42.500; -199.000; -243.000
340.880; -199.600; -924.000; -785.000
341.014;   -5.800;  -45.000; -154.000
341.149; -197.600; -756.000; -718.000
341.283; -213.900; -839.000; -754.000
341.417; -243.600;-1124.000; -938.000
341.551;  -34.200; -768.000; -708.000
341.685; -144.400; -633.000; -611.000
341.820; -131.200; -562.000; -493.000
341.954;  -99.900; -218.000; -349.000
342.088; -296.600;-1102.000;-1019.000
342.222;  103.800;  565.000;  618.000
342.356; -143.000; -395.000; -335.000
342.490; -235.100; -880.000; -841.000
342.624;  -49.500; -339.000; -242.000
342.758;  -61.200; -364.000; -312.000
342.892; -145.800; -710.000; -585.000
343.026;  -35.500;  -58.000; -116.000
343.160;  -98.800; -426.000; -376.000
343.294; -137.100; -474.000; -337.000
343.428;  -99.400; -488.000; -448.000
343.562;  -46.100; -172.000;  -23.000
343.696;  -54.600; -385.000; -314.000
343.830;  -80.800; -362.000; -356.000
343.964;    8.700; -231.000; -168.000
344.098;  704.400;  199.000;   70.000
344.232;  537.900; -266.000; -127.000
344.366;  -36.700; -567.000; -453.000
344.500;  -48.800; -665.000; -744.000
344.634;  -33.600; -324.000; -164.000
344.768;  -98.000; -531.000; -341.000
344.902;   60.400;  278.000;  256.000
345.035; -139.200; -556.000; -496.000
345.169; -258.300; -933.000; -656.000
345.303;  -90.100; -308.000; -482.000
345.437; -197.800; -826.000; -717.000
345.571; -180.300; -675.000; -594.000
345.704; -114.500; -309.000; -532.000
345.838;  -30.300; -331.000; -284.000
345.972; -131.100; -543.000; -495.000
346.106;  120.600; -179.000; -190.000
346.239;  247.600; -312.000; -243.000
346.373;  -43.500; -343.000; -302.000
346.507; -259.800; -950.000; -962.000
346.640;   87.700;  -30.000;   13.000
346.774; -151.500; -650.000; -797.000
346.908;  -24.800; -138.000;  -11.000
347.041; -177.900; -646.000; -593.000
347.175;   38.100;  259.000;   27.000
347.309; -159.700; -698.000; -628.000
347.442; -192.800; -883.000; -732.000
347.576;  323.600;  670.000;  668.000
347.709;  136.900; -123.000;  -52.000
347.843; -230.700; -933.000; -825.000
347.976;   80.000;  235.000;  294.000
348.110; -333.400;-1268.000;-1186.000
348.243; -211.100; -679.000; -772.000
348.377;    4.500;  -26.000;   60.000
348.510;  134.600;  403.000;  540.000
348.644;  -75.700;  -37.000; -159.000
348.777;   62.100;  180.000;  191.000
348.911;  -75.100; -142.000; -112.000
349.044;  210.300;  471.000;  448.000
349.178;  -76.000;-1069.000;-1006.000
349.311;  148.400;  141.000;  255.000
349.444; -174.100; -927.000; -813.000
349.578;  -37.100; -347.000; -200.000
349.711; -231.500; -959.000; -862.000
349.845; -112.800; -661.000; -591.000
349.978; -322.700;-1224.000;-1137.000
350.111; -164.400; -546.000; -612.000
350.244; -155.600; -596.000; -700.000
350.378;  -58.100; -392.000; -393.000
350.511; -122.000; -393.000; -426.000
350.644; -200.000; -808.000; -806.000
350.778;   13.800;  168.000;  104.000
350.911;   32.400;  134.000;  140.000
351.044; -192.600; -685.000; -615.000
351.177;  -84.000; -321.000; -281.000
351.310;  -55.800;    3.000; -131.000
351.444; -191.800; -888.000; -788.000
351.577;  117.500;  140.000;   90.000
351.710;  194.400;  593.000;  417.000
351.843;  -19.200; -165.000;  -77.000
351.976;   30.000;  149.000;  -79.000
352.109; -189.600; -621.000; -612.000
352.242;  -79.700; -464.000; -419.000
352.376; -128.700; -580.000; -636.000
352.509;   32.900; -437.000; -356.000
352.642; -207.600; -654.000; -604.000
352.775;   34.500; -141.000;  -98.000
352.908; -283.300; -933.000; -904.000
353.041; -221.500; -814.000; -824.000
353.174; -117.300; -551.000; -424.000
353.307; -199.600; -753.000; -764.000
353.440;  125.700;  541.000;  453.000
353.573; -229.400; -957.000;-1008.000
353.706; -184.000; -384.000; -558.000
353.839;  -56.600; -264.000; -220.000
353.971; -162.500; -657.000; -512.000
354.104; -203.400; -896.000; -835.000
354.237; -140.700; -627.000; -662.000
354.370; -200.400; -846.000; -879.000
354.503; -361.400;-1231.000;-1308.000
354.636; -111.200; -529.000; -348.000
354.769; -251.500; -937.000; -860.000
354.902;  -49.500; -230.000; -139.000
355.034;  -24.100; -164.000; -220.000
355.167;  -49.900; -262.000; -162.000
355.300; -244.200;-1061.000; -880.000
355.433;  672.500;  -71.000;  -14.000
355.565;  909.200; -402.000; -384.000
355.698;  205.600; -356.000; -296.000
355.831; -142.300; -882.000; -801.000
355.964;   13.700; -285.000; -170.000
356.096; -225.100; -856.000; -843.000
356.229;  -87.100; -523.000; -530.000
356.362;  157.500; -373.000; -266.000
356.494;  372.100; -229.000; -162.000
356.627;  367.300;  269.000;  377.000
356.760;  459.900;  120.000;   53.000
356.892;  500.600; -286.000; -601.000
357.025;  497.000;  403.000;  389.000
357.157;  413.400; -167.000; -179.000
357.290;  378.900; -856.000; -713.000
357.423;   38.700; -667.000; -556.000
357.555;   32.700; -217.000; -228.000
357.688;  -21.400; -483.000; -364.000
357.820;  134.900; -870.000; -877.000
357.953; 2458.600; -563.000; -589.000
358.085;  440.600; -632.000; -612.000
358.218;  594.800;-1131.000; -932.000
358.350;  149.400;  -58.000;  312.000
358.483; -317.800;-1300.000;-1187.000
358.615; -192.600;-1182.000;-1078.000
358.747; -257.100;-1187.000;-1058.000
358.880; -103.100; -810.000; -744.000
359.012;  -76.600; -376.000; -202.000
359.145; -144.000; -480.000; -511.000
359.277; -128.700; -962.000; -913.000
359.409; 2191.400;  536.000;  231.000
359.542;  387.500; -738.000; -688.000
359.674;   77.800;   46.000;   13.000
359.806; -137.800; -565.000; -438.000
359.939; -114.700; -617.000; -516.000
360.071; -127.400; -583.000; -579.000
360.203;  -13.100; -411.000; -364.000
360.335;   44.800;  164.000;  -16.000
360.468;   92.900; -249.000; -307.000
360.600; 1573.400; -547.000; -454.000
360.732; 1824.400; -546.000; -423.000
360.864;   49.000;-1216.000;-1044.000
360.996;  109.600; -516.000; -554.000
361.129;  -64.400; -389.000; -598.000
361.261;   31.200;  110.000; -113.000
361.393;  -61.900; -252.000; -214.000
361.525;   61.000;   94.000;  244.000
361.657; -140.600; -821.000; -703.000
361.789;  -14.900; -139.000; -155.000
361.921;   39.900; -642.000; -593.000
362.053;  293.100;  524.000;  541.000
362.185;   49.500;  288.000;   72.000
362.318; -182.200; -709.000; -705.000
362.450;  164.800;  294.000;  444.000
362.582; -117.500; -913.000; -870.000
362.714;  -59.500; -353.000; -332.000
362.846; -162.800; -606.000; -490.000
362.978; -274.900; -941.000; -811.000
363.109;  -17.900; -161.000; -260.000
363.241;  151.200; -739.000; -749.000
363.373;  167.100; -649.000; -564.000
363.505;  429.200; -186.000;  -91.000
363.637;   29.800; -787.000; -601.000
363.769; -271.200;-1067.000;-1080.000
363.901; -157.200; -596.000; -654.000
364.033; -261.300;-1103.000;-1062.000
364.165;  -47.000; -283.000; -283.000
364.296;  -30.400; -316.000; -177.000
364.428; -173.800;-1344.000;-1220.000
364.560; -138.900; -679.000; -661.000
364.692; -154.200; -738.000; -835.000
364.824;   92.200; -588.000; -456.000
364.955;  245.100; -402.000; -564.000
365.087;  437.900;-1097.000; -852.000
365.219; -109.300; -686.000; -816.000
365.351; -162.600; -526.000; -572.000
365.482;   82.600;  300.000;  240.000
365.614;  -90.200; -402.000; -314.000
365.746; -205.600; -729.000; -752.000
365.877; -197.900; -706.000; -672.000
366.009;  149.800;  -35.000;  -62.000
366.141; -268.300;-1249.000;-1134.000
366.272; -206.600; -803.000; -719.000
366.404; -210.000;-1005.000; -874.000
366.535;  -13.200; -139.000;  -12.000
366.667; -199.200; -644.000; -649.000
366.799;   97.600;  353.000;  203.000
366.930; -270.800; -862.000; -996.000
367.062;  -25.800; -639.000; -613.000
367.193;  -50.500; -872.000; -842.000
367.325; -137.300; -580.000; -684.000
367.456;    0.800; -246.000;   31.000
367.588;   82.200; -371.000; -318.000
367.719;   10.500;  -44.000;  -45.000
367.851;  -57.400; -222.000; -241.000
367.982; -198.200; -875.000; -732.000
368.113;   18.300; -475.000; -358.000
368.245; -257.800; -960.000; -841.000
368.376;  -58.900; -254.000; -302.000
368.508;  -76.400; -188.000; -263.000
368.639; -273.000;-1166.000;-1034.000
368.770; -128.200; -670.000; -589.000
368.902; -201.400; -836.000; -926.000
369.033; -240.000; -906.000; -855.000
369.164; -151.300; -720.000; -653.000
369.296; -200.300; -452.000; -601.000
369.427;  -31.900; -209.000; -144.000
369.558; -100.500; -593.000; -377.000
369.689; -182.800; -721.000; -569.000
369.821; -248.500; -951.000; -845.000
369.952;   14.000;   42.000; -108.000
370.083;  -88.200; -229.000; -108.000
370.214; -152.300; -735.000; -650.000
370.345;    8.300;   65.000;   81.000
370.477; -188.700; -810.000; -790.000
370.608;  148.300; -328.000; -264.000
370.739; -242.000;-1233.000;-1292.000
370.870; -234.500;-1102.000; -923.000
371.001;  -10.400; -378.000; -467.000
371.132; -184.100; -754.000; -735.000
371.263;  -32.100;  -42.000; -148.000
371.394; -267.000; -841.000; -748.000
371.525;   99.400;  345.000;  225.000
371.657; -159.600; -808.000; -670.000
371.788;  116.200;  103.000;  199.000
371.919;   27.100; -384.000; -304.000
372.050; 2904.100;  -91.000; -156.000
372.181;  813.000; -188.000; -294.000
372.311;  300.500;   42.000; -127.000
372.442;  -50.900; -457.000; -451.000
372.573;  -78.100; -444.000; -340.000
372.704; -248.700;-1008.000; -980.000
372.835;   21.500; -228.000; -289.000
372.966; -164.700; -646.000; -554.000
373.097; -159.000; -575.000; -711.000
373.228; -145.200; -717.000; -542.000
373.359;  -48.700; -824.000; -536.000
373.490;  470.100; -881.000; -727.000
373.620;  611.900;-1001.000; -803.000
373.751; 1321.900; -332.000; -396.000
373.882;  504.700; -663.000; -733.000
374.013;    3.000; -449.000; -262.000
374.143; -106.800; -581.000; -659.000
374.274; -235.300; -987.000; -908.000
374.405;   74.700; -388.000; -276.000
374.536;  225.200; -526.000; -387.000
374.666;  736.000; -759.000; -807.000
374.797;   18.400; -817.000; -868.000
374.928;  511.900; -710.000; -560.000
375.058;  496.700; -535.000; -500.000
375.189;   27.800;  -59.000;  -93.000
375.320; -257.900; -928.000;-1034.000
375.450; -107.300; -625.000; -616.000
375.581; -129.300; -526.000; -436.000
375.712;  -71.800; -574.000; -250.000
375.842;  104.100; -438.000; -415.000
375.973;   35.700; -554.000; -513.000
376.103; -154.800; -665.000; -648.000
376.234; -156.600; -531.000; -552.000
376.364; -191.000; -944.000; -867.000
376.495;  362.500;  925.000;  529.000
376.625;  -93.300; -472.000; -485.000
376.756;  -66.800; -709.000; -678.000
376.886; -243.000;-1178.000;-1026.000
377.017; -156.300;-1048.000;-1061.000
377.147;   57.300; -786.000; -782.000
377.278;   62.700;  174.000;  228.000
377.408; -233.100; -801.000; -815.000
377.538; -204.900; -707.000; -693.000
377.669; -190.600; -537.000; -613.000
377.799; -182.300; -645.000; -635.000
377.929; -142.600; -610.000; -428.000
378.060; -253.600; -781.000; -847.000
378.190; -193.100; -726.000; -531.000
378.320; -107.800; -401.000; -406.000
378.451;    2.400; -131.000;  -22.000
378.581;   -1.700;  -67.000; -110.000
378.711;  233.500; 1035.000;  866.000
378.841; -147.000; -533.000; -675.000
378.972; -186.100; -871.000; -751.000
379.102; -119.700; -652.000; -579.000
379.232;  -54.800; -126.000;  -73.000
379.362; -221.100;-1001.000; -885.000
379.492;  -77.600; -373.000; -424.000
379.623;  121.400;    0.000;  111.000
379.753; -252.600;-1107.000; -974.000
379.883;  187.200;   59.000;  156.000
380.013; -179.800;-1081.000;-1017.000
380.143; -263.900;-1097.000;-1056.000
380.273; -226.300; -985.000; -861.000
380.403;  -35.600; -344.000; -257.000
380.533; -154.400; -651.000; -664.000
380.663;   75.800;  173.000;  128.000
380.793; -248.400;-1027.000;-1074.000
380.923;    0.600; -103.000;  -34.000
381.053; -148.300; -613.000; -623.000
381.183;  -39.200; -106.000; -248.000
381.313;  -36.700; -656.000; -470.000
381.443;  -39.000; -692.000; -473.000
381.573;   51.400; -402.000; -409.000
381.703;  -22.000;-1249.000;-1095.000
381.833; -353.300;-1454.000;-1336.000
381.963;   94.800; -134.000;  -87.000
382.093;  802.500; -925.000; -909.000
382.223;  189.600; -713.000; -602.000
382.353; -143.200; -801.000; -608.000
382.482;  129.400;-1091.000; -964.000
382.612;  459.800; -872.000; -644.000
382.742;  206.200; -695.000; -622.000
382.872;   87.300; -565.000; -551.000
383.002;   94.300;  347.000; -132.000
383.131;  -76.600; -226.000; -160.000
383.261; -160.400; -706.000; -768.000
383.391;  106.400; -552.000; -377.000
383.521; 2239.100;  451.000;  263.000
383.650;  284.500; -947.000; -904.000
383.780; -126.000; -783.000; -656.000
383.910;  222.000;  880.000;  802.000
384.039; -132.200; -794.000; -656.000
384.169;  -83.000;-1205.000;-1017.000
384.299; -100.900; -650.000; -662.000
384.428; -187.700; -764.000; -680.000
384.558;  -81.900; -308.000; -275.000
384.687;  -94.200; -414.000; -334.000
384.817;   11.400;   75.000;   -2.000
384.947;  -25.200; -234.000; -141.000
385.076;  370.500;  982.000;  912.000
385.206;  147.900;  369.000;  480.000
385.335; -105.500; -549.000; -417.000
385.465; -205.100; -655.000; -663.000
385.594;  111.400;  -53.000;  -44.000
385.724;  164.800; -868.000; -838.000
385.853;   39.700; -296.000; -270.000
385.982;  970.300; -743.000; -787.000
386.112; 1556.100;-1052.000; -871.000
386.241;   29.800; -307.000; -312.000
386.371;    2.100; -174.000;  -87.000
386.500; -154.200; -825.000; -789.000
386.629; -103.800; -874.000; -817.000
386.759;   65.600;  -43.000;   68.000
386.888;  -20.900; -170.000; -250.000
387.017; -149.900; -648.000; -620.000
387.147; -181.700; -771.000; -798.000
387.276;  -89.400; -410.000; -397.000
387.405;  -37.900; -398.000; -342.000
387.535;  -82.400; -452.000; -361.000
387.664; -157.900; -692.000; -620.000
387.793;   13.000; -198.000; -113.000
387.922;  438.300;  255.000;  200.000
388.052;  -72.200; -576.000; -423.000
388.181;  -38.500; -342.000; -472.000
388.310; -131.300; -889.000; -710.000
388.439; -164.900; -749.000; -742.000
388.568;  161.000;  365.000;  244.000
388.697;  748.800; -756.000; -653.000
388.826;   51.400; -768.000; -666.000
388.956;   -0.300; -285.000; -307.000
389.085;  -54.600; -347.000; -287.000
389.214; -215.800; -842.000; -872.000
389.343; -156.200; -645.000; -413.000
389.472;  379.600;  126.000;  149.000
389.601;  371.800;   91.000;    0.000
389.730;  -50.900; -568.000; -687.000
389.859;   85.600;  226.000;   46.000
389.988;  108.500; -423.000; -408.000
390.117;   83.800; -168.000; -146.000
390.246;  -55.800; -331.000; -320.000
390.375;  -32.200; -673.000; -626.000
390.504; -143.100; -703.000; -621.000
390.633; -208.600; -672.000; -726.000
390.761; -145.900; -732.000; -645.000
390.890;   42.400;   -4.000; -130.000
391.019;  -89.500; -421.000; -441.000
391.148; -236.500; -826.000; -855.000
391.277; -135.100; -576.000; -493.000
391.406; -178.600; -821.000; -805.000
391.534;   41.500;  574.000; -301.000
391.663; -165.800; -583.000; -645.000
391.792; -139.700; -673.000; -701.000
391.921;   70.700;   -3.000;   15.000
392.050;   74.000; -287.000; -228.000
392.178; -224.800;-1206.000;-1061.000
392.307;   33.000; -758.000; -712.000
392.436;  -29.300; -427.000; -641.000
392.564;   32.700;  166.000;   -6.000
392.693; -193.100; -860.000; -682.000
392.822;   66.900; -529.000; -534.000
392.950;  -41.800; -880.000; -714.000
393.079;  206.600; -188.000; -328.000
393.208;  -60.600; -488.000; -511.000
393.336;   -1.500; -170.000; -145.000
393.465;  -78.900; -317.000; -199.000
393.593;   55.100;   62.000;   79.000
393.722; -286.800;-1121.000; -916.000
393.850;  -12.300; -188.000;  -61.000
393.979; -260.100; -926.000; -805.000
394.107; -125.500; -517.000; -537.000
394.236; -124.200; -570.000; -507.000
394.364;  245.000;  383.000;  206.000
394.493;  117.400; -911.000; -767.000
394.621; -145.700; -955.000; -916.000
394.750;  291.300; -873.000; -923.000
394.878; 1822.400; -247.000; -149.000
395.007; 2331.200; -721.000; -807.000
395.135;   50.300; -790.000; -721.000
395.263; -245.800;-1038.000;-1040.000
395.392;   13.300;  -25.000; -107.000
395.520; -151.000; -818.000; -679.000
395.648; -219.000; -865.000; -915.000
395.777; -101.000; -366.000; -405.000
395.905; -103.500; -449.000; -564.000
396.033;  -14.400;  217.000;  172.000
396.162;  387.300; -399.000; -453.000
396.290;  400.600;  -17.000;   -2.000
396.418;  -23.700; -555.000; -514.000
396.546; -195.400; -571.000; -466.000
396.674; -194.200; -850.000; -878.000
396.803;  -15.700;  -72.000;  -23.000
396.931;    6.100; -179.000; -199.000
397.059; -169.200;-1026.000; -989.000
397.187; -241.300;-1026.000; -975.000
397.315; -270.600; -884.000; -649.000
397.443; -181.300; -592.000; -443.000
397.572; -188.800; -578.000; -424.000
397.700; -137.400; -607.000; -614.000
397.828;  -18.800;  120.000;  -90.000
397.956; -130.000; -508.000; -478.000
398.084; -210.300; -767.000; -626.000
398.212;   86.100;  137.000;  124.000
398.340;   10.400;  -56.000;  159.000
398.468;  -35.000; -390.000; -169.000
398.596; -253.000; -993.000; -953.000
398.724; -212.300; -762.000; -767.000
398.852; -283.300;-1024.000; -976.000
398.980; -130.300; -560.000; -560.000
399.108; -195.400; -982.000; -735.000
399.236;   29.900;   13.000;    8.000
399.363;   60.200;  222.000;  196.000
399.491; -126.400; -404.000; -398.000
399.619; -257.900; -829.000; -800.000
399.747; -223.300; -859.000; -771.000
399.875;  111.700;  220.000;  234.000
400.003;  -94.800; -359.000; -284.000
400.130; -159.000; -421.000; -341.000
400.258;  -34.500;  -83.000;   38.000
400.386;  -90.400; -352.000; -168.000
400.514; -110.200; -526.000; -587.000
400.641; -247.600; -928.000; -802.000
400.769; -269.600; -979.000; -888.000
400.897; -194.400; -838.000; -793.000
401.025;  -17.700; -166.000; -152.000
401.152;   40.700;  220.000;   38.000
401.280; -135.300; -430.000; -429.000
401.408; -195.600; -712.000; -576.000
401.535; -192.700; -735.000; -758.000
401.663; -343.800;-1134.000;-1054.000
401.790; -129.100; -514.000; -525.000
401.918;  111.400;  436.000;  405.000
402.046;   11.800;  134.000;  122.000
402.173;  -63.800;  -18.000;    7.000
402.301;  -72.800; -519.000; -397.000
402.428;  105.900;  528.000;  383.000
402.556; -250.500;-1188.000; -913.000
402.683;  -54.800;  -20.000;   -1.000
402.811;    0.100;  -37.000; -206.000
402.938;   -9.200;   20.000;   27.000
403.066;   48.400; -574.000; -558.000
403.193;  238.500;  299.000;  239.000
403.321;  152.200; -396.000; -574.000
403.448;  243.200;   83.000;   27.000
403.575;   92.800;  -90.000;  -46.000
403.703; -203.700; -732.000; -557.000
403.830; -121.900; -531.000; -496.000
403.957; -266.800;-1117.000;-1023.000
404.085;  -27.500;  -61.000; -172.000
404.212;   83.400;  -50.000;   63.000
404.339;  115.200; -566.000; -306.000
404.467; 3632.000; -612.000; -524.000
404.594; 2260.700; -287.000; -227.000
404.721;  410.800; -869.000; -764.000
404.848;   60.200; -113.000; -202.000
404.976; -244.600; -856.000; -783.000
405.103;    6.400;  -14.000;  -82.000
405.230;   21.800;  190.000;  226.000
405.357;   44.700;  117.000;   44.000
405.484;  126.700;  -49.000;    5.000
405.612;  -88.400; -548.000; -563.000
405.739;  -99.800; -488.000; -243.000
405.866;  172.200;  669.000;  385.000
405.993;  -80.500; -398.000; -102.000
406.120; -245.800; -801.000; -887.000
406.247; -110.900; -323.000; -342.000
406.374;  418.900;  540.000;  629.000
406.501;  -78.400; -632.000; -702.000
406.628; -168.500; -621.000; -589.000
406.755; -229.900; -803.000; -620.000
406.882; -105.000; -228.000; -277.000
407.009; -198.200; -719.000; -628.000
407.136;   -7.800; -480.000; -401.000
407.263;  -96.200; -939.000; -829.000
407.390; -170.100; -692.000; -614.000
407.517; -331.100;-1139.000;-1187.000
407.644; -102.000; -332.000; -256.000
407.771; -128.400; -249.000; -287.000
407.898;   43.600;  168.000;  328.000
408.025; -133.100; -421.000; -313.000
408.151;   38.900;   82.000;  153.000
408.278; -111.600; -267.000; -216.000
408.405; -243.600; -931.000; -899.000
408.532; -148.800; -549.000; -542.000
408.659; -184.900; -677.000; -648.000
408.785; -365.800;-1298.000;-1170.000
408.912;  -84.800; -412.000; -296.000
409.039; -164.600; -610.000; -686.000
409.166; -148.600; -591.000; -555.000
409.292; -188.100; -571.000; -534.000
409.419; -205.800; -665.000; -649.000
409.546; -159.100; -431.000; -192.000
409.672; -192.200; -713.000; -545.000
409.799;  -37.000;  -36.000;   34.000
409.926;  -30.500; -180.000; -179.000
410.052; -325.500;-1127.000;-1091.000
410.179; -102.100; -368.000; -392.000
410.305; -116.200; -375.000; -493.000
410.432;  -62.200; -220.000; -333.000
410.558; -145.200; -305.000; -380.000
410.685; -146.900; -688.000; -431.000
410.812; -169.400; -409.000; -588.000
410.938; -228.500; -964.000; -808.000
411.065; -168.500; -671.000; -645.000
411.191;  -54.900; -189.000; -174.000
411.317; -224.200; -823.000; -742.000
411.444;  -93.500; -317.000; -246.000
411.570;  -91.100; -339.000; -294.000
411.697; -206.600; -758.000; -752.000
411.823; -341.800; -989.000; -999.000
411.949;  -66.600;  -56.000;   17.000
412.076; -197.000; -539.000; -519.000
412.202; -199.200; -758.000; -757.000
412.329; -256.000; -798.000; -752.000
412.455; -183.500; -821.000; -657.000
412.581;   -6.700;  -15.000;  172.000
412.707; -145.000; -540.000; -457.000
412.834;   40.000;  156.000;  219.000
412.960; -210.500; -785.000; -784.000
413.086; -202.400; -743.000; -701.000
413.212;  185.900;  604.000;  578.000
413.339; -181.800; -685.000; -701.000
413.465; -110.700; -364.000; -310.000
413.591; -206.900; -757.000; -474.000
413.717;  -84.700; -358.000; -366.000
413.843; -273.900; -839.000; -861.000
413.969;  -96.900;  -47.000; -292.000
414.096; -204.000; -679.000; -679.000
414.222;   22.600;  -33.000;   85.000
414.348; -118.100; -652.000; -385.000
414.474;   56.600;   38.000;  -52.000
414.600;  -19.400; -126.000; -144.000
414.726;  -24.500;  -96.000;  -55.000
414.852; -138.700; -365.000; -342.000
414.978;   47.000;  104.000;  -18.000
415.104;   19.100;   38.000;   80.000
415.230;  -35.500; -329.000; -330.000
415.356;  -60.200; -409.000; -514.000
415.482;  105.200;   13.000;  -35.000
415.608;  109.800; -247.000; -323.000
415.734;  674.200;   67.000;   38.000
415.860;13672.300; -875.000; -767.000
415.986; 8961.500; -685.000; -607.000
416.111;  638.200; -798.000; -652.000
416.237;   68.700; -424.000; -571.000
416.363;  683.900; -765.000; -733.000
416.489; 2707.500; -324.000; -251.000
416.615;  112.900; -707.000; -742.000
416.741; -135.400; -677.000; -784.000
416.866; -185.000; -673.000; -736.000
416.992; -233.100; -801.000; -818.000
417.118;  -60.100;  -41.000;  -80.000
417.244; -138.200; -798.000; -531.000
417.369; -157.900; -801.000; -612.000
417.495;  -50.400; -325.000; -254.000
417.621; -219.400;-1015.000; -803.000
417.746;  -70.200; -579.000; -572.000
417.872;   13.900; -254.000; -144.000
417.998;  -42.000; -515.000; -530.000
418.123;  516.500;-1073.000; -845.000
418.249; 3271.700; -512.000; -601.000
418.374;  248.400; -916.000; -824.000
418.500;  -15.800; -383.000; -482.000
418.626;   97.000;   70.000;  -59.000
418.751;   -1.700; -549.000; -448.000
418.877;    6.300; -637.000; -643.000
419.002; 1191.000; -688.000; -560.000
419.128; 7973.900; -930.000; -721.000
419.253; 1641.300; -967.000; -837.000
419.379;  148.300; -391.000; -338.000
419.504;  325.100;  325.000;  415.000
419.629;  290.800; -393.000; -212.000
419.755; 2406.200; -317.000; -254.000
419.880;13110.400;  -98.000;   67.000
420.006; 7593.000; -280.000; -221.000
420.131;19105.300; -662.000; -775.000
420.256; 2546.100; -315.000; -316.000
420.382;  183.700; -665.000; -687.000
420.507;  -81.700; -649.000; -778.000
420.632;   55.400; -337.000; -339.000
420.758;  157.800; -251.000; -425.000
420.883; -215.400; -876.000; -672.000
421.008; -172.800; -775.000; -619.000
421.133; -235.900; -509.000; -467.000
421.259;  -71.100; -325.000; -259.000
421.384; -200.400; -834.000; -693.000
421.509; -140.500;-1052.000; -862.000
421.634;  812.200; -936.000; -820.000
421.759;  349.000; -359.000; -327.000
421.885; -132.900; -717.000; -656.000
422.010; -166.200; -673.000; -542.000
422.135; -274.000; -695.000; -727.000
422.260;   87.000;  340.000;  280.000
422.385;  -29.200;   12.000;  -98.000
422.510;   25.700;  151.000;  -26.000
422.635;   26.800;  -87.000;  -43.000
422.760;  -48.400; -766.000; -791.000
422.885;   13.400;  -57.000;  -80.000
423.010;  -40.500; -112.000; -169.000
423.135; -135.600; -481.000; -561.000
423.260;   -7.800; -150.000; -245.000
423.385;  139.000;  476.000;  222.000
423.510;   72.700;   71.000;  -22.000
423.635;   50.400;  133.000;   45.000
423.760;   89.000;  383.000;  328.000
423.885;  106.400;  336.000;  391.000
424.010;   15.700;  -68.000;  -13.000
424.135;  -14.900;    5.000;  -33.000
424.259; -156.000; -654.000; -457.000
424.384; -111.000; -279.000; -272.000
424.509;  -32.600; -260.000; -186.000
424.634; -243.900; -761.000; -623.000
424.759; -104.400; -688.000; -544.000
424.883;  -79.100; -506.000; -527.000
425.008;   19.100; -502.000; -410.000
425.133; 1224.900; -679.000; -653.000
425.258;  472.700; -517.000; -381.000
425.382;  653.700; -867.000; -774.000
425.507; 1724.200; -487.000; -543.000
425.632;  145.800; -802.000; -663.000
425.756;  250.700; -256.000; -146.000
425.881; 4261.500; -831.000; -857.000
426.006;10514.800; -604.000; -355.000
426.130; 1449.200; -696.000; -508.000
426.255;  143.900; -611.000; -491.000
426.379;   82.100; -189.000; -577.000
426.504;  410.000;  660.000;  544.000
426.629; 2653.400; -519.000; -466.000
426.753; 1728.700;   64.000;  -46.000
426.878;  131.000; -252.000; -288.000
427.002;  -31.400; -651.000; -668.000
427.127; 1109.800;  -35.000; -158.000
427.251; 7845.100;  372.000;  401.000
427.375; 1975.000; -191.000; -173.000
427.500; 1572.800; -616.000; -610.000
427.624;  447.600; -234.000; -400.000
427.749;   30.400; -216.000; -225.000
427.873; -105.000; -499.000; -412.000
427.997;  -30.600; -222.000; -230.000
428.122;  157.500;  795.000;  703.000
428.246;  178.900;  433.000;  434.000
428.371; -247.600; -869.000; -773.000
428.495; -178.600; -624.000; -646.000
428.619;  -29.200; -186.000; -117.000
428.743;   77.600;   65.000;  132.000
428.868; -124.800; -732.000; -643.000
428.992;  970.600; -219.000; -326.000
429.116;  312.000; -329.000; -357.000
429.240;  288.800;  419.000;  426.000
429.365;  -75.200; -454.000; -574.000
429.489; -131.800; -638.000; -647.000
429.613;  -11.900; -236.000; -177.000
429.737;  -42.600; -563.000; -432.000
429.861;  137.600; -247.000; -133.000
429.985; 3769.700; -425.000; -305.000
430.109; 3641.500; -770.000; -908.000
430.234;  452.800;   76.000;  -50.000
430.358;   16.000; -250.000; -160.000
430.482; -114.400; -672.000; -564.000
430.606; -124.100; -655.000; -375.000
430.730;  -43.200; -437.000; -388.000
430.854;  -61.400; -909.000; -835.000
430.978; -186.100; -795.000; -764.000
431.102; -121.500; -499.000; -422.000
431.226; -183.500; -874.000; -815.000
431.350;   99.800;  345.000;  422.000
431.474; -127.600; -661.000; -373.000
431.597; -301.300;-1060.000; -848.000
431.721; -124.000; -276.000; -267.000
431.845; -201.300; -704.000; -472.000
431.969; -119.600; -304.000; -349.000
432.093; -140.300; -395.000; -317.000
432.217;   25.400;   32.000;   82.000
432.341; -142.800; -523.000; -518.000
432.464;    4.000;   96.000;   40.000
432.588;   51.300; -401.000; -329.000
432.712;   35.800;  -52.000;  -52.000
432.836;   70.600;  213.000;  263.000
432.959;  -59.600; -372.000; -311.000
433.083;   48.000;   11.000;    2.000
433.207;  357.900;  285.000;  930.000
433.330; 3362.800; -391.000; -200.000
433.454; 3615.000; -654.000; -638.000
433.578; 2298.900;  583.000;  278.000
433.701;  224.200; -623.000; -675.000
433.825;   15.400; -292.000; -299.000
433.949;  154.900;   28.000;  -72.000
434.072;  -13.200; -410.000; -323.000
434.196;  -31.700; -309.000; -117.000
434.319; 7399.900;25482.000;25124.000
434.443;  417.000; -656.000; -603.000
434.566; 1673.800;  281.000;   62.000
434.690;  141.500; -637.000; -383.000
434.813;  -10.800; -251.000; -173.000
434.937; -147.300; -569.000; -696.000
435.060; -117.100; -423.000; -332.000
435.184;  154.900; -492.000; -217.000
435.307;  101.000;  159.000;  102.000
435.431;  -34.200;  -40.000;   24.000
435.554;  -98.900; -399.000; -240.000
435.677; -132.900; -350.000; -258.000
435.801;  -44.100;  -25.000;   49.000
435.924;    2.900;    1.000;  -67.000
436.048; -251.900;-1019.000; -732.000
436.171;  -88.200; -240.000;  -66.000
436.294;  -56.300; -248.000; -229.000
436.417; -135.200; -963.000; -849.000
436.541; -225.900; -814.000; -840.000
436.664;  -41.800; -242.000; -316.000
436.787;    8.100;   13.000;  113.000
436.910; -195.900; -792.000; -422.000
437.034;   46.100;  142.000;  143.000
437.157;   62.200;  -11.000;    0.000
437.280; -104.800; -392.000; -292.000
437.403; -207.600; -982.000; -869.000
437.526;  407.700; -903.000; -865.000
437.649; 1763.500; -505.000; -332.000
437.772;  104.900; -692.000; -540.000
437.896;  201.100;  700.000;  544.000
438.019; -191.000; -758.000; -503.000
438.142; -160.100; -596.000; -506.000
438.265; -146.300; -639.000; -670.000
438.388;  281.500; -520.000; -410.000
438.511;  -59.800; -597.000; -394.000
438.634;  -77.400; -247.000; -125.000
438.757; -249.500; -693.000; -619.000
438.880;  -26.300;  -34.000;  -57.000
439.003; -155.100; -417.000; -437.000
439.126;  -58.700; -287.000; -167.000
439.248;  -66.600;  -98.000; -139.000
439.371;  -16.500;    9.000;  -53.000
439.494;  110.200;  510.000;  439.000
439.617;  -55.200;   65.000;  -88.000
439.740; -300.800; -968.000; -816.000
439.863; -228.500; -755.000; -595.000
439.986; -206.000; -476.000; -431.000
440.108;  -72.700; -161.000; -112.000
440.231; -310.200; -950.000; -836.000
440.354;  -58.300;  -64.000; -150.000
440.477;  -83.200; -566.000; -542.000
440.599;  -37.200; -200.000; -225.000
440.722; -234.000; -709.000; -586.000
440.845;  169.200;  751.000;  928.000
440.968; -155.900; -415.000; -311.000
441.090;  -63.500; -199.000;  -33.000
441.213; -282.800;-1021.000; -825.000
441.336;  -52.500; -159.000;   -5.000
441.458; -114.900; -549.000; -396.000
441.581; -182.700; -628.000; -629.000
441.703; -124.200; -152.000;   13.000
441.826; -182.000; -557.000; -400.000
441.948;  -53.800;   56.000;   51.000
442.071;  111.400;  555.000;  424.000
442.193; -180.000; -531.000; -485.000
442.316;   24.000;  152.000;   97.000
442.438;  -33.200; -233.000;  -10.000
442.561;  113.300;  272.000;  262.000
442.683;  326.900; -809.000; -522.000
442.806;  963.700;   -8.000;   74.000
442.928; -134.400; -859.000; -604.000
443.051; -137.100; -577.000; -373.000
443.173; -160.000; -341.000; -339.000
443.295; -130.200; -263.000; -371.000
443.418;  -90.800; -321.000;  -29.000
443.540;  -28.200; -106.000;   -4.000
443.662; -209.000; -563.000; -465.000
443.785;   50.900;  335.000;  199.000
443.907; -182.900; -362.000; -208.000
444.029; -191.200; -767.000; -494.000
444.152; -188.500; -644.000; -554.000
444.274;  -29.500;  -18.000;  -24.000
444.396; -182.800; -461.000; -221.000
444.518; -224.300; -691.000; -454.000
444.640; -176.000; -268.000; -111.000
444.763;   21.600;  388.000;  249.000
444.885; -178.900; -432.000; -392.000
445.007;  -16.000;   35.000;   86.000
445.129; -215.700; -610.000; -515.000
445.251; -132.300; -372.000; -439.000
445.373; -226.600; -537.000; -386.000
445.495;   60.100;  242.000;  350.000
445.617;  119.600;  853.000;  753.000
445.739; -107.200; -215.000;  -97.000
445.861;  -49.600; -245.000; -112.000
445.984;  -66.600; -267.000; -101.000
446.105;  116.800; -418.000; -251.000
446.227;  463.400; -176.000;  -19.000
446.349;  -89.500; -358.000; -249.000
446.471; -192.700; -615.000; -448.000
446.593; -115.200; -316.000;   19.000
446.715;  -26.200;  -67.000;   41.000
446.837;  198.900;  697.000;  832.000
446.959; -185.400; -457.000; -478.000
447.081; -240.300; -628.000; -518.000
447.203;  166.000;  862.000;  834.000
447.325; -110.600; -270.000;   42.000
447.446;   72.400;  286.000;  530.000
447.568; -272.300; -921.000; -803.000
447.690; -109.400; -236.000; -245.000
447.812; -260.000; -798.000; -519.000
447.933;  -36.600;  155.000;  127.000
448.055; -127.900; -306.000; -261.000
448.177;  154.200;   31.000;   79.000
448.299;  -86.000; -935.000; -727.000
448.420;   27.200;  -25.000;  159.000
448.542;  -61.600;   -3.000;   33.000
448.664;   29.000;  109.000;  322.000
448.785;  -39.300;  265.000;   83.000
448.907; -146.200; -614.000; -353.000
449.028; -143.600; -771.000; -471.000
449.150;  123.500;  492.000;  589.000
449.272; -322.300;-1044.000; -913.000
449.393;  103.700;  612.000;  694.000
449.515; -227.300; -634.000; -581.000
449.636; -111.400; -264.000; -155.000
449.758;  176.800;  763.000;  622.000
449.879; -137.300; -498.000; -396.000
450.001; -129.500; -149.000;  -49.000
450.122;  -13.100;  -95.000;  162.000
450.244;    4.200;   37.000;  364.000
450.365; -147.200; -495.000; -301.000
450.486;  -39.700;   80.000;  268.000
450.608;   69.300;  393.000;  326.000
450.729;  143.200;  578.000;  645.000
450.850;  -88.400; -574.000; -466.000
450.972;  359.500; -552.000; -389.000
451.093; 3259.300;  190.000;  588.000
451.214; 1112.900; -516.000; -337.000
451.336;  290.800;  773.000;  579.000
451.457;   46.200;  264.000;  393.000
451.578;  -77.600; -118.000;  -74.000
451.699; -225.300; -546.000; -540.000
451.821;  -75.800; -284.000;  -50.000
451.942;    0.800;  278.000;  285.000
452.063;   39.300;  228.000;  419.000
452.184;  375.700;  -54.000;  -49.000
452.305;  727.700;  103.000;  170.000
452.427;  -43.600; -549.000; -301.000
452.548;  -45.000;   23.000;   79.000
452.669;  -68.600; -257.000;  -89.000
452.790;  -54.300;    3.000;  -18.000
452.911;   10.200;  195.000;  259.000
453.032; -100.100; -289.000;  -60.000
453.153;  -39.500;  -29.000;   81.000
453.274;  192.500;  737.000;  868.000
453.395;  -59.900;  -51.000;  175.000
453.516;  274.100; 1317.000; 1388.000
453.637; -136.300; -205.000; -150.000
453.758;  -98.700;   15.000;   69.000
453.879; -162.000; -462.000; -250.000
454.000;  164.700; 1086.000;  948.000
454.121; -213.000; -554.000; -326.000
454.242; -143.100; -599.000; -383.000
454.362;  -21.800;  -99.000;  114.000
454.483;  -61.800; -309.000; -229.000
454.604;  110.700;  512.000;  580.000
454.725; -220.200; -627.000; -555.000
454.846; -199.200; -474.000; -406.000
454.967;    2.500;  230.000;  539.000
455.087;  -16.800;  179.000;  153.000
455.208;   81.900;  554.000;  856.000
455.329;  -68.600;  -22.000;   82.000
455.450;  105.700;  473.000;  633.000
455.570; -117.300; -234.000; -211.000
455.691;  -23.500;  201.000;  407.000
455.812; -150.500; -270.000;  -92.000
455.932;  -57.500;  107.000;  -97.000
456.053;  -87.700;   36.000;   24.000
456.173; -147.600; -433.000; -355.000
456.294; -179.300; -476.000; -303.000
456.415;  -86.200;  -73.000;   70.000
456.535;  -35.400;  297.000;  273.000
456.656;  -21.800;  132.000;  240.000
456.776;  -42.000;    3.000;  298.000
456.897;   78.500;  308.000;  513.000
457.017;  -74.200; -153.000;   -3.000
457.138; -160.000; -402.000; -249.000
457.258;   -9.500;  263.000;  224.000
457.379;   50.200;  509.000;  521.000
457.499;   18.100;  443.000;  432.000
457.620; -186.800; -407.000; -231.000
457.740; -151.100; -132.000;  -11.000
457.860;  -50.100;   87.000;   44.000
457.981;  -52.200;  132.000;  124.000
458.101; -104.900;  -89.000;   40.000
458.221;   22.300;  336.000;  402.000
458.342;  -41.300;   -4.000;  -37.000
458.462;   91.500;  617.000;  352.000
458.582;  -70.400; -302.000; -294.000
458.703;   24.700;  303.000;  154.000
458.823;   -3.900;   22.000;  163.000
458.943;   70.900;  341.000;  467.000
459.063;  -11.100; 1124.000;  192.000
459.183;  -20.500;  328.000;  313.000
459.304;   65.500;  315.000;  517.000
459.424; -111.500; -246.000;  -89.000
459.544;  328.700;  388.000;  764.000
459.664;  624.100;  499.000;  506.000
459.784;  293.400; 1004.000; 1175.000
459.904;  119.100;  867.000;  744.000
460.024;  173.600;  867.000;  684.000
460.144;   50.400;  449.000;  554.000
460.264;   48.300;  515.000;  327.000
460.385; -130.800; -145.000; -119.000
460.505;  165.000;  905.000;  858.000
460.625; -140.900;  -17.000;  -68.000
460.745;   42.600;  396.000;  541.000
460.864;  -45.900;  153.000;  469.000
460.984;   61.900;  499.000;  573.000
461.104;  327.900; 1656.000; 1775.000
461.224;   91.700;  657.000;  650.000
461.344;    7.700;  431.000;  360.000
461.464;  -10.600;  258.000;  513.000
461.584;   -0.600;  283.000;  466.000
461.704;  -92.400;   58.000;  108.000
461.824;  -42.500;  238.000;  259.000
461.943;  -23.000;  191.000;  130.000
462.063;  -97.900;    2.000;  324.000
462.183;  107.400;  639.000;  717.000
462.303;  248.300; 1678.000; 1230.000
462.422;   86.700;  781.000;  840.000
462.542;  -24.500;  271.000;  391.000
462.662;   55.500;  353.000;  380.000
462.782;  219.900;  833.000;  572.000
462.901;  355.000;  545.000;  717.000
463.021;  423.500; 1702.000; 1638.000
463.141;    8.800;  337.000;  770.000
463.260;   24.900;  614.000;  474.000
463.380;   81.400;  902.000;  884.000
463.499;    1.000;  342.000;  332.000
463.619;  -15.600;  581.000;  559.000
463.738;  293.200; 1644.000;  903.000
463.858;   74.400;  657.000;  811.000
463.978;  -38.100;  542.000;  396.000
464.097;  174.300;  921.000; 1114.000
464.217;  219.200; 1196.000; 1143.000
464.336;  225.100; 1068.000; 1130.000
464.455;  -12.400;  328.000;  659.000
464.575;  103.000;  597.000;  602.000
464.694;  263.800; 1204.000; 1179.000
464.814;  219.700; 1190.000; 1138.000
464.933;  150.000; 1095.000; 1027.000
465.052;  246.400; 1412.000; 1054.000
465.172;  119.800;  922.000;  799.000
465.291;  274.200; 1376.000; 1320.000
465.410;   80.100;  462.000;  735.000
465.530;  247.300; 1355.000; 1310.000
465.649;  158.100; 1209.000; 1273.000
465.768;  368.300; 1673.000; 1508.000
465.888;  122.800;  941.000; 1174.000
466.007;  230.100; 1335.000; 1440.000
466.126;   59.900;  721.000;  641.000
466.245;  144.500; 1176.000; 1187.000
466.364;   86.700;  950.000; 1060.000
466.484;  188.200; 1024.000; 1213.000
466.603;  115.800; 1101.000; 1222.000
466.722;  304.900; 1490.000; 1769.000
466.841;  202.300; 1151.000; 1401.000
466.960;  192.200; 1069.000;  972.000
467.079;  325.400; 1971.000; 1786.000
467.198;  168.600; 1238.000; 1181.000
467.317;  307.800; 1768.000; 1162.000
467.436;  197.700; 1709.000; 1261.000
467.555;  312.500; 1796.000; 1746.000
467.674;  204.800; 1227.000; 1329.000
467.793;  177.000; 1376.000; 1374.000
467.912;  220.000; 1658.000; 1539.000
468.031;  309.400; 2038.000; 1930.000
468.150;  332.500; 1842.000; 1837.000
468.269;  467.800; 2313.000; 2090.000
468.388;  425.800; 2168.000; 2339.000
468.507;  562.800; 2884.000; 2903.000
468.626;  650.400; 2555.000; 2541.000
468.744;  358.100; 2018.000; 2174.000
468.863;  506.300; 2312.000; 2523.000
468.982;  245.500; 1503.000; 1555.000
469.101;  504.500; 2788.000; 2692.000
469.220;  351.800; 2333.000; 2176.000
469.338;  572.800; 2935.000; 3051.000
469.457;  487.000; 2719.000; 2545.000
469.576;  769.800; 3953.000; 3784.000
469.695;  581.400; 2877.000; 3066.000
469.813;  911.300; 4148.000; 4192.000
469.932;  870.300; 4255.000; 4485.000
470.051;  838.500; 4075.000; 4161.000
470.169; 1242.000; 4470.000; 4338.000
470.288; 1636.800; 4700.000; 4809.000
470.406; 1291.200; 5059.000; 5194.000
470.525; 1246.700; 6101.000; 5787.000
470.644; 1407.900; 6847.000; 6794.000
470.762; 1650.500; 8397.000; 7873.000
470.881; 1816.700; 8651.000; 8464.000
470.999; 2057.200; 9685.000; 9151.000
471.118; 2239.800;11174.000;10711.000

