
Integration time [ms]: 100.000
Averaging Nr. [scans]: 40
Smoothing Nr. [pixels]: 0
Data measured with spectrometer [name]: 2101012U2
Wave   ;Sample   ;Dark     ;Reference
[nm]   ;[counts] ;[counts] ;[counts] 

197.733;   48.975;  516.000;  404.000
197.879;  -85.575; -610.000; -634.000
198.025;  -37.975; -475.000; -420.000
198.171;  -70.650; -602.000; -612.000
198.317;  -37.800; -401.000; -316.000
198.463;  -56.200; -655.000; -404.000
198.609;   21.800;  181.000; -137.000
198.755;  -76.625; -644.000; -410.000
198.901;  -62.875; -505.000; -424.000
199.047;  -62.125; -615.000; -488.000
199.193;  -42.925; -230.000; -468.000
199.339;  -33.425; -222.000; -369.000
199.485;   33.150;  330.000;  271.000
199.631;    7.525;  227.000;  310.000
199.777;  -49.775; -466.000; -398.000
199.923;  -66.825; -610.000; -424.000
200.069;   -6.300; -141.000;  -58.000
200.215;   60.925;  128.000;  453.000
200.361;   27.725;  243.000;  477.000
200.507;  -51.675; -600.000; -373.000
200.653;  -26.625; -371.000; -194.000
200.798;  -29.325; -215.000; -125.000
200.944;   -9.800; -146.000;  -41.000
201.090;   36.825;   61.000;  222.000
201.236;  -11.525; -116.000; -158.000
201.382;  122.675;  874.000;  903.000
201.528;   -2.800;  -58.000;  -48.000
201.674;  -50.725; -386.000; -293.000
201.819;  -68.725; -540.000; -439.000
201.965;  -73.175; -699.000; -447.000
202.111;  -15.000; -273.000; -226.000
202.257;  -40.275; -250.000; -238.000
202.402;    1.975;   13.000;  -36.000
202.548;  -43.850; -169.000; -116.000
202.694;   72.650;  410.000; -183.000
202.840;  -65.700; -603.000; -531.000
202.985;  -71.575; -681.000; -639.000
203.131; -101.375; -832.000; -666.000
203.277;  -39.800; -199.000; -262.000
203.423;  -45.000; -434.000; -520.000
203.568;  -31.325; -462.000; -237.000
203.714;  -56.625; -535.000; -542.000
203.860;  -73.425; -682.000; -641.000
204.005;   14.650;  112.000;  167.000
204.151;   63.200;  561.000;  556.000
204.296;  -48.600; -354.000; -221.000
204.442;  -67.125; -600.000; -547.000
204.588;  -71.425; -592.000; -579.000
204.733;   13.350;  178.000;  168.000
204.879; -114.900;-1018.000; -822.000
205.025;   11.575;  -99.000;  126.000
205.170;    1.025;  -17.000;   94.000
205.316;   77.450;  438.000;  661.000
205.461;  -83.050; -698.000; -554.000
205.607;   70.075;  609.000;  665.000
205.752;  -78.900; -626.000; -551.000
205.898;  -56.300; -501.000; -391.000
206.043;  -60.325; -578.000; -506.000
206.189;  -44.400; -243.000; -285.000
206.334;   74.375;  554.000;  606.000
206.480;   58.975;  409.000;  239.000
206.625;  -72.775; -529.000; -552.000
206.771;  -34.375; -451.000; -373.000
206.916;  -33.725; -210.000; -537.000
207.062;  -47.850; -545.000; -591.000
207.207;  -66.175; -546.000; -443.000
207.353;   34.750;  185.000;  460.000
207.498;   12.175;  196.000;   85.000
207.643;  -63.550; -501.000; -370.000
207.789; -129.025;-1069.000; -910.000
207.934;  -81.075; -665.000; -713.000
208.080;  -21.425; -154.000;   66.000
208.225;  -23.575;  -22.000;  -57.000
208.370;  -75.775; -727.000; -619.000
208.516;  -76.025; -741.000; -487.000
208.661;  -22.225; -127.000;  -69.000
208.806;  -28.975; -165.000; -171.000
208.952; -119.350;-1044.000; -731.000
209.097;   70.975;  378.000;  349.000
209.242;  -33.600; -307.000; -382.000
209.387;   68.175;  392.000;  350.000
209.533;  -50.975; -321.000; -350.000
209.678;   71.375;  472.000;  543.000
209.823;  -61.975; -408.000; -310.000
209.969;  -96.925; -860.000; -757.000
210.114; -106.750; -907.000; -719.000
210.259; -119.650; -939.000; -889.000
210.404;    4.400; -171.000;  103.000
210.549;    4.150;  108.000;    3.000
210.695;   -6.925;   -3.000;  -95.000
210.840;   17.650;   94.000;   67.000
210.985;  -57.825; -484.000; -303.000
211.130;   59.075;  268.000;  406.000
211.275;    8.825;  207.000;  199.000
211.420;  -48.825; -300.000; -289.000
211.566;  -72.100; -536.000; -489.000
211.711;   26.175;  218.000;  157.000
211.856;  -65.650; -545.000; -519.000
212.001;    5.125;  151.000;   44.000
212.146;   11.375;  153.000;   49.000
212.291;  -24.375; -210.000; -186.000
212.436;  -35.275; -280.000;   -6.000
212.581;  -74.250; -685.000; -653.000
212.726;  -59.550; -487.000; -538.000
212.871;  -42.750; -552.000; -217.000
213.016; -143.300;-1172.000;-1029.000
213.161;   55.675;  406.000;  291.000
213.306;  -78.325; -435.000; -577.000
213.451;  -90.100; -778.000; -689.000
213.596;  -39.225; -455.000; -347.000
213.741;  -56.675; -448.000; -538.000
213.886;  -69.425; -498.000; -517.000
214.031;  -17.975; -294.000; -124.000
214.176;  -44.725; -408.000; -341.000
214.321;  -19.475; -296.000; -157.000
214.466;  -25.025; -163.000;  -43.000
214.611;   -5.575;  -61.000;  -10.000
214.756; -110.625; -948.000; -858.000
214.901;  -20.725; -388.000; -226.000
215.046; -116.475; -797.000; -825.000
215.191;   -1.450;  128.000;   35.000
215.336;  -14.450; -157.000;  -19.000
215.480;  -68.300; -684.000; -505.000
215.625;  -19.050; -175.000;  -19.000
215.770;  -88.950; -757.000; -662.000
215.915;  -13.375;   -5.000;  -97.000
216.060;    1.500; -113.000;  -21.000
216.205; -110.650; -731.000; -779.000
216.349;  -63.600; -470.000; -533.000
216.494; -121.425; -939.000; -867.000
216.639; -105.175; -823.000; -888.000
216.784;  -77.000; -577.000; -525.000
216.929;   57.975;  392.000;  281.000
217.073;  -13.625; -244.000;  -31.000
217.218;   -3.875;   78.000;  -47.000
217.363;  -86.800; -656.000; -618.000
217.507;  -86.925; -623.000; -588.000
217.652; -121.450; -845.000; -874.000
217.797;  -88.475; -708.000; -659.000
217.942; -106.700; -856.000; -720.000
218.086;   67.075;  608.000;  539.000
218.231;  -14.500; -174.000;  -26.000
218.376;  -34.900; -337.000; -229.000
218.520;   -0.075;  -41.000;   96.000
218.665;  -40.450; -338.000; -204.000
218.810;  -45.250; -275.000; -233.000
218.954;   16.475;  201.000;   35.000
219.099; -108.175; -713.000; -963.000
219.243;  -68.675; -589.000; -554.000
219.388;  -31.600; -264.000; -136.000
219.532;   -8.450; -116.000; -116.000
219.677;  -77.775; -564.000; -521.000
219.822;    2.750;   33.000;   89.000
219.966;    1.900;   17.000;  -99.000
220.111;  -41.875; -328.000;  -40.000
220.255; -102.800; -797.000; -750.000
220.400;  -10.200; -180.000; -146.000
220.544;  -68.425; -516.000; -450.000
220.689;  -63.075; -422.000; -451.000
220.833;  -14.625; -123.000;  -58.000
220.978;  -42.100; -393.000; -563.000
221.122;   30.225;  319.000;  307.000
221.267; -107.550; -906.000; -837.000
221.411;  -65.125; -478.000; -394.000
221.555;   -3.275; -104.000;  -23.000
221.700;  -51.050; -329.000; -222.000
221.844;   27.175;  255.000;  272.000
221.989;  -42.550; -328.000; -311.000
222.133;  -34.625; -289.000; -307.000
222.277;  -10.075;    5.000;   78.000
222.422;   25.400;  227.000;  113.000
222.566;  -33.425; -381.000; -214.000
222.711;  -60.350; -414.000; -479.000
222.855;  -72.500; -643.000; -586.000
222.999;  -82.325; -642.000; -717.000
223.144;  -18.500; -195.000; -194.000
223.288;   37.975;  423.000;  251.000
223.432;   29.300;  184.000;  230.000
223.576;   12.175;  152.000;  -21.000
223.721;   24.750;  364.000;  273.000
223.865;  -63.300; -472.000; -475.000
224.009;  221.525; 1673.000; 1631.000
224.153;  -77.300; -660.000; -671.000
224.298;  -53.250; -531.000; -489.000
224.442;   -3.050;  -74.000;  -33.000
224.586;   -8.975; -169.000; -106.000
224.730;  -98.975; -858.000; -670.000
224.875;  -87.700; -739.000; -688.000
225.019;   10.075;  102.000;  188.000
225.163;   40.025;  208.000;  341.000
225.307;   11.750;   97.000;  -91.000
225.451;   39.950;  360.000;  481.000
225.595;   28.675;  264.000;  176.000
225.739;  -21.150; -170.000;  -94.000
225.884;    2.600;   86.000;    5.000
226.028;  -98.500; -760.000; -626.000
226.172;  -42.025; -260.000; -273.000
226.316; -108.700; -941.000; -902.000
226.460;  -75.650; -645.000; -493.000
226.604;  -52.825; -406.000; -400.000
226.748;  -98.250; -836.000; -733.000
226.892;  -33.575; -227.000; -181.000
227.036;  -38.475; -537.000; -447.000
227.180;  -62.350; -551.000; -375.000
227.324;  -50.625; -561.000; -580.000
227.468; -104.850; -819.000; -717.000
227.612;   10.300;  242.000;  -28.000
227.756;  -95.025; -845.000; -698.000
227.900;   42.400;  342.000;  441.000
228.044;  -62.500; -509.000; -290.000
228.188;   53.175;  448.000;  568.000
228.332;  -82.500; -546.000; -472.000
228.476;  -34.025; -223.000; -149.000
228.620;  -43.075; -210.000; -150.000
228.764;   59.075;  431.000;  349.000
228.908;  -21.100; -155.000;   30.000
229.052;  -62.775; -615.000; -528.000
229.195;  -29.675; -172.000;   13.000
229.339;  -33.250; -235.000; -305.000
229.483;  -38.300;    5.000; -162.000
229.627;   -6.025; -156.000;  139.000
229.771;  -41.200; -218.000; -294.000
229.915;   -1.075;  230.000;   79.000
230.059;  -89.775; -648.000; -663.000
230.202;  -40.625; -370.000; -317.000
230.346;  -30.400; -107.000;  107.000
230.490;  -60.325; -489.000; -521.000
230.634;  -98.175; -736.000; -553.000
230.777;   66.025;  478.000;  509.000
230.921;  -66.350; -450.000; -359.000
231.065;  -49.925; -246.000; -286.000
231.209;   30.950;  261.000;  265.000
231.352;    9.625;   54.000;   40.000
231.496;    6.500;  568.000;  188.000
231.640;  -86.550; -693.000; -621.000
231.783;   60.650;  546.000;  525.000
231.927;  -31.300; -294.000; -365.000
232.071; -121.525; -962.000; -736.000
232.214; -114.125; -980.000; -764.000
232.358;  -96.900; -683.000; -599.000
232.502;    1.375;  -19.000;    7.000
232.645; -121.025;-1090.000; -927.000
232.789;  -18.875; -257.000; -218.000
232.933;  -33.050; -407.000; -224.000
233.076; -119.750;-1038.000; -897.000
233.220; -105.500; -752.000; -777.000
233.363;  -79.450; -669.000; -477.000
233.507;   38.125;  371.000;  129.000
233.650;  -87.225; -764.000; -834.000
233.794;   46.850;  438.000;  461.000
233.938;  -58.350; -530.000; -362.000
234.081;   -5.825;  -93.000;   31.000
234.225;  -81.675; -631.000; -539.000
234.368; -111.725; -773.000; -723.000
234.512;  -41.950; -385.000; -299.000
234.655;  -97.775; -582.000; -555.000
234.798;  -60.325; -493.000; -466.000
234.942; -115.125; -884.000;-1002.000
235.085;  -77.125; -651.000; -443.000
235.229;  -77.025; -405.000; -410.000
235.372;  -43.400; -247.000; -191.000
235.516;  -51.550; -397.000; -321.000
235.659;   10.025;   92.000;  121.000
235.802;  -25.900;  -38.000;  -22.000
235.946;   26.600;  335.000;  215.000
236.089;   29.375;  126.000;  250.000
236.233;   40.100;  275.000;  298.000
236.376;  -48.475; -235.000; -378.000
236.519;  -29.425; -297.000; -319.000
236.663;  -29.375; -215.000; -117.000
236.806; -126.200;-1029.000; -999.000
236.949;   57.050;  543.000;  431.000
237.092;   50.150;  412.000;  391.000
237.236;  -84.900; -589.000; -502.000
237.379;   45.850;  352.000;  428.000
237.522; -110.475; -879.000; -768.000
237.666;  -23.350; -271.000;   18.000
237.809; -111.800; -851.000; -823.000
237.952;   23.275;  469.000;  271.000
238.095;  -68.925; -447.000; -442.000
238.238;   79.425;  688.000;  700.000
238.382;   -4.050;  166.000;  103.000
238.525;  -62.600; -598.000; -511.000
238.668; -123.175;-1060.000; -985.000
238.811;  -85.025; -638.000; -643.000
238.954;  -55.950; -483.000; -334.000
239.097;   76.325;  617.000;  664.000
239.241;   17.700;  394.000;  326.000
239.384;  -39.025; -254.000; -214.000
239.527;  -49.825; -424.000; -224.000
239.670; -144.325; -994.000;-1091.000
239.813; -118.275; -696.000; -658.000
239.956;   58.400;  579.000;  473.000
240.099; -105.475; -778.000; -725.000
240.242;   54.150;  428.000;  432.000
240.385;   44.050;  466.000;  450.000
240.528;  -59.925; -706.000; -473.000
240.671;   13.125;  189.000;  134.000
240.814;  -47.225; -441.000; -158.000
240.957;  -89.100; -767.000; -578.000
241.100;  -83.275; -779.000; -755.000
241.243; -133.425;-1234.000; -893.000
241.386;  -62.300; -508.000; -379.000
241.529;  -79.575; -735.000; -547.000
241.672;  -62.300; -566.000; -495.000
241.815; -110.600; -832.000; -808.000
241.958;  -19.400; -125.000; -182.000
242.101;  -72.500; -545.000; -390.000
242.244;  -42.675; -270.000; -325.000
242.387;  -46.175; -304.000; -246.000
242.530;   53.700;  470.000;  134.000
242.673;  -53.600; -381.000; -309.000
242.815; -121.200; -925.000; -899.000
242.958;  -58.750; -482.000; -381.000
243.101;    5.050;  132.000;  187.000
243.244;  -75.500; -564.000; -521.000
243.387;  -39.300; -313.000; -316.000
243.530;  -92.900; -657.000; -674.000
243.672;    6.975;   43.000;  -92.000
243.815;  -62.775; -355.000; -283.000
243.958;   -1.200;   98.000;  -26.000
244.101;    1.225;   59.000;  -16.000
244.243;  -30.525;  -47.000;  101.000
244.386; -111.650; -761.000; -630.000
244.529;  -23.925; -132.000; -139.000
244.672; -144.400;-1154.000; -951.000
244.814;  -83.950; -621.000; -794.000
244.957;  -49.800; -380.000; -304.000
245.100;  -76.000; -489.000; -489.000
245.242;  -56.500; -387.000; -374.000
245.385;    3.150;  -59.000;  -39.000
245.528; -124.875; -871.000; -705.000
245.670;   67.075;  612.000;  634.000
245.813;  -83.275; -599.000; -547.000
245.956;  -32.300; -324.000; -275.000
246.098;  -72.000; -508.000; -650.000
246.241;   -5.175;  194.000;   48.000
246.383;  -20.350; -119.000;  -73.000
246.526;  -69.725; -454.000; -525.000
246.669; -126.000; -889.000; -780.000
246.811;   13.000;  172.000;   -1.000
246.954;  -72.475; -512.000; -426.000
247.096;  -31.825;  -84.000;   -6.000
247.239;  -78.900; -482.000; -445.000
247.381;  -72.925; -647.000; -488.000
247.524;   73.100;  645.000;  679.000
247.666;    2.825;   58.000;   11.000
247.809; -105.025; -887.000; -691.000
247.951;   -3.125;  -75.000;  138.000
248.094;   15.125;  432.000;  308.000
248.236; -150.125;-1262.000;-1238.000
248.378;  -30.200; -356.000;  -81.000
248.521;  -37.575; -334.000; -337.000
248.663;  -41.825; -236.000; -267.000
248.806;  -36.250; -300.000; -266.000
248.948;  -99.575; -886.000; -763.000
249.090;  -67.200; -428.000; -398.000
249.233;  -60.375; -344.000; -381.000
249.375;  -74.875; -474.000; -451.000
249.518;  -23.700;  -83.000; -133.000
249.660;  -17.600; -103.000;    3.000
249.802; -159.875;-1303.000;-1189.000
249.945;  -81.725; -612.000; -540.000
250.087; -106.950; -834.000; -768.000
250.229;  -62.900; -362.000; -480.000
250.371;  -75.550; -494.000; -439.000
250.514;  -59.425; -310.000; -244.000
250.656;    2.175;   69.000;  102.000
250.798; -119.700; -849.000; -800.000
250.940;  -62.350; -322.000; -322.000
251.083;  -40.750; -335.000; -111.000
251.225;   32.150;  338.000;  310.000
251.367;  -44.775; -274.000; -373.000
251.509;  -47.625; -265.000; -210.000
251.651;  -91.625; -731.000; -671.000
251.794;   46.450;  538.000;  632.000
251.936; -109.875; -821.000; -747.000
252.078;  -74.950; -540.000; -461.000
252.220;  -64.350; -645.000; -477.000
252.362;   50.625;  344.000;  462.000
252.504;  -52.825; -677.000; -584.000
252.646; -117.700; -875.000; -722.000
252.788;  -15.500;   14.000; -128.000
252.931;  -38.550; -257.000; -253.000
253.073;  -57.000; -376.000; -317.000
253.215;   -4.200;  141.000;  122.000
253.357;  -17.500;   82.000; -153.000
253.499;  -56.975; -374.000; -234.000
253.641;  -91.500; -749.000; -594.000
253.783;  -76.225; -609.000; -527.000
253.925;  -74.175; -586.000; -591.000
254.067; -108.525; -744.000; -667.000
254.209;  -35.050; -391.000; -259.000
254.351; -125.400; -865.000; -883.000
254.493;  -53.200; -441.000; -417.000
254.635; -129.825; -936.000; -818.000
254.777;  -87.900; -752.000; -687.000
254.918;  -59.275; -512.000; -430.000
255.060;  -68.625; -551.000; -395.000
255.202;  -60.775; -473.000; -261.000
255.344;  -81.625; -658.000; -455.000
255.486;  -63.900; -471.000; -406.000
255.628; -101.000; -780.000; -781.000
255.770;  -97.950; -676.000; -536.000
255.912;  -52.900; -559.000; -468.000
256.053;  -97.675; -730.000; -508.000
256.195;  144.125; 1008.000;  903.000
256.337;  -87.500; -861.000; -595.000
256.479;   63.425;  532.000;  416.000
256.621;  -46.425; -394.000; -212.000
256.762;  -97.875; -789.000; -742.000
256.904;   42.575;  485.000;  487.000
257.046;  -43.025; -381.000; -271.000
257.188;  -45.775; -351.000; -264.000
257.329;  -76.450; -525.000; -464.000
257.471; -113.825; -939.000; -807.000
257.613;  -65.200; -584.000; -498.000
257.755; -151.275;-1073.000; -982.000
257.896;   27.525;  286.000;  392.000
258.038;  -66.775; -403.000; -352.000
258.180;  -40.425; -354.000; -279.000
258.321;  -90.425; -581.000; -457.000
258.463;   -6.975;  -71.000;  133.000
258.605;  -83.225; -562.000; -570.000
258.746;  -88.400; -886.000; -772.000
258.888; -145.325;-1026.000;-1020.000
259.029;   11.375;  121.000;   -8.000
259.171;  -94.425; -614.000; -550.000
259.313;    3.750;  -49.000;  -47.000
259.454;  -67.150; -536.000; -414.000
259.596;  -53.875; -483.000; -390.000
259.737;  -75.450; -590.000; -474.000
259.879;   28.600;  217.000;  311.000
260.020;   82.850;  901.000;  636.000
260.162;  -32.525; -146.000; -253.000
260.303; -127.750; -768.000; -687.000
260.445;  -85.950; -609.000; -613.000
260.586;   14.650;  392.000;  157.000
260.728;  -49.450; -360.000; -248.000
260.869;  -59.075; -350.000; -343.000
261.011;   72.575;  706.000;  537.000
261.152;  -51.625; -479.000; -319.000
261.293;  -84.575; -576.000; -595.000
261.435;  -19.550; -219.000; -184.000
261.576;  -49.975; -455.000; -325.000
261.718;   46.000;  420.000;  470.000
261.859; -124.200; -940.000; -949.000
262.000; -112.650; -951.000;-1016.000
262.142;  -15.675;  -52.000;  -60.000
262.283; -119.725; -808.000; -691.000
262.424;  -77.750; -666.000; -625.000
262.566; -157.675;-1161.000; -983.000
262.707; -106.925; -840.000; -830.000
262.848; -119.900; -769.000; -726.000
262.990;  -46.425; -362.000; -345.000
263.131;   69.375;  650.000;  681.000
263.272;   -0.650;  -61.000;  -41.000
263.413;  -95.950; -589.000; -561.000
263.555;  -69.175; -669.000; -143.000
263.696;  -84.575; -550.000; -641.000
263.837;  -63.725; -449.000; -551.000
263.978;  -11.825;   -5.000;  -77.000
264.119;  -47.250; -283.000; -264.000
264.261; -109.025; -847.000; -630.000
264.402;    3.225;   33.000;   40.000
264.543;  -61.475; -509.000; -524.000
264.684;  -13.275;   61.000;  -50.000
264.825;  -59.875; -816.000; -538.000
264.966;   -3.475;  -84.000;  -67.000
265.107; -108.125; -646.000; -670.000
265.248; -114.350; -825.000; -812.000
265.390;   -4.225;  152.000;   -9.000
265.531;  -12.875; -238.000; -107.000
265.672;  -89.050; -557.000; -630.000
265.813;   55.075;  563.000;  439.000
265.954; -134.450; -959.000; -940.000
266.095;  -21.875; -372.000; -322.000
266.236;  -94.000; -686.000; -548.000
266.377;  -49.475; -243.000; -297.000
266.518;  -75.925; -619.000; -547.000
266.659;   16.025;  170.000;  268.000
266.800;   13.425;   83.000;   85.000
266.941;  -85.100; -487.000; -478.000
267.082;    4.700;  354.000;   99.000
267.223;  -49.300; -344.000; -273.000
267.364; -103.750; -892.000; -686.000
267.504;  -28.775;    3.000;  135.000
267.645;  -10.225;  160.000;   67.000
267.786;  -37.225; -147.000;  -86.000
267.927;  -60.450; -473.000; -379.000
268.068;  -33.325; -186.000;  -61.000
268.209;  -46.950; -175.000; -413.000
268.350;  -55.650; -388.000; -532.000
268.490;  -90.250; -648.000; -521.000
268.631;   23.675;  127.000;  225.000
268.772; -113.100; -874.000; -647.000
268.913;  -54.625; -328.000; -476.000
269.054;  -25.475; -117.000;   12.000
269.194;  -41.900; -418.000; -402.000
269.335; -146.375;-1137.000;-1074.000
269.476;  -11.650;   33.000;  -35.000
269.617;  -53.650; -347.000; -392.000
269.757;  -90.450; -713.000; -646.000
269.898; -110.300; -856.000; -613.000
270.039;  -61.250; -415.000; -405.000
270.180; -120.275; -952.000; -816.000
270.320;  -29.450; -190.000; -250.000
270.461;  -49.900; -277.000; -249.000
270.602;  -21.600; -186.000; -156.000
270.742; -127.375; -868.000; -943.000
270.883;  -52.650; -442.000; -390.000
271.023;  -51.175; -358.000; -357.000
271.164;  -76.075; -607.000; -528.000
271.305;  -94.725; -666.000; -654.000
271.445;  -89.925; -722.000; -683.000
271.586;  -77.425; -462.000; -283.000
271.726;  -49.400; -397.000; -322.000
271.867;  -66.800; -594.000; -534.000
272.008;   42.200; -473.000; -285.000
272.148;   63.400;  462.000;  468.000
272.289;  -10.375; -113.000; -181.000
272.429;   -3.950;   19.000;  185.000
272.570;  -98.100; -633.000; -737.000
272.710; -103.950; -825.000; -775.000
272.851;  -37.050;  113.000; -130.000
272.991; -147.650;-1173.000;-1077.000
273.131;  -61.675; -419.000; -459.000
273.272;  -95.225; -683.000; -723.000
273.412;  -16.275; -143.000;  -31.000
273.553;  -68.950; -488.000; -507.000
273.693;   96.700;  913.000;  858.000
273.834; -113.375; -894.000; -692.000
273.974;  -88.075; -664.000; -615.000
274.114; -101.225; -772.000; -560.000
274.255;   48.375;  414.000;  373.000
274.395;  -37.375; -180.000; -125.000
274.535;   38.475;  199.000;  350.000
274.676;   26.500;  225.000;   94.000
274.816;   -3.450;  110.000;   34.000
274.956;  -87.475; -624.000; -690.000
275.097; -110.350;-1014.000; -922.000
275.237; -126.850; -913.000; -803.000
275.377; -101.850; -778.000; -689.000
275.517; -159.250; -878.000; -937.000
275.658;  -79.325; -590.000; -555.000
275.798;  -79.175; -606.000; -413.000
275.938;    4.375;  215.000;  323.000
276.078;  -84.450; -626.000; -395.000
276.218;    6.300;   99.000;  104.000
276.359; -133.125;-1026.000;-1024.000
276.499;  -82.250; -605.000; -446.000
276.639;  -36.025; -305.000; -151.000
276.779;  -57.100; -475.000; -357.000
276.919; -102.500; -783.000; -624.000
277.059;  -24.600; -261.000; -212.000
277.199;  -40.925; -357.000; -259.000
277.340;   14.825;  287.000;  175.000
277.480; -112.100; -840.000; -693.000
277.620;   11.625;  192.000;   16.000
277.760; -182.725;-1533.000;-1294.000
277.900;   -6.300;  113.000;   33.000
278.040;   -0.200;  137.000;  159.000
278.180;    5.375;  270.000;  170.000
278.320;   -9.050;   21.000;   56.000
278.460;  -72.400; -443.000; -469.000
278.600;  -81.250; -708.000; -598.000
278.740;   45.250;  448.000;  224.000
278.880; -108.875; -768.000; -791.000
279.020;  -27.300; -194.000; -144.000
279.160;  -92.175; -672.000; -595.000
279.300; -116.500; -926.000; -873.000
279.440;  -89.350; -709.000; -622.000
279.579;  -82.325;-1014.000; -929.000
279.719;  -55.325; -410.000; -394.000
279.859;   24.300;   -4.000;   41.000
279.999;  -12.000; -208.000;  101.000
280.139;  -60.300; -435.000; -387.000
280.279;  -90.425; -708.000; -745.000
280.419;  -20.350; -229.000; -147.000
280.559;  -44.900; -259.000; -180.000
280.698;  -94.675; -790.000; -639.000
280.838; -105.800; -778.000; -800.000
280.978;  -93.825; -846.000; -790.000
281.118; -117.125; -811.000; -704.000
281.257;    8.375;   24.000;    6.000
281.397; -132.250;-1094.000; -960.000
281.537;  -82.175; -599.000; -712.000
281.677;  -16.475; -150.000; -101.000
281.816;  -82.825; -700.000; -630.000
281.956;  -38.825; -193.000; -257.000
282.096;  -58.775; -539.000; -396.000
282.235;  -84.675; -672.000; -638.000
282.375;  -22.400; -243.000;  -98.000
282.515;  -91.050; -715.000; -707.000
282.654;   29.975;   29.000;  106.000
282.794;   35.575;  388.000;  244.000
282.934;  -52.925; -530.000; -491.000
283.073; -120.425;-1030.000; -857.000
283.213;  -39.300; -460.000; -467.000
283.353;  -44.575; -408.000; -349.000
283.492;  -31.425; -264.000; -296.000
283.632;  -46.350; -254.000; -168.000
283.771;  -94.575; -859.000; -730.000
283.911;  -64.800; -369.000; -260.000
284.050;  -86.400; -794.000; -748.000
284.190; -143.850;-1229.000;-1096.000
284.329; -130.850;-1055.000; -964.000
284.469;  -88.775; -516.000; -591.000
284.608;  -48.125; -559.000; -598.000
284.748;  -91.050; -614.000; -570.000
284.887;    4.300;  -87.000;  -20.000
285.027; -117.800; -844.000; -892.000
285.166;  -36.275; -192.000; -249.000
285.306;  -11.050; -116.000;  -33.000
285.445;  -46.700; -229.000; -343.000
285.584;  -89.975; -630.000; -494.000
285.724;  -38.675; -282.000; -322.000
285.863; -105.275; -857.000; -507.000
286.002;  -51.200; -366.000; -276.000
286.142;  -95.100; -715.000; -622.000
286.281;  -72.300; -525.000; -493.000
286.420;  -86.250; -554.000; -417.000
286.560;   87.625;  653.000;  623.000
286.699; -127.300; -958.000; -912.000
286.838;  -84.775; -590.000; -591.000
286.978;  -98.275; -533.000; -537.000
287.117; -139.475;-1085.000; -950.000
287.256;  -33.175; -228.000; -211.000
287.395;  -43.175; -197.000; -378.000
287.535;  -43.925; -370.000; -298.000
287.674;  -83.100; -509.000; -484.000
287.813;   46.250;  661.000;  533.000
287.952; -130.500;-1010.000; -871.000
288.091; -134.825;-1049.000; -915.000
288.231;  -10.300;   13.000;   15.000
288.370; -156.950;-1217.000;-1200.000
288.509;  -85.825; -728.000; -645.000
288.648;  -79.400; -770.000; -548.000
288.787;  -25.550; -243.000;  -87.000
288.926;  -63.725; -454.000; -475.000
289.065;   90.600;  859.000;  672.000
289.204;  -56.525; -377.000; -217.000
289.344;  -91.500; -791.000; -690.000
289.483;    8.600;  416.000;  304.000
289.622;  -34.450; -291.000; -149.000
289.761;  -23.950; -309.000; -166.000
289.900;  -87.900; -785.000; -626.000
290.039;   -9.300;  -12.000;  -95.000
290.178;  -47.850; -274.000; -180.000
290.317;  -83.750; -618.000; -479.000
290.456;  -68.275; -463.000; -451.000
290.595; -125.500; -961.000; -833.000
290.734; -137.800; -904.000; -891.000
290.873;  -65.325; -456.000; -420.000
291.011; -104.100; -833.000; -843.000
291.150; -102.075; -770.000; -682.000
291.289;  -38.275; -343.000; -110.000
291.428;  -93.700; -599.000; -480.000
291.567;  -38.025; -370.000; -442.000
291.706;  -20.350;  109.000;  154.000
291.845;  -93.975; -597.000; -505.000
291.984; -159.850;-1234.000;-1061.000
292.122;   52.525;  602.000;  582.000
292.261;   48.075;  620.000;  463.000
292.400;   -8.150; -144.000;  211.000
292.539; -118.100; -959.000; -813.000
292.678;  -43.000; -325.000; -300.000
292.816; -150.750;-1136.000; -965.000
292.955;  -89.575; -844.000; -684.000
293.094;  -20.500; -173.000; -337.000
293.233;  -54.125; -556.000; -400.000
293.371;  -36.000; -225.000;  -84.000
293.510;  -97.250; -866.000; -780.000
293.649; -137.000; -959.000; -924.000
293.787; -118.225;-1083.000;-1012.000
293.926;  -21.950; -113.000;  -32.000
294.065;  -51.875; -379.000; -290.000
294.203;   25.375;  298.000;  406.000
294.342;   36.375;   74.000;  156.000
294.481; 5730.400;51180.000; -836.000
294.619;  -28.975; -425.000; -582.000
294.758; -133.775;-1230.000;-1137.000
294.896;    3.400; -125.000;    5.000
295.035; -132.725;-1040.000;-1006.000
295.174; -124.850;-1082.000; -954.000
295.312;  -43.450; -323.000; -203.000
295.451;  -39.675; -307.000; -428.000
295.589;  -72.175; -389.000; -518.000
295.728;    6.900; -292.000; -165.000
295.866;  -13.900;  -36.000;  -51.000
296.005;  -70.450; -584.000; -341.000
296.143;  -68.250; -558.000; -596.000
296.282; -105.550; -957.000; -881.000
296.420;  -84.225; -657.000; -557.000
296.559;  -70.275; -892.000; -633.000
296.697;  -55.775; -847.000; -665.000
296.835;  -64.350;-1141.000;-1002.000
296.974;   28.750;  -23.000;   39.000
297.112;  -26.400; -443.000; -504.000
297.251;  -82.350; -815.000; -755.000
297.389;  -17.400; -576.000; -438.000
297.527;    9.975; -145.000;  -83.000
297.666;  -68.625; -486.000; -438.000
297.804;  -58.450; -404.000; -264.000
297.942;    0.475; -136.000; -161.000
298.081;   -1.200; -183.000;   63.000
298.219;   -2.550;  -17.000;  -19.000
298.357;  -25.600; -144.000;  -71.000
298.495;  -72.025; -810.000; -812.000
298.634;   13.975;  245.000;  219.000
298.772;  -22.825; -220.000; -338.000
298.910;  -43.275; -309.000; -182.000
299.048;  -17.450; -130.000; -153.000
299.187;  -52.550; -350.000; -250.000
299.325;   -6.925;   52.000;  122.000
299.463;  -43.275; -389.000; -299.000
299.601;  -12.400; -327.000; -271.000
299.739; -131.175; -908.000; -883.000
299.877;  -95.300; -791.000; -703.000
300.016; -112.125;-1095.000; -935.000
300.154;   22.850;  -19.000; -161.000
300.292;  -37.300; -428.000; -348.000
300.430;  -24.175; -408.000; -291.000
300.568; -122.125; -940.000; -874.000
300.706;  -58.400; -366.000; -469.000
300.844; -127.100;-1108.000; -979.000
300.982;   57.875;  246.000;  282.000
301.120; -117.075; -965.000; -866.000
301.258;  -95.675; -812.000; -705.000
301.396;    2.975;  104.000;  -41.000
301.534;  -16.400; -218.000; -293.000
301.672;  -74.975; -664.000; -521.000
301.810;  -68.050; -613.000; -545.000
301.948;   27.850;   53.000;  149.000
302.086;  186.700; -250.000;  -32.000
302.224;  175.175; -610.000; -585.000
302.362;  -64.975; -558.000; -622.000
302.500;  -93.275; -923.000; -893.000
302.638;   23.675;  128.000;  245.000
302.776;  -32.800; -352.000; -408.000
302.913;   38.600;  447.000;  236.000
303.051;  -28.375;  -86.000;  -23.000
303.189;   15.400;   90.000;  118.000
303.327;  -48.850; -341.000; -256.000
303.465;  -82.525; -832.000; -588.000
303.603;  -88.625; -805.000; -604.000
303.740;   42.975;  417.000;  241.000
303.878;  -75.975; -800.000; -759.000
304.016;  -93.875; -915.000; -790.000
304.154; -149.975;-1123.000;-1152.000
304.291;  -63.850; -505.000; -554.000
304.429;   -1.750;  102.000;   74.000
304.567; -115.050; -908.000; -893.000
304.705;  -71.900; -408.000; -515.000
304.842;  -28.000; -616.000; -540.000
304.980;    8.250;  215.000;   35.000
305.118;  -38.700; -367.000; -365.000
305.255; -123.325; -945.000; -927.000
305.393;   48.500;  178.000;  239.000
305.531; -133.225;-1173.000; -956.000
305.668;  -80.075; -663.000; -582.000
305.806;   -9.625; -358.000; -439.000
305.943;  -20.950; -629.000; -637.000
306.081;  -26.300; -378.000; -267.000
306.219; -101.775; -863.000; -748.000
306.356;   18.900;  158.000;   27.000
306.494;  134.025;  981.000;  761.000
306.631;   18.725;  -11.000;  -55.000
306.769;    5.750; -613.000; -485.000
306.906;   19.450; -284.000; -258.000
307.044;  -26.375; -473.000; -488.000
307.181;  -42.800; -410.000; -332.000
307.319;   27.000;  112.000;   87.000
307.456; -157.175;-1191.000;-1153.000
307.594; -103.050; -980.000; -727.000
307.731;  -17.400; -371.000; -164.000
307.868;    0.575;  -15.000;   20.000
308.006; -114.800; -961.000; -847.000
308.143;  -58.375; -618.000; -330.000
308.281;   43.925;  -37.000; -254.000
308.418;  -49.725; -748.000; -640.000
308.555;  -50.475; -400.000; -250.000
308.693;  -52.525; -577.000; -573.000
308.830;  -85.725; -712.000; -657.000
308.967;    8.100; -215.000;  -95.000
309.105;  -10.675; -507.000; -396.000
309.242;   12.975; -468.000; -367.000
309.379;   29.950; -577.000; -655.000
309.517;  -88.700; -936.000; -948.000
309.654;  -74.600; -910.000; -734.000
309.791;  -49.375; -662.000; -580.000
309.928;  -83.875; -977.000; -914.000
310.065;  142.025;  819.000;  697.000
310.203;  -47.450; -825.000; -850.000
310.340;   -5.975; -465.000; -321.000
310.477;  -65.300; -412.000; -516.000
310.614;  -44.575; -383.000; -473.000
310.751;  -32.600; -427.000; -518.000
310.889;   -3.275;    1.000;   11.000
311.026; -116.800;-1161.000; -939.000
311.163;  -29.850; -386.000; -380.000
311.300;  -59.700; -512.000; -479.000
311.437;  -57.700; -658.000; -619.000
311.574; -148.750;-1226.000; -985.000
311.711;  -50.375; -595.000; -433.000
311.848;  -18.300; -380.000; -388.000
311.985;   44.650;  270.000;   93.000
312.122;  -98.950; -932.000; -762.000
312.259;  -78.375; -941.000; -994.000
312.396;  -35.350; -508.000; -551.000
312.533;  -50.850; -812.000; -790.000
312.670;  -99.475;-1070.000; -898.000
312.807;   10.850; -352.000; -367.000
312.944;  -53.875; -513.000; -611.000
313.081;    9.500; -150.000; -415.000
313.218;  -64.775;-1111.000; -867.000
313.355;   -3.975; -531.000; -449.000
313.492;    1.825; -455.000; -292.000
313.629;  142.550;  815.000;  735.000
313.766; -137.725;-1176.000;-1008.000
313.902;  -16.650; -186.000;   21.000
314.039;  -46.075; -372.000; -289.000
314.176;   39.175;  286.000;  192.000
314.313;  -66.025; -569.000; -473.000
314.450;  -62.625; -788.000; -684.000
314.587;  -52.600; -468.000; -480.000
314.723;   11.000;  -78.000;  130.000
314.860;   50.500;  318.000;  332.000
314.997;   50.125;  223.000;  142.000
315.134;  -34.625; -385.000; -368.000
315.270;  -20.950; -480.000; -496.000
315.407;  -93.250;-1094.000; -967.000
315.544;  -32.125; -657.000; -538.000
315.681;  -52.250; -681.000; -565.000
315.817;   36.525; -133.000; -176.000
315.954;   34.575; -613.000; -392.000
316.091; -101.150;-1045.000;-1023.000
316.227;  -10.675;  -71.000; -179.000
316.364;   -2.275;   23.000;    6.000
316.500;  -29.025; -113.000; -300.000
316.637;  -37.000; -181.000; -302.000
316.774;  -74.550; -625.000; -358.000
316.910;  -78.500; -598.000; -629.000
317.047;  -43.775; -487.000; -351.000
317.183;  -57.175; -435.000; -566.000
317.320;   35.225; -367.000; -321.000
317.456;  -30.925; -733.000; -805.000
317.593;  -83.975; -598.000; -641.000
317.729;   -8.250;  168.000;  -67.000
317.866; -181.425;-1434.000;-1285.000
318.002;  -95.100; -708.000; -948.000
318.139; -114.825; -883.000; -867.000
318.275;  -98.825;-1003.000; -738.000
318.412;  -67.025; -517.000; -336.000
318.548;  -87.025; -751.000; -720.000
318.685; -102.850; -985.000; -888.000
318.821;  -82.200; -762.000; -735.000
318.957;  -13.750;   34.000;  -23.000
319.094;   30.625;  297.000;  154.000
319.230;  -88.750; -756.000; -742.000
319.367;  -11.075; -471.000; -520.000
319.503;  -35.025; -538.000; -436.000
319.639;  -73.500; -877.000; -793.000
319.775; -101.225; -750.000; -685.000
319.912;  -68.550; -424.000; -519.000
320.048;  -83.625;-1184.000;-1184.000
320.184;   81.400;   59.000;   70.000
320.321;  -61.325; -497.000; -467.000
320.457;   77.075;  475.000;  662.000
320.593;  -58.250; -375.000; -382.000
320.729;  -97.850; -732.000; -734.000
320.866;  -75.300; -577.000; -635.000
321.002;  -83.800; -759.000; -809.000
321.138;  -42.025; -135.000; -211.000
321.274;    1.875; -148.000; -115.000
321.410;  -53.675; -585.000; -353.000
321.546; -100.425;-1011.000; -911.000
321.683;   28.025;  400.000;  185.000
321.819;  -16.100;  -48.000; -117.000
321.955; -114.475; -743.000; -722.000
322.091;  -78.500; -585.000; -540.000
322.227;  -39.400; -382.000; -202.000
322.363;  -45.700; -320.000; -215.000
322.499;  -65.250; -343.000; -331.000
322.635;   94.475;  636.000;  443.000
322.771;    3.100; -139.000;   12.000
322.907;   45.100;  129.000;  327.000
323.043;  -33.975; -115.000; -206.000
323.179;  -50.600; -394.000; -363.000
323.315;  -44.675; -401.000; -371.000
323.451;   14.925; -328.000; -236.000
323.587;   55.000;  -60.000;  -77.000
323.723;  -44.450; -682.000; -601.000
323.859;  -35.175; -258.000;  -76.000
323.995;  -37.525; -467.000; -409.000
324.131; -126.075; -967.000; -892.000
324.267;  -44.050; -254.000; -276.000
324.402; -140.475; -960.000; -983.000
324.538;  -29.025; -279.000; -104.000
324.674;   -0.250;  164.000;   77.000
324.810;   36.200;  226.000;  308.000
324.946;  -42.650; -810.000; -658.000
325.082;  -71.700; -568.000; -475.000
325.217;   -4.500;  -62.000;   16.000
325.353; -102.400; -764.000; -659.000
325.489;  -85.550; -540.000; -506.000
325.625;  -78.400; -579.000; -525.000
325.760;   81.800;  517.000;  376.000
325.896;   29.825; -515.000; -702.000
326.032;  -48.250; -403.000; -352.000
326.168;  -54.725; -462.000; -369.000
326.303;  -65.475; -352.000; -461.000
326.439;  -11.775; -336.000; -276.000
326.575;   -8.550; -190.000;  -29.000
326.710;  -23.250; -156.000;  -30.000
326.846;  -16.600;  146.000;  103.000
326.982;  -85.450; -530.000; -548.000
327.117;  -79.175; -481.000; -442.000
327.253;  -75.100; -745.000; -742.000
327.388; -150.050;-1137.000;-1153.000
327.524;  -77.575; -811.000; -578.000
327.659;  -24.900;  -58.000;  -22.000
327.795;  -26.400;   69.000;   45.000
327.931;  -69.825; -723.000; -499.000
328.066;  -21.975; -417.000; -276.000
328.202;  -23.050;   12.000; -129.000
328.337;   91.775;  957.000;  713.000
328.473;   43.400;  -12.000;  -74.000
328.608;  -24.125; -256.000; -267.000
328.743; -103.150; -799.000; -664.000
328.879;   16.400;  214.000;  114.000
329.014;  -16.650; -102.000; -122.000
329.150;  -75.200; -358.000; -483.000
329.285;  -78.950; -465.000; -466.000
329.421;  -50.100; -548.000; -246.000
329.556;  -24.075;  -36.000;   85.000
329.691;  -87.250; -633.000; -615.000
329.827;  -59.925; -626.000; -480.000
329.962;  -23.525;  131.000; -301.000
330.097;  -78.175; -673.000; -585.000
330.233;  -55.675; -410.000; -223.000
330.368; -112.500; -839.000; -628.000
330.503;   -9.125;    3.000;   98.000
330.638;  -15.050;  -93.000; -125.000
330.774;  -76.125; -609.000; -530.000
330.909;  -46.300; -434.000; -244.000
331.044;  -75.850; -714.000; -708.000
331.179; -159.900;-1217.000;-1109.000
331.315;    1.725;   77.000;   20.000
331.450;    8.975;  157.000;  285.000
331.585;  -94.150; -805.000; -706.000
331.720;  -69.375; -510.000; -460.000
331.855;   -7.325;  -35.000; -102.000
331.990;  438.125;   62.000;  138.000
332.126;  213.925; -110.000;   71.000
332.261;   20.400; -379.000; -265.000
332.396;   20.625; -135.000; -242.000
332.531;  -49.925;-1074.000;-1031.000
332.666;  102.175; -519.000; -363.000
332.801;  -89.525; -726.000; -807.000
332.936;  -30.025; -192.000; -122.000
333.071; -139.275; -870.000; -817.000
333.206;   13.975;  307.000;  379.000
333.341;   30.825;  344.000;  418.000
333.476;  -85.525; -627.000; -623.000
333.611;  -32.925; -251.000; -173.000
333.746;  -38.700; -381.000; -464.000
333.881; -101.075; -973.000; -935.000
334.016; -121.125; -936.000; -917.000
334.151; -125.725; -746.000; -702.000
334.286;   18.050;  152.000;  186.000
334.421;  -27.825; -125.000; -178.000
334.556;  -80.375; -611.000; -567.000
334.690;  -78.550; -631.000; -577.000
334.825;   46.875;  381.000;   83.000
334.960;  -44.375; -285.000; -413.000
335.095;    1.725;  135.000;  -91.000
335.230;  -87.525; -722.000; -738.000
335.365; -127.275;-1084.000; -990.000
335.499; -117.650;-1108.000;-1037.000
335.634;   10.550;    9.000;  534.000
335.769;  -78.000; -755.000; -720.000
335.904;  -63.475; -603.000; -561.000
336.038;  -21.400; -735.000; -657.000
336.173; -103.925;-1206.000;-1194.000
336.308;   20.300; -116.000; -189.000
336.443;   71.075; -544.000; -634.000
336.577;  -44.950; -936.000; -787.000
336.712;   70.500;   -4.000;  -12.000
336.847;  -23.950; -724.000; -607.000
336.981;   50.175; -272.000; -208.000
337.116;  276.075;  615.000;  501.000
337.250;  105.850; -434.000; -421.000
337.385;  473.250; -297.000; -208.000
337.520;  231.075; -632.000; -603.000
337.654;  -15.750; -215.000; -126.000
337.789; -119.275; -989.000; -933.000
337.923;  -51.150; -104.000; -205.000
338.058; -102.050; -673.000; -738.000
338.192;  -62.900; -611.000; -488.000
338.327;   -7.425;  -18.000; -155.000
338.461;  -58.575; -299.000; -469.000
338.596;  -92.700; -780.000; -638.000
338.730;  -88.475; -767.000; -803.000
338.865;  165.050;  -46.000; -140.000
338.999;   19.950; -846.000; -702.000
339.134;   12.400; -634.000; -536.000
339.268;   50.175; -741.000; -603.000
339.403;  587.450; -740.000; -775.000
339.537;  277.075; -894.000; -820.000
339.671;  -83.025; -829.000; -813.000
339.806;   -8.775; -556.000; -512.000
339.940;   42.000; -261.000; -235.000
340.074;  -93.525; -685.000; -510.000
340.209;  -55.925; -351.000; -230.000
340.343;  -81.225; -517.000; -573.000
340.477;  114.075;  998.000; 1036.000
340.612;   15.700;-1033.000; -900.000
340.746;  239.600; -199.000; -243.000
340.880;  -90.175; -924.000; -785.000
341.014;  -18.575;  -45.000; -154.000
341.149; -114.725; -756.000; -718.000
341.283; -106.850; -839.000; -754.000
341.417; -122.375;-1124.000; -938.000
341.551;  -53.475; -768.000; -708.000
341.685;  -50.700; -633.000; -611.000
341.820;  -36.950; -562.000; -493.000
341.954;  -49.950; -218.000; -349.000
342.088; -142.650;-1102.000;-1019.000
342.222;   41.425;  565.000;  618.000
342.356;  -72.825; -395.000; -335.000
342.490; -119.575; -880.000; -841.000
342.624;  -57.425; -339.000; -242.000
342.758;  -54.125; -364.000; -312.000
342.892; -102.450; -710.000; -585.000
343.026;  -36.950;  -58.000; -116.000
343.160;  -67.025; -426.000; -376.000
343.294;  -86.175; -474.000; -337.000
343.428;  -64.525; -488.000; -448.000
343.562;  -39.225; -172.000;  -23.000
343.696;  -48.150; -385.000; -314.000
343.830;  -56.300; -362.000; -356.000
343.964;  -29.050; -231.000; -168.000
344.098;  246.775;  199.000;   70.000
344.232;  195.300; -266.000; -127.000
344.366;   61.100; -567.000; -453.000
344.500;  -57.275; -665.000; -744.000
344.634;  -48.700; -324.000; -164.000
344.768;  -64.700; -531.000; -341.000
344.902;    8.075;  278.000;  256.000
345.035;  -79.775; -556.000; -496.000
345.169; -124.825; -933.000; -656.000
345.303;  -45.350; -308.000; -482.000
345.437; -112.325; -826.000; -717.000
345.571;  -51.725; -675.000; -594.000
345.704;  -66.000; -309.000; -532.000
345.838;  -33.950; -331.000; -284.000
345.972;  -58.875; -543.000; -495.000
346.106;  262.925; -179.000; -190.000
346.239;  482.725; -312.000; -243.000
346.373;   -3.000; -343.000; -302.000
346.507; -132.200; -950.000; -962.000
346.640;   20.700;  -30.000;   13.000
346.774;  -86.375; -650.000; -797.000
346.908;  -21.600; -138.000;  -11.000
347.041; -102.925; -646.000; -593.000
347.175;    1.975;  259.000;   27.000
347.309;  -94.800; -698.000; -628.000
347.442; -112.975; -883.000; -732.000
347.576;  121.250;  670.000;  668.000
347.709;   41.475; -123.000;  -52.000
347.843; -115.250; -933.000; -825.000
347.976;   26.800;  235.000;  294.000
348.110; -170.675;-1268.000;-1186.000
348.243;  -91.150; -679.000; -772.000
348.377;   18.350;  -26.000;   60.000
348.510;   33.475;  403.000;  540.000
348.644;  -26.050;  -37.000; -159.000
348.777;   -4.850;  180.000;  191.000
348.911;  -39.450; -142.000; -112.000
349.044;   82.350;  471.000;  448.000
349.178;  -40.525;-1069.000;-1006.000
349.311;   97.800;  141.000;  255.000
349.444;   39.375; -927.000; -813.000
349.578;  -16.850; -347.000; -200.000
349.711; -111.375; -959.000; -862.000
349.845;  -61.475; -661.000; -591.000
349.978; -149.175;-1224.000;-1137.000
350.111;  -85.475; -546.000; -612.000
350.244; -100.700; -596.000; -700.000
350.378;  -51.075; -392.000; -393.000
350.511;  -67.675; -393.000; -426.000
350.644; -101.100; -808.000; -806.000
350.778;    9.025;  168.000;  104.000
350.911;   -1.275;  134.000;  140.000
351.044;  -95.200; -685.000; -615.000
351.177;  -39.125; -321.000; -281.000
351.310;  -19.000;    3.000; -131.000
351.444;  -95.925; -888.000; -788.000
351.577;   26.450;  140.000;   90.000
351.710;   68.775;  593.000;  417.000
351.843;  -52.975; -165.000;  -77.000
351.976;   -1.325;  149.000;  -79.000
352.109; -102.675; -621.000; -612.000
352.242;  -51.375; -464.000; -419.000
352.376;  -95.025; -580.000; -636.000
352.509;    8.000; -437.000; -356.000
352.642;  -86.025; -654.000; -604.000
352.775;   -4.625; -141.000;  -98.000
352.908; -124.325; -933.000; -904.000
353.041;  -90.075; -814.000; -824.000
353.174;  -70.075; -551.000; -424.000
353.307; -100.275; -753.000; -764.000
353.440;   65.500;  541.000;  453.000
353.573;  -98.075; -957.000;-1008.000
353.706;  -47.300; -384.000; -558.000
353.839;  -31.325; -264.000; -220.000
353.971;  -97.400; -657.000; -512.000
354.104; -119.925; -896.000; -835.000
354.237;  -87.675; -627.000; -662.000
354.370; -107.850; -846.000; -879.000
354.503; -176.025;-1231.000;-1308.000
354.636;   -8.550; -529.000; -348.000
354.769; -122.350; -937.000; -860.000
354.902;  -24.550; -230.000; -139.000
355.034;  -13.600; -164.000; -220.000
355.167;  -12.025; -262.000; -162.000
355.300;  -60.550;-1061.000; -880.000
355.433; 1498.300;  -71.000;  -14.000
355.565; 2356.700; -402.000; -384.000
355.698;  602.975; -356.000; -296.000
355.831;   11.625; -882.000; -801.000
355.964;   20.425; -285.000; -170.000
356.096;  -61.700; -856.000; -843.000
356.229;   -1.975; -523.000; -530.000
356.362;  552.225; -373.000; -266.000
356.494;  969.575; -229.000; -162.000
356.627;  322.925;  269.000;  377.000
356.760;  927.100;  120.000;   53.000
356.892; 1560.475; -286.000; -601.000
357.025;  335.450;  403.000;  389.000
357.157;  208.000; -167.000; -179.000
357.290; 1221.925; -856.000; -713.000
357.423;  382.300; -667.000; -556.000
357.555;  104.200; -217.000; -228.000
357.688;  115.550; -483.000; -364.000
357.820;  131.100; -870.000; -877.000
357.953; 1195.450; -563.000; -589.000
358.085;  188.550; -632.000; -612.000
358.218;   82.150;-1131.000; -932.000
358.350;   43.775;  -58.000;  312.000
358.483; -153.625;-1300.000;-1187.000
358.615; -121.500;-1182.000;-1078.000
358.747; -148.525;-1187.000;-1058.000
358.880;  -36.500; -810.000; -744.000
359.012;  -32.625; -376.000; -202.000
359.145;  -56.325; -480.000; -511.000
359.277;  -66.000; -962.000; -913.000
359.409; 1038.900;  536.000;  231.000
359.542;  198.300; -738.000; -688.000
359.674;   16.900;   46.000;   13.000
359.806;  -72.200; -565.000; -438.000
359.939;  -37.200; -617.000; -516.000
360.071;   49.600; -583.000; -579.000
360.203;  -14.275; -411.000; -364.000
360.335;   18.100;  164.000;  -16.000
360.468;   78.775; -249.000; -307.000
360.600; 1171.725; -547.000; -454.000
360.732; 4278.825; -546.000; -423.000
360.864;  683.800;-1216.000;-1044.000
360.996;   64.225; -516.000; -554.000
361.129;  -38.100; -389.000; -598.000
361.261;   -8.350;  110.000; -113.000
361.393;  -53.975; -252.000; -214.000
361.525;  -12.225;   94.000;  244.000
361.657; -109.450; -821.000; -703.000
361.789;  -28.550; -139.000; -155.000
361.921;  -31.525; -642.000; -593.000
362.053;   86.925;  524.000;  541.000
362.185;    1.150;  288.000;   72.000
362.318; -109.800; -709.000; -705.000
362.450;   27.525;  294.000;  444.000
362.582;  -88.075; -913.000; -870.000
362.714;  -68.850; -353.000; -332.000
362.846;  -81.775; -606.000; -490.000
362.978; -144.400; -941.000; -811.000
363.109;  -13.050; -161.000; -260.000
363.241;  160.300; -739.000; -749.000
363.373;  669.350; -649.000; -564.000
363.505; 1068.300; -186.000;  -91.000
363.637;  253.800; -787.000; -601.000
363.769; -129.675;-1067.000;-1080.000
363.901;  -80.675; -596.000; -654.000
364.033; -146.575;-1103.000;-1062.000
364.165;  -24.925; -283.000; -283.000
364.296;  107.950; -316.000; -177.000
364.428;  217.400;-1344.000;-1220.000
364.560;  -47.550; -679.000; -661.000
364.692;  -84.850; -738.000; -835.000
364.824;  -22.100; -588.000; -456.000
364.955;  509.550; -402.000; -564.000
365.087; 1734.600;-1097.000; -852.000
365.219;  109.200; -686.000; -816.000
365.351;  -71.300; -526.000; -572.000
365.482;   17.250;  300.000;  240.000
365.614;  -59.250; -402.000; -314.000
365.746; -109.325; -729.000; -752.000
365.877;  -89.575; -706.000; -672.000
366.009;  438.375;  -35.000;  -62.000
366.141;   -3.725;-1249.000;-1134.000
366.272; -101.475; -803.000; -719.000
366.404; -127.900;-1005.000; -874.000
366.535;    4.925; -139.000;  -12.000
366.667; -104.725; -644.000; -649.000
366.799;   34.750;  353.000;  203.000
366.930; -120.475; -862.000; -996.000
367.062;  181.975; -639.000; -613.000
367.193;  371.625; -872.000; -842.000
367.325;  -36.350; -580.000; -684.000
367.456;    0.625; -246.000;   31.000
367.588;  282.925; -371.000; -318.000
367.719;   47.300;  -44.000;  -45.000
367.851;  -28.225; -222.000; -241.000
367.982; -104.050; -875.000; -732.000
368.113;  -22.825; -475.000; -358.000
368.245; -139.250; -960.000; -841.000
368.376;  -39.325; -254.000; -302.000
368.508;  -51.400; -188.000; -263.000
368.639; -145.550;-1166.000;-1034.000
368.770;  -79.775; -670.000; -589.000
368.902; -105.700; -836.000; -926.000
369.033; -113.400; -906.000; -855.000
369.164;  -16.575; -720.000; -653.000
369.296;  -89.125; -452.000; -601.000
369.427;  -24.825; -209.000; -144.000
369.558;  -71.400; -593.000; -377.000
369.689;  -72.675; -721.000; -569.000
369.821; -129.600; -951.000; -845.000
369.952;  -25.575;   42.000; -108.000
370.083;  -52.375; -229.000; -108.000
370.214; -101.600; -735.000; -650.000
370.345;  -18.200;   65.000;   81.000
370.477; -114.875; -810.000; -790.000
370.608;   19.050; -328.000; -264.000
370.739; -125.175;-1233.000;-1292.000
370.870; -108.075;-1102.000; -923.000
371.001;  -19.100; -378.000; -467.000
371.132; -104.125; -754.000; -735.000
371.263;  -23.550;  -42.000; -148.000
371.394; -124.075; -841.000; -748.000
371.525;   26.975;  345.000;  225.000
371.657; -128.900; -808.000; -670.000
371.788;   19.775;  103.000;  199.000
371.919;    9.950; -384.000; -304.000
372.050; 1027.075;  -91.000; -156.000
372.181;  323.775; -188.000; -294.000
372.311;   91.500;   42.000; -127.000
372.442;  -42.975; -457.000; -451.000
372.573;  -55.675; -444.000; -340.000
372.704; -138.225;-1008.000; -980.000
372.835;  -27.550; -228.000; -289.000
372.966;  -79.350; -646.000; -554.000
373.097;  -98.825; -575.000; -711.000
373.228;  -90.125; -717.000; -542.000
373.359;  -52.725; -824.000; -536.000
373.490;  126.400; -881.000; -727.000
373.620;  199.250;-1001.000; -803.000
373.751;  429.250; -332.000; -396.000
373.882;  172.075; -663.000; -733.000
374.013;  -14.550; -449.000; -262.000
374.143;  -86.850; -581.000; -659.000
374.274; -127.225; -987.000; -908.000
374.405;   59.825; -388.000; -276.000
374.536;   86.900; -526.000; -387.000
374.666;  217.875; -759.000; -807.000
374.797;  -24.175; -817.000; -868.000
374.928;  150.100; -710.000; -560.000
375.058;  142.700; -535.000; -500.000
375.189;    4.525;  -59.000;  -93.000
375.320; -135.200; -928.000;-1034.000
375.450;  -56.475; -625.000; -616.000
375.581;  -49.025; -526.000; -436.000
375.712;  -40.450; -574.000; -250.000
375.842;   -5.675; -438.000; -415.000
375.973;  -18.825; -554.000; -513.000
376.103;  -95.575; -665.000; -648.000
376.234;  -94.900; -531.000; -552.000
376.364; -112.575; -944.000; -867.000
376.495;  142.900;  925.000;  529.000
376.625;  -69.725; -472.000; -485.000
376.756;  -55.650; -709.000; -678.000
376.886; -149.350;-1178.000;-1026.000
377.017;  168.425;-1048.000;-1061.000
377.147;  673.000; -786.000; -782.000
377.278;   95.700;  174.000;  228.000
377.408;  -99.400; -801.000; -815.000
377.538;  -83.575; -707.000; -693.000
377.669;  -69.800; -537.000; -613.000
377.799; -100.925; -645.000; -635.000
377.929;  -80.125; -610.000; -428.000
378.060; -108.775; -781.000; -847.000
378.190;  -14.150; -726.000; -531.000
378.320;  -38.150; -401.000; -406.000
378.451;  -14.900; -131.000;  -22.000
378.581;  -22.725;  -67.000; -110.000
378.711;   85.000; 1035.000;  866.000
378.841;  -63.375; -533.000; -675.000
378.972; -115.075; -871.000; -751.000
379.102;  -56.250; -652.000; -579.000
379.232;  -33.650; -126.000;  -73.000
379.362; -108.250;-1001.000; -885.000
379.492;  -54.925; -373.000; -424.000
379.623;   36.300;    0.000;  111.000
379.753; -114.100;-1107.000; -974.000
379.883;   67.375;   59.000;  156.000
380.013;  -90.250;-1081.000;-1017.000
380.143; -120.625;-1097.000;-1056.000
380.273; -117.225; -985.000; -861.000
380.403;   -2.950; -344.000; -257.000
380.533;  -46.700; -651.000; -664.000
380.663;   24.550;  173.000;  128.000
380.793; -134.750;-1027.000;-1074.000
380.923;  -15.850; -103.000;  -34.000
381.053;  -88.275; -613.000; -623.000
381.183;  -46.900; -106.000; -248.000
381.313;  -62.625; -656.000; -470.000
381.443;  -52.800; -692.000; -473.000
381.573;  -21.300; -402.000; -409.000
381.703;  -95.750;-1249.000;-1095.000
381.833; -163.700;-1454.000;-1336.000
381.963;   10.725; -134.000;  -87.000
382.093;  309.275; -925.000; -909.000
382.223;   65.400; -713.000; -602.000
382.353;  -84.725; -801.000; -608.000
382.482;  -12.975;-1091.000; -964.000
382.612;  127.750; -872.000; -644.000
382.742;   51.425; -695.000; -622.000
382.872;   -7.500; -565.000; -551.000
383.002;   31.900;  347.000; -132.000
383.131;  -28.400; -226.000; -160.000
383.261;  -43.725; -706.000; -768.000
383.391;  326.975; -552.000; -377.000
383.521; 5111.300;  451.000;  263.000
383.650; 1578.000; -947.000; -904.000
383.780;   50.775; -783.000; -656.000
383.910;   92.825;  880.000;  802.000
384.039;  -84.175; -794.000; -656.000
384.169;  -77.775;-1205.000;-1017.000
384.299;  -95.050; -650.000; -662.000
384.428; -107.950; -764.000; -680.000
384.558;  -55.100; -308.000; -275.000
384.687;  -67.850; -414.000; -334.000
384.817;  -10.150;   75.000;   -2.000
384.947;  -31.525; -234.000; -141.000
385.076;  164.775;  982.000;  912.000
385.206;   55.850;  369.000;  480.000
385.335;  -62.375; -549.000; -417.000
385.465;  -90.750; -655.000; -663.000
385.594;   12.325;  -53.000;  -44.000
385.724;   22.125; -868.000; -838.000
385.853;   10.675; -296.000; -270.000
385.982;  255.225; -743.000; -787.000
386.112;  540.850;-1052.000; -871.000
386.241;    5.475; -307.000; -312.000
386.371;  -30.225; -174.000;  -87.000
386.500;  -61.825; -825.000; -789.000
386.629;   -1.325; -874.000; -817.000
386.759;   91.125;  -43.000;   68.000
386.888;   -7.500; -170.000; -250.000
387.017;  -90.600; -648.000; -620.000
387.147;  -94.750; -771.000; -798.000
387.276;  -45.925; -410.000; -397.000
387.405;  -40.750; -398.000; -342.000
387.535;  -75.950; -452.000; -361.000
387.664;  -63.375; -692.000; -620.000
387.793;  -18.625; -198.000; -113.000
387.922;  134.550;  255.000;  200.000
388.052;  -60.650; -576.000; -423.000
388.181;  -51.175; -342.000; -472.000
388.310;  -85.875; -889.000; -710.000
388.439;  -97.950; -749.000; -742.000
388.568;   41.300;  365.000;  244.000
388.697;  203.450; -756.000; -653.000
388.826;  -15.450; -768.000; -666.000
388.956;  -32.200; -285.000; -307.000
389.085;  -40.850; -347.000; -287.000
389.214; -108.575; -842.000; -872.000
389.343;  -46.125; -645.000; -413.000
389.472;  566.525;  126.000;  149.000
389.601;  653.800;   91.000;    0.000
389.730;   -9.900; -568.000; -687.000
389.859;   41.575;  226.000;   46.000
389.988;   26.600; -423.000; -408.000
390.117;   44.375; -168.000; -146.000
390.246;  -45.675; -331.000; -320.000
390.375;  -58.450; -673.000; -626.000
390.504;  -85.725; -703.000; -621.000
390.633; -109.275; -672.000; -726.000
390.761;  -79.025; -732.000; -645.000
390.890;  -12.125;   -4.000; -130.000
391.019;  -74.675; -421.000; -441.000
391.148; -119.875; -826.000; -855.000
391.277;  -81.025; -576.000; -493.000
391.406; -108.725; -821.000; -805.000
391.534;   14.650;  574.000; -301.000
391.663;  -84.100; -583.000; -645.000
391.792;  -99.825; -673.000; -701.000
391.921;    6.150;   -3.000;   15.000
392.050;    0.450; -287.000; -228.000
392.178; -130.525;-1206.000;-1061.000
392.307;  -44.300; -758.000; -712.000
392.436;  -57.775; -427.000; -641.000
392.564;    8.700;  166.000;   -6.000
392.693; -103.600; -860.000; -682.000
392.822;   -1.975; -529.000; -534.000
392.950;  -41.025; -880.000; -714.000
393.079;   42.125; -188.000; -328.000
393.208;  -36.150; -488.000; -511.000
393.336;   -3.975; -170.000; -145.000
393.465;  -38.900; -317.000; -199.000
393.593;    4.600;   62.000;   79.000
393.722; -142.450;-1121.000; -916.000
393.850;  -30.325; -188.000;  -61.000
393.979; -143.950; -926.000; -805.000
394.107;  -57.525; -517.000; -537.000
394.236;  -45.000; -570.000; -507.000
394.364;  100.200;  383.000;  206.000
394.493;   46.875; -911.000; -767.000
394.621;   16.525; -955.000; -916.000
394.750; 1211.700; -873.000; -923.000
394.878; 4629.625; -247.000; -149.000
395.007; 6887.750; -721.000; -807.000
395.135;  639.075; -790.000; -721.000
395.263;  -42.675;-1038.000;-1040.000
395.392;   13.300;  -25.000; -107.000
395.520; -120.750; -818.000; -679.000
395.648; -124.275; -865.000; -915.000
395.777;  -66.075; -366.000; -405.000
395.905;  -75.000; -449.000; -564.000
396.033;   -7.825;  217.000;  172.000
396.162;   66.075; -399.000; -453.000
396.290;   88.575;  -17.000;   -2.000
396.418;  -47.475; -555.000; -514.000
396.546;  -87.425; -571.000; -466.000
396.674; -121.200; -850.000; -878.000
396.803;  -17.200;  -72.000;  -23.000
396.931;  -22.800; -179.000; -199.000
397.059; -128.225;-1026.000; -989.000
397.187; -135.675;-1026.000; -975.000
397.315; -132.050; -884.000; -649.000
397.443;  -82.500; -592.000; -443.000
397.572;  -93.800; -578.000; -424.000
397.700;  -82.725; -607.000; -614.000
397.828;  -27.825;  120.000;  -90.000
397.956;  -36.800; -508.000; -478.000
398.084;  -24.150; -767.000; -626.000
398.212;   -4.775;  137.000;  124.000
398.340;  -23.175;  -56.000;  159.000
398.468;  -53.075; -390.000; -169.000
398.596; -150.775; -993.000; -953.000
398.724; -120.975; -762.000; -767.000
398.852; -153.150;-1024.000; -976.000
398.980;  -90.225; -560.000; -560.000
399.108; -108.275; -982.000; -735.000
399.236;  -10.325;   13.000;    8.000
399.363;  -16.000;  222.000;  196.000
399.491;  -68.000; -404.000; -398.000
399.619; -112.175; -829.000; -800.000
399.747; -116.100; -859.000; -771.000
399.875;   33.975;  220.000;  234.000
400.003;  -69.050; -359.000; -284.000
400.130;  -97.400; -421.000; -341.000
400.258;  -33.050;  -83.000;   38.000
400.386;  -68.425; -352.000; -168.000
400.514;  -87.950; -526.000; -587.000
400.641; -149.225; -928.000; -802.000
400.769; -137.625; -979.000; -888.000
400.897; -113.425; -838.000; -793.000
401.025;  -37.275; -166.000; -152.000
401.152;  -13.175;  220.000;   38.000
401.280;  -88.800; -430.000; -429.000
401.408; -120.600; -712.000; -576.000
401.535;  -95.425; -735.000; -758.000
401.663; -184.925;-1134.000;-1054.000
401.790;  -87.275; -514.000; -525.000
401.918;   37.550;  436.000;  405.000
402.046;  -25.550;  134.000;  122.000
402.173;  -29.775;  -18.000;    7.000
402.301;  -59.300; -519.000; -397.000
402.428;   26.750;  528.000;  383.000
402.556; -139.875;-1188.000; -913.000
402.683;  -42.625;  -20.000;   -1.000
402.811;  -28.500;  -37.000; -206.000
402.938;  -20.500;   20.000;   27.000
403.066;   -5.300; -574.000; -558.000
403.193;  100.975;  299.000;  239.000
403.321;   57.375; -396.000; -574.000
403.448;  113.175;   83.000;   27.000
403.575;   45.975;  -90.000;  -46.000
403.703;  -82.925; -732.000; -557.000
403.830;  -45.975; -531.000; -496.000
403.957;  -98.550;-1117.000;-1023.000
404.085;   32.000;  -61.000; -172.000
404.212;  126.025;  -50.000;   63.000
404.339;  469.925; -566.000; -306.000
404.467; 9294.325; -612.000; -524.000
404.594; 5766.900; -287.000; -227.000
404.721; 1019.675; -869.000; -764.000
404.848;  131.550; -113.000; -202.000
404.976;  -84.000; -856.000; -783.000
405.103;    2.075;  -14.000;  -82.000
405.230;   15.200;  190.000;  226.000
405.357;   50.125;  117.000;   44.000
405.484;  452.025;  -49.000;    5.000
405.612;  142.875; -548.000; -563.000
405.739;  -45.525; -488.000; -243.000
405.866;   68.550;  669.000;  385.000
405.993;  -50.775; -398.000; -102.000
406.120; -136.500; -801.000; -887.000
406.247;  -81.975; -323.000; -342.000
406.374;  113.525;  540.000;  629.000
406.501;  -85.700; -632.000; -702.000
406.628;  -90.825; -621.000; -589.000
406.755; -112.625; -803.000; -620.000
406.882;  -44.700; -228.000; -277.000
407.009; -105.400; -719.000; -628.000
407.136;  -45.500; -480.000; -401.000
407.263;  -42.975; -939.000; -829.000
407.390;  -79.300; -692.000; -614.000
407.517; -170.950;-1139.000;-1187.000
407.644;  -70.900; -332.000; -256.000
407.771;  -76.700; -249.000; -287.000
407.898;   -3.225;  168.000;  328.000
408.025;  -70.800; -421.000; -313.000
408.151;    8.200;   82.000;  153.000
408.278;  -71.500; -267.000; -216.000
408.405; -135.450; -931.000; -899.000
408.532;  -92.650; -549.000; -542.000
408.659; -110.950; -677.000; -648.000
408.785; -193.900;-1298.000;-1170.000
408.912;  -60.200; -412.000; -296.000
409.039;  -96.475; -610.000; -686.000
409.166; -109.025; -591.000; -555.000
409.292; -102.300; -571.000; -534.000
409.419; -116.475; -665.000; -649.000
409.546;  -88.500; -431.000; -192.000
409.672; -114.725; -713.000; -545.000
409.799;  -35.025;  -36.000;   34.000
409.926;  -58.200; -180.000; -179.000
410.052; -172.325;-1127.000;-1091.000
410.179;  -60.625; -368.000; -392.000
410.305;  -79.250; -375.000; -493.000
410.432;  -20.400; -220.000; -333.000
410.558;  -82.900; -305.000; -380.000
410.685; -104.900; -688.000; -431.000
410.812;  -98.850; -409.000; -588.000
410.938; -138.475; -964.000; -808.000
411.065; -103.975; -671.000; -645.000
411.191;  -45.225; -189.000; -174.000
411.317; -122.850; -823.000; -742.000
411.444;  -69.325; -317.000; -246.000
411.570;  -67.850; -339.000; -294.000
411.697; -114.775; -758.000; -752.000
411.823; -170.425; -989.000; -999.000
411.949;  -46.050;  -56.000;   17.000
412.076; -119.850; -539.000; -519.000
412.202; -124.675; -758.000; -757.000
412.329; -125.475; -798.000; -752.000
412.455; -123.250; -821.000; -657.000
412.581;  -27.750;  -15.000;  172.000
412.707;  -92.475; -540.000; -457.000
412.834;   -0.200;  156.000;  219.000
412.960; -104.325; -785.000; -784.000
413.086; -107.250; -743.000; -701.000
413.212;  114.050;  604.000;  578.000
413.339;  -90.925; -685.000; -701.000
413.465;  -54.025; -364.000; -310.000
413.591; -104.100; -757.000; -474.000
413.717;  -55.750; -358.000; -366.000
413.843; -135.575; -839.000; -861.000
413.969;  -42.000;  -47.000; -292.000
414.096;  -84.575; -679.000; -679.000
414.222;   -5.225;  -33.000;   85.000
414.348;  -86.875; -652.000; -385.000
414.474;  -15.900;   38.000;  -52.000
414.600;  -25.900; -126.000; -144.000
414.726;   -9.725;  -96.000;  -55.000
414.852;  -45.025; -365.000; -342.000
414.978;   42.425;  104.000;  -18.000
415.104;   59.225;   38.000;   80.000
415.230;   46.325; -329.000; -330.000
415.356;   70.225; -409.000; -514.000
415.482;  244.425;   13.000;  -35.000
415.608;  434.200; -247.000; -323.000
415.734; 1351.850;   67.000;   38.000
415.860;28548.625; -875.000; -767.000
415.986;24130.425; -685.000; -607.000
416.111; 2298.800; -798.000; -652.000
416.237;  499.850; -424.000; -571.000
416.363; 1704.300; -765.000; -733.000
416.489; 6995.550; -324.000; -251.000
416.615;  999.300; -707.000; -742.000
416.741;   64.925; -677.000; -784.000
416.866;  -43.275; -673.000; -736.000
416.992;  -80.775; -801.000; -818.000
417.118;  -18.425;  -41.000;  -80.000
417.244;  -64.300; -798.000; -531.000
417.369;  -67.075; -801.000; -612.000
417.495;    7.025; -325.000; -254.000
417.621;  -66.975;-1015.000; -803.000
417.746;   27.000; -579.000; -572.000
417.872;   75.850; -254.000; -144.000
417.998;  151.525; -515.000; -530.000
418.123; 1616.250;-1073.000; -845.000
418.249; 8984.525; -512.000; -601.000
418.374; 1576.725; -916.000; -824.000
418.500;  263.650; -383.000; -482.000
418.626;  183.050;   70.000;  -59.000
418.751;  190.950; -549.000; -448.000
418.877;  343.550; -637.000; -643.000
419.002; 2642.150; -688.000; -560.000
419.128;20174.775; -930.000; -721.000
419.253; 5876.275; -967.000; -837.000
419.379;  827.450; -391.000; -338.000
419.504;  619.250;  325.000;  415.000
419.629;  887.625; -393.000; -212.000
419.755; 5438.200; -317.000; -254.000
419.880;36022.150;  -98.000;   67.000
420.006;18167.850; -280.000; -221.000
420.131;45167.100; -662.000; -775.000
420.256; 7514.425; -315.000; -316.000
420.382; 1052.625; -665.000; -687.000
420.507;  194.300; -649.000; -778.000
420.632;   54.025; -337.000; -339.000
420.758;   59.025; -251.000; -425.000
420.883;  -75.850; -876.000; -672.000
421.008;  -96.900; -775.000; -619.000
421.133;  -69.300; -509.000; -467.000
421.259;  -58.575; -325.000; -259.000
421.384; -114.425; -834.000; -693.000
421.509; -113.500;-1052.000; -862.000
421.634;  135.300; -936.000; -820.000
421.759;   69.425; -359.000; -327.000
421.885;  -89.225; -717.000; -656.000
422.010;  -79.400; -673.000; -542.000
422.135; -146.600; -695.000; -727.000
422.260;   13.900;  340.000;  280.000
422.385;  -46.400;   12.000;  -98.000
422.510;    9.375;  151.000;  -26.000
422.635;  -11.000;  -87.000;  -43.000
422.760;  -34.000; -766.000; -791.000
422.885;   20.250;  -57.000;  -80.000
423.010;  -29.150; -112.000; -169.000
423.135;  -87.675; -481.000; -561.000
423.260;  -39.475; -150.000; -245.000
423.385;   31.900;  476.000;  222.000
423.510;    6.875;   71.000;  -22.000
423.635;    2.050;  133.000;   45.000
423.760;   56.550;  383.000;  328.000
423.885;   37.275;  336.000;  391.000
424.010;   -9.250;  -68.000;  -13.000
424.135;  -19.225;    5.000;  -33.000
424.259;  -68.225; -654.000; -457.000
424.384;  -49.475; -279.000; -272.000
424.509;  -15.375; -260.000; -186.000
424.634;  -76.225; -761.000; -623.000
424.759;  -36.625; -688.000; -544.000
424.883;   14.975; -506.000; -527.000
425.008;  206.050; -502.000; -410.000
425.133; 2955.750; -679.000; -653.000
425.258; 1658.800; -517.000; -381.000
425.382;  448.600; -867.000; -774.000
425.507;  994.475; -487.000; -543.000
425.632;  365.225; -802.000; -663.000
425.756;  723.075; -256.000; -146.000
425.881;10139.825; -831.000; -857.000
426.006;31885.150; -604.000; -355.000
426.130; 5396.100; -696.000; -508.000
426.255;  732.025; -611.000; -491.000
426.379;  299.225; -189.000; -577.000
426.504;  507.575;  660.000;  544.000
426.629; 5908.300; -519.000; -466.000
426.753; 4737.825;   64.000;  -46.000
426.878;  591.175; -252.000; -288.000
427.002;  346.875; -651.000; -668.000
427.127; 2085.925;  -35.000; -158.000
427.251;17831.125;  372.000;  401.000
427.375; 5947.700; -191.000; -173.000
427.500; 1234.725; -616.000; -610.000
427.624;  364.850; -234.000; -400.000
427.749;   93.450; -216.000; -225.000
427.873;    2.125; -499.000; -412.000
427.997;  -46.300; -222.000; -230.000
428.122;   67.700;  795.000;  703.000
428.246;   28.200;  433.000;  434.000
428.371; -137.425; -869.000; -773.000
428.495; -113.250; -624.000; -646.000
428.619;  -29.350; -186.000; -117.000
428.743;    0.400;   65.000;  132.000
428.868;  -81.125; -732.000; -643.000
428.992;  395.475; -219.000; -326.000
429.116;  137.825; -329.000; -357.000
429.240;  116.800;  419.000;  426.000
429.365;  -35.975; -454.000; -574.000
429.489;  -54.475; -638.000; -647.000
429.613;   46.250; -236.000; -177.000
429.737;   94.900; -563.000; -432.000
429.861;  405.950; -247.000; -133.000
429.985; 8178.075; -425.000; -305.000
430.109;10696.575; -770.000; -908.000
430.234; 1330.425;   76.000;  -50.000
430.358;  171.025; -250.000; -160.000
430.482;   -9.375; -672.000; -564.000
430.606;  -50.800; -655.000; -375.000
430.730;  -45.975; -437.000; -388.000
430.854;  -74.500; -909.000; -835.000
430.978;  -84.400; -795.000; -764.000
431.102;  -71.675; -499.000; -422.000
431.226; -108.025; -874.000; -815.000
431.350;   29.050;  345.000;  422.000
431.474;  -66.450; -661.000; -373.000
431.597; -147.525;-1060.000; -848.000
431.721;  -69.400; -276.000; -267.000
431.845; -115.025; -704.000; -472.000
431.969;  -70.100; -304.000; -349.000
432.093;  -86.400; -395.000; -317.000
432.217;    3.075;   32.000;   82.000
432.341;  -75.200; -523.000; -518.000
432.464;   19.100;   96.000;   40.000
432.588;   -8.375; -401.000; -329.000
432.712;   29.250;  -52.000;  -52.000
432.836;   81.875;  213.000;  263.000
432.959;   35.300; -372.000; -311.000
433.083;  197.700;   11.000;    2.000
433.207;  579.275;  285.000;  930.000
433.330; 7766.425; -391.000; -200.000
433.454;11107.075; -654.000; -638.000
433.578; 6143.825;  583.000;  278.000
433.701; 1367.225; -623.000; -675.000
433.825;  179.900; -292.000; -299.000
433.949;   51.400;   28.000;  -72.000
434.072;   -6.950; -410.000; -323.000
434.196;   -1.500; -309.000; -117.000
434.319; 3453.000;25482.000;25124.000
434.443;  916.375; -656.000; -603.000
434.566; 4203.875;  281.000;   62.000
434.690;  980.300; -637.000; -383.000
434.813;  196.800; -251.000; -173.000
434.937;  -27.625; -569.000; -696.000
435.060;  -66.650; -423.000; -332.000
435.184;    2.875; -492.000; -217.000
435.307;   21.200;  159.000;  102.000
435.431;  -28.775;  -40.000;   24.000
435.554;  -94.425; -399.000; -240.000
435.677;  -89.150; -350.000; -258.000
435.801;  -43.550;  -25.000;   49.000
435.924;  -47.925;    1.000;  -67.000
436.048; -152.425;-1019.000; -732.000
436.171;  -75.400; -240.000;  -66.000
436.294;    4.750; -248.000; -229.000
436.417;  257.025; -963.000; -849.000
436.541;  -20.125; -814.000; -840.000
436.664;  -35.650; -242.000; -316.000
436.787;  -17.175;   13.000;  113.000
436.910; -122.625; -792.000; -422.000
437.034;  -10.550;  142.000;  143.000
437.157;   16.550;  -11.000;    0.000
437.280;  -67.325; -392.000; -292.000
437.403; -127.275; -982.000; -869.000
437.526;   -2.925; -903.000; -865.000
437.649;  405.825; -505.000; -332.000
437.772;   -9.250; -692.000; -540.000
437.896;   37.450;  700.000;  544.000
438.019;  -97.025; -758.000; -503.000
438.142; -103.850; -596.000; -506.000
438.265; -114.800; -639.000; -670.000
438.388;   24.675; -520.000; -410.000
438.511;  -62.875; -597.000; -394.000
438.634;  -64.725; -247.000; -125.000
438.757; -138.025; -693.000; -619.000
438.880;  -34.875;  -34.000;  -57.000
439.003;  -91.275; -417.000; -437.000
439.126;  -62.375; -287.000; -167.000
439.248;  -67.925;  -98.000; -139.000
439.371;  -42.525;    9.000;  -53.000
439.494;   19.450;  510.000;  439.000
439.617;  -46.425;   65.000;  -88.000
439.740; -169.200; -968.000; -816.000
439.863; -140.950; -755.000; -595.000
439.986; -112.000; -476.000; -431.000
440.108;  -36.350; -161.000; -112.000
440.231; -161.225; -950.000; -836.000
440.354;  -49.225;  -64.000; -150.000
440.477; -109.875; -566.000; -542.000
440.599;  -71.500; -200.000; -225.000
440.722; -117.750; -709.000; -586.000
440.845;   46.275;  751.000;  928.000
440.968; -100.850; -415.000; -311.000
441.090;  -74.125; -199.000;  -33.000
441.213; -161.075;-1021.000; -825.000
441.336;  -67.100; -159.000;   -5.000
441.458;  -85.000; -549.000; -396.000
441.581; -122.775; -628.000; -629.000
441.703;  -74.600; -152.000;   13.000
441.826; -119.925; -557.000; -400.000
441.948;  -56.150;   56.000;   51.000
442.071;   22.025;  555.000;  424.000
442.193; -106.525; -531.000; -485.000
442.316;    1.325;  152.000;   97.000
442.438;   83.325; -233.000;  -10.000
442.561;   65.225;  272.000;  262.000
442.683;   40.575; -809.000; -522.000
442.806;  221.075;   -8.000;   74.000
442.928; -113.925; -859.000; -604.000
443.051;  -92.000; -577.000; -373.000
443.173;  -86.325; -341.000; -339.000
443.295;  -88.200; -263.000; -371.000
443.418;  -82.425; -321.000;  -29.000
443.540;  -36.675; -106.000;   -4.000
443.662; -127.050; -563.000; -465.000
443.785;  -19.400;  335.000;  199.000
443.907;  -84.700; -362.000; -208.000
444.029; -134.475; -767.000; -494.000
444.152; -135.425; -644.000; -554.000
444.274;  -47.375;  -18.000;  -24.000
444.396; -123.400; -461.000; -221.000
444.518; -144.850; -691.000; -454.000
444.640;  -97.875; -268.000; -111.000
444.763;  -20.300;  388.000;  249.000
444.885; -115.600; -432.000; -392.000
445.007;  -38.400;   35.000;   86.000
445.129; -125.350; -610.000; -515.000
445.251; -111.525; -372.000; -439.000
445.373; -140.800; -537.000; -386.000
445.495;  -10.625;  242.000;  350.000
445.617;   34.550;  853.000;  753.000
445.739;  -74.000; -215.000;  -97.000
445.861;  -62.500; -245.000; -112.000
445.984;  -93.650; -267.000; -101.000
446.105;  -12.225; -418.000; -251.000
446.227;   86.275; -176.000;  -19.000
446.349;  -68.450; -358.000; -249.000
446.471; -122.450; -615.000; -448.000
446.593;  -95.525; -316.000;   19.000
446.715;  -37.650;  -67.000;   41.000
446.837;   38.675;  697.000;  832.000
446.959; -108.200; -457.000; -478.000
447.081; -135.675; -628.000; -518.000
447.203;   41.150;  862.000;  834.000
447.325;  -78.550; -270.000;   42.000
447.446;   -2.175;  286.000;  530.000
447.568; -155.550; -921.000; -803.000
447.690;  -88.550; -236.000; -245.000
447.812; -151.000; -798.000; -519.000
447.933;  -30.950;  155.000;  127.000
448.055;  -66.500; -306.000; -261.000
448.177;   26.750;   31.000;   79.000
448.299; -103.375; -935.000; -727.000
448.420;  -23.575;  -25.000;  159.000
448.542;  -58.025;   -3.000;   33.000
448.664;  -10.175;  109.000;  322.000
448.785;  -47.725;  265.000;   83.000
448.907; -102.850; -614.000; -353.000
449.028; -111.900; -771.000; -471.000
449.150;   25.750;  492.000;  589.000
449.272; -163.500;-1044.000; -913.000
449.393;   34.025;  612.000;  694.000
449.515; -136.925; -634.000; -581.000
449.636;  -70.300; -264.000; -155.000
449.758;   42.825;  763.000;  622.000
449.879;  -90.650; -498.000; -396.000
450.001;  -61.500; -149.000;  -49.000
450.122;  -32.075;  -95.000;  162.000
450.244;  -14.600;   37.000;  364.000
450.365;  -65.975; -495.000; -301.000
450.486;    0.975;   80.000;  268.000
450.608;   59.175;  393.000;  326.000
450.729;  123.200;  578.000;  645.000
450.850;  110.275; -574.000; -466.000
450.972; 1244.675; -552.000; -389.000
451.093; 8211.700;  190.000;  588.000
451.214; 4374.325; -516.000; -337.000
451.336;  766.075;  773.000;  579.000
451.457;  133.750;  264.000;  393.000
451.578;  -10.850; -118.000;  -74.000
451.699; -102.525; -546.000; -540.000
451.821;  -47.200; -284.000;  -50.000
451.942;    3.700;  278.000;  285.000
452.063;   65.150;  228.000;  419.000
452.184;  857.075;  -54.000;  -49.000
452.305; 1821.275;  103.000;  170.000
452.427;  374.800; -549.000; -301.000
452.548;   26.000;   23.000;   79.000
452.669;  -72.100; -257.000;  -89.000
452.790;  -60.175;    3.000;  -18.000
452.911;  -20.650;  195.000;  259.000
453.032;  -72.000; -289.000;  -60.000
453.153;  -53.750;  -29.000;   81.000
453.274;   52.950;  737.000;  868.000
453.395;  -66.475;  -51.000;  175.000
453.516;   95.675; 1317.000; 1388.000
453.637;  -94.600; -205.000; -150.000
453.758;  -54.675;   15.000;   69.000
453.879; -118.100; -462.000; -250.000
454.000;   68.675; 1086.000;  948.000
454.121; -129.100; -554.000; -326.000
454.242; -107.550; -599.000; -383.000
454.362;  -41.800;  -99.000;  114.000
454.483;    5.475; -309.000; -229.000
454.604;   84.250;  512.000;  580.000
454.725; -111.100; -627.000; -555.000
454.846; -119.175; -474.000; -406.000
454.967;  -24.550;  230.000;  539.000
455.087;  -39.100;  179.000;  153.000
455.208;    5.200;  554.000;  856.000
455.329;  -42.375;  -22.000;   82.000
455.450;   49.700;  473.000;  633.000
455.570;  -58.450; -234.000; -211.000
455.691;  -31.925;  201.000;  407.000
455.812; -100.925; -270.000;  -92.000
455.932;  -49.475;  107.000;  -97.000
456.053;  -76.925;   36.000;   24.000
456.173;  -98.200; -433.000; -355.000
456.294; -117.050; -476.000; -303.000
456.415;  -57.025;  -73.000;   70.000
456.535;  -42.225;  297.000;  273.000
456.656;  -40.350;  132.000;  240.000
456.776;  -65.575;    3.000;  298.000
456.897;   -0.525;  308.000;  513.000
457.017;  -77.875; -153.000;   -3.000
457.138;  -97.450; -402.000; -249.000
457.258;  -24.100;  263.000;  224.000
457.379;  -10.025;  509.000;  521.000
457.499;  -32.900;  443.000;  432.000
457.620; -122.575; -407.000; -231.000
457.740;  -87.300; -132.000;  -11.000
457.860;  -56.550;   87.000;   44.000
457.981;  -35.425;  132.000;  124.000
458.101;  -70.975;  -89.000;   40.000
458.221;  -16.050;  336.000;  402.000
458.342;  -54.925;   -4.000;  -37.000
458.462;   57.975;  617.000;  352.000
458.582;   45.400; -302.000; -294.000
458.703;   65.400;  303.000;  154.000
458.823;   20.200;   22.000;  163.000
458.943;   73.925;  341.000;  467.000
459.063;   34.475; 1124.000;  192.000
459.183;  -18.575;  328.000;  313.000
459.304;    9.675;  315.000;  517.000
459.424;  -40.250; -246.000;  -89.000
459.544;  489.825;  388.000;  764.000
459.664; 1369.575;  499.000;  506.000
459.784;  556.200; 1004.000; 1175.000
459.904;   75.375;  867.000;  744.000
460.024;   49.575;  867.000;  684.000
460.144;   -8.900;  449.000;  554.000
460.264;  -13.000;  515.000;  327.000
460.385;  -87.225; -145.000; -119.000
460.505;   34.425;  905.000;  858.000
460.625;  -93.200;  -17.000;  -68.000
460.745;  -17.750;  396.000;  541.000
460.864;  -35.600;  153.000;  469.000
460.984;   55.425;  499.000;  573.000
461.104;  152.400; 1656.000; 1775.000
461.224;   23.125;  657.000;  650.000
461.344;  -42.925;  431.000;  360.000
461.464;  -32.650;  258.000;  513.000
461.584;  -33.975;  283.000;  466.000
461.704;  -66.000;   58.000;  108.000
461.824;  -50.075;  238.000;  259.000
461.943;  -44.475;  191.000;  130.000
462.063;  -81.975;    2.000;  324.000
462.183;   13.825;  639.000;  717.000
462.303;   92.300; 1678.000; 1230.000
462.422;   32.175;  781.000;  840.000
462.542;  -58.300;  271.000;  391.000
462.662;   56.475;  353.000;  380.000
462.782;  354.200;  833.000;  572.000
462.901;  782.100;  545.000;  717.000
463.021;  424.300; 1702.000; 1638.000
463.141;   15.400;  337.000;  770.000
463.260;  -18.250;  614.000;  474.000
463.380;   19.900;  902.000;  884.000
463.499;  -30.575;  342.000;  332.000
463.619;  -23.000;  581.000;  559.000
463.738;  112.500; 1644.000;  903.000
463.858;    9.650;  657.000;  811.000
463.978;  -16.200;  542.000;  396.000
464.097;   52.375;  921.000; 1114.000
464.217;  158.650; 1196.000; 1143.000
464.336;  156.600; 1068.000; 1130.000
464.455;  -11.625;  328.000;  659.000
464.575;   19.625;  597.000;  602.000
464.694;  115.925; 1204.000; 1179.000
464.814;  160.075; 1190.000; 1138.000
464.933;   84.175; 1095.000; 1027.000
465.052;  100.025; 1412.000; 1054.000
465.172;   71.175;  922.000;  799.000
465.291;  118.000; 1376.000; 1320.000
465.410;    6.025;  462.000;  735.000
465.530;   63.775; 1355.000; 1310.000
465.649;   49.325; 1209.000; 1273.000
465.768;  149.275; 1673.000; 1508.000
465.888;   79.050;  941.000; 1174.000
466.007;  104.725; 1335.000; 1440.000
466.126;    5.075;  721.000;  641.000
466.245;   50.175; 1176.000; 1187.000
466.364;   28.050;  950.000; 1060.000
466.484;   40.100; 1024.000; 1213.000
466.603;   40.650; 1101.000; 1222.000
466.722;  107.200; 1490.000; 1769.000
466.841;   60.650; 1151.000; 1401.000
466.960;   36.025; 1069.000;  972.000
467.079;  134.300; 1971.000; 1786.000
467.198;   53.200; 1238.000; 1181.000
467.317;   93.375; 1768.000; 1162.000
467.436;   65.375; 1709.000; 1261.000
467.555;  128.750; 1796.000; 1746.000
467.674;   78.125; 1227.000; 1329.000
467.793;   57.350; 1376.000; 1374.000
467.912;   85.300; 1658.000; 1539.000
468.031;  130.100; 2038.000; 1930.000
468.150;  129.425; 1842.000; 1837.000
468.269;  183.875; 2313.000; 2090.000
468.388;  187.325; 2168.000; 2339.000
468.507;  260.225; 2884.000; 2903.000
468.626;  231.025; 2555.000; 2541.000
468.744;  137.650; 2018.000; 2174.000
468.863;  210.650; 2312.000; 2523.000
468.982;  104.425; 1503.000; 1555.000
469.101;  237.800; 2788.000; 2692.000
469.220;  165.025; 2333.000; 2176.000
469.338;  254.175; 2935.000; 3051.000
469.457;  201.150; 2719.000; 2545.000
469.576;  356.900; 3953.000; 3784.000
469.695;  246.650; 2877.000; 3066.000
469.813;  425.725; 4148.000; 4192.000
469.932;  413.850; 4255.000; 4485.000
470.051;  461.200; 4075.000; 4161.000
470.169; 1049.600; 4470.000; 4338.000
470.288; 2075.525; 4700.000; 4809.000
470.406; 1200.675; 5059.000; 5194.000
470.525;  671.425; 6101.000; 5787.000
470.644;  638.825; 6847.000; 6794.000
470.762;  794.850; 8397.000; 7873.000
470.881;  916.425; 8651.000; 8464.000
470.999; 1092.500; 9685.000; 9151.000
471.118; 1111.450;11174.000;10711.000

