
Integration time [ms]: 100.000
Averaging Nr. [scans]: 40
Smoothing Nr. [pixels]: 0
Data measured with spectrometer [name]: 2101012U2
Wave   ;Sample   ;Dark     ;Reference
[nm]   ;[counts] ;[counts] ;[counts] 

197.733;   69.675;  516.000;  404.000
197.879;  -87.750; -610.000; -634.000
198.025;  -47.700; -475.000; -420.000
198.171;  -74.175; -602.000; -612.000
198.317;  -22.800; -401.000; -316.000
198.463;  -65.900; -655.000; -404.000
198.609;   20.450;  181.000; -137.000
198.755;  -89.800; -644.000; -410.000
198.901;  -74.150; -505.000; -424.000
199.047;  -82.000; -615.000; -488.000
199.193;  -36.600; -230.000; -468.000
199.339;  -55.100; -222.000; -369.000
199.485;   36.600;  330.000;  271.000
199.631;   16.400;  227.000;  310.000
199.777;  -40.125; -466.000; -398.000
199.923;  -59.775; -610.000; -424.000
200.069;    5.675; -141.000;  -58.000
200.215;   50.575;  128.000;  453.000
200.361;   41.300;  243.000;  477.000
200.507;  -59.600; -600.000; -373.000
200.653;  -32.650; -371.000; -194.000
200.798;  -38.875; -215.000; -125.000
200.944;   -9.400; -146.000;  -41.000
201.090;   34.900;   61.000;  222.000
201.236;    4.275; -116.000; -158.000
201.382;  140.075;  874.000;  903.000
201.528;   -0.250;  -58.000;  -48.000
201.674;  -36.425; -386.000; -293.000
201.819;  -64.525; -540.000; -439.000
201.965;  -78.625; -699.000; -447.000
202.111;  -22.250; -273.000; -226.000
202.257;  -30.525; -250.000; -238.000
202.402;   -0.050;   13.000;  -36.000
202.548;  -39.475; -169.000; -116.000
202.694;   82.200;  410.000; -183.000
202.840;  -85.025; -603.000; -531.000
202.985;  -86.525; -681.000; -639.000
203.131; -105.050; -832.000; -666.000
203.277;  -20.775; -199.000; -262.000
203.423;  -53.325; -434.000; -520.000
203.568;  -44.375; -462.000; -237.000
203.714;  -81.400; -535.000; -542.000
203.860;  -80.825; -682.000; -641.000
204.005;    5.700;  112.000;  167.000
204.151;   76.300;  561.000;  556.000
204.296;  -40.625; -354.000; -221.000
204.442;  -76.550; -600.000; -547.000
204.588;  -81.350; -592.000; -579.000
204.733;   36.900;  178.000;  168.000
204.879; -129.025;-1018.000; -822.000
205.025;    1.050;  -99.000;  126.000
205.170;   -4.550;  -17.000;   94.000
205.316;   71.575;  438.000;  661.000
205.461;  -95.725; -698.000; -554.000
205.607;   85.525;  609.000;  665.000
205.752;  -89.650; -626.000; -551.000
205.898;  -58.025; -501.000; -391.000
206.043;  -68.000; -578.000; -506.000
206.189;  -43.500; -243.000; -285.000
206.334;   70.775;  554.000;  606.000
206.480;   83.200;  409.000;  239.000
206.625;  -83.725; -529.000; -552.000
206.771;  -43.175; -451.000; -373.000
206.916;  -36.400; -210.000; -537.000
207.062;  -70.150; -545.000; -591.000
207.207;  -66.050; -546.000; -443.000
207.353;   52.050;  185.000;  460.000
207.498;   16.575;  196.000;   85.000
207.643;  -55.400; -501.000; -370.000
207.789; -127.575;-1069.000; -910.000
207.934;  -88.475; -665.000; -713.000
208.080;  -40.550; -154.000;   66.000
208.225;  -16.700;  -22.000;  -57.000
208.370;  -97.825; -727.000; -619.000
208.516;  -86.950; -741.000; -487.000
208.661;  -35.550; -127.000;  -69.000
208.806;  -23.075; -165.000; -171.000
208.952; -134.200;-1044.000; -731.000
209.097;   82.100;  378.000;  349.000
209.242;  -39.450; -307.000; -382.000
209.387;   66.150;  392.000;  350.000
209.533;  -61.525; -321.000; -350.000
209.678;   76.350;  472.000;  543.000
209.823;  -41.200; -408.000; -310.000
209.969; -114.400; -860.000; -757.000
210.114; -117.175; -907.000; -719.000
210.259; -114.125; -939.000; -889.000
210.404;  -17.050; -171.000;  103.000
210.549;    0.500;  108.000;    3.000
210.695;  -18.500;   -3.000;  -95.000
210.840;   17.300;   94.000;   67.000
210.985;  -71.450; -484.000; -303.000
211.130;   59.200;  268.000;  406.000
211.275;   -1.775;  207.000;  199.000
211.420;  -58.375; -300.000; -289.000
211.566;  -74.725; -536.000; -489.000
211.711;   11.900;  218.000;  157.000
211.856;  -60.875; -545.000; -519.000
212.001;    8.200;  151.000;   44.000
212.146;   31.175;  153.000;   49.000
212.291;  -39.550; -210.000; -186.000
212.436;  -29.850; -280.000;   -6.000
212.581;  -79.650; -685.000; -653.000
212.726;  -77.400; -487.000; -538.000
212.871;  -64.000; -552.000; -217.000
213.016; -155.775;-1172.000;-1029.000
213.161;   61.525;  406.000;  291.000
213.306;  -80.200; -435.000; -577.000
213.451;  -93.825; -778.000; -689.000
213.596;  -49.925; -455.000; -347.000
213.741;  -54.525; -448.000; -538.000
213.886;  -85.150; -498.000; -517.000
214.031;  -22.050; -294.000; -124.000
214.176;  -47.425; -408.000; -341.000
214.321;  -23.900; -296.000; -157.000
214.466;  -31.900; -163.000;  -43.000
214.611;   -6.425;  -61.000;  -10.000
214.756; -111.150; -948.000; -858.000
214.901;  -19.725; -388.000; -226.000
215.046; -128.825; -797.000; -825.000
215.191;   12.025;  128.000;   35.000
215.336;  -21.600; -157.000;  -19.000
215.480;  -69.825; -684.000; -505.000
215.625;  -24.875; -175.000;  -19.000
215.770;  -89.775; -757.000; -662.000
215.915;  -19.375;   -5.000;  -97.000
216.060;   -9.000; -113.000;  -21.000
216.205; -112.050; -731.000; -779.000
216.349;  -81.575; -470.000; -533.000
216.494; -127.075; -939.000; -867.000
216.639; -117.500; -823.000; -888.000
216.784;  -93.025; -577.000; -525.000
216.929;   36.475;  392.000;  281.000
217.073;  -12.000; -244.000;  -31.000
217.218;   12.175;   78.000;  -47.000
217.363;  -86.525; -656.000; -618.000
217.507;  -80.500; -623.000; -588.000
217.652; -119.925; -845.000; -874.000
217.797; -103.400; -708.000; -659.000
217.942; -111.625; -856.000; -720.000
218.086;   71.425;  608.000;  539.000
218.231;  -24.175; -174.000;  -26.000
218.376;  -26.125; -337.000; -229.000
218.520;   -4.150;  -41.000;   96.000
218.665;  -36.500; -338.000; -204.000
218.810;  -43.075; -275.000; -233.000
218.954;    3.975;  201.000;   35.000
219.099; -114.775; -713.000; -963.000
219.243;  -66.325; -589.000; -554.000
219.388;  -36.450; -264.000; -136.000
219.532;  -16.950; -116.000; -116.000
219.677;  -75.350; -564.000; -521.000
219.822;   12.900;   33.000;   89.000
219.966;  -11.325;   17.000;  -99.000
220.111;  -36.400; -328.000;  -40.000
220.255;  -85.575; -797.000; -750.000
220.400;  -12.400; -180.000; -146.000
220.544;  -74.025; -516.000; -450.000
220.689;  -61.300; -422.000; -451.000
220.833;  -34.825; -123.000;  -58.000
220.978;  -51.275; -393.000; -563.000
221.122;   18.500;  319.000;  307.000
221.267; -114.900; -906.000; -837.000
221.411;  -83.500; -478.000; -394.000
221.555;   -6.850; -104.000;  -23.000
221.700;  -51.250; -329.000; -222.000
221.844;   36.025;  255.000;  272.000
221.989;  -54.175; -328.000; -311.000
222.133;  -48.275; -289.000; -307.000
222.277;  -13.150;    5.000;   78.000
222.422;   15.450;  227.000;  113.000
222.566;  -41.500; -381.000; -214.000
222.711;  -64.275; -414.000; -479.000
222.855;  -83.750; -643.000; -586.000
222.999;  -93.000; -642.000; -717.000
223.144;  -41.800; -195.000; -194.000
223.288;   47.450;  423.000;  251.000
223.432;   19.000;  184.000;  230.000
223.576;    4.475;  152.000;  -21.000
223.721;   34.150;  364.000;  273.000
223.865;  -53.975; -472.000; -475.000
224.009;  230.550; 1673.000; 1631.000
224.153;  -78.500; -660.000; -671.000
224.298;  -62.875; -531.000; -489.000
224.442;  -15.975;  -74.000;  -33.000
224.586;   -9.350; -169.000; -106.000
224.730;  -89.750; -858.000; -670.000
224.875; -114.275; -739.000; -688.000
225.019;   -0.675;  102.000;  188.000
225.163;   39.450;  208.000;  341.000
225.307;   15.525;   97.000;  -91.000
225.451;   28.650;  360.000;  481.000
225.595;   29.225;  264.000;  176.000
225.739;  -29.500; -170.000;  -94.000
225.884;   -5.725;   86.000;    5.000
226.028; -108.275; -760.000; -626.000
226.172;  -39.550; -260.000; -273.000
226.316; -125.300; -941.000; -902.000
226.460;  -69.650; -645.000; -493.000
226.604;  -67.025; -406.000; -400.000
226.748;  -96.425; -836.000; -733.000
226.892;  -38.675; -227.000; -181.000
227.036;  -54.825; -537.000; -447.000
227.180;  -52.300; -551.000; -375.000
227.324;  -78.800; -561.000; -580.000
227.468; -114.525; -819.000; -717.000
227.612;    7.275;  242.000;  -28.000
227.756; -120.025; -845.000; -698.000
227.900;   58.375;  342.000;  441.000
228.044;  -58.325; -509.000; -290.000
228.188;   54.275;  448.000;  568.000
228.332;  -94.125; -546.000; -472.000
228.476;  -26.950; -223.000; -149.000
228.620;  -27.800; -210.000; -150.000
228.764;   68.925;  431.000;  349.000
228.908;  -32.300; -155.000;   30.000
229.052;  -69.375; -615.000; -528.000
229.195;  -23.525; -172.000;   13.000
229.339;  -32.000; -235.000; -305.000
229.483;  -40.600;    5.000; -162.000
229.627;   -7.125; -156.000;  139.000
229.771;  -49.950; -218.000; -294.000
229.915;   11.025;  230.000;   79.000
230.059;  -94.800; -648.000; -663.000
230.202;  -50.400; -370.000; -317.000
230.346;  -24.750; -107.000;  107.000
230.490;  -58.325; -489.000; -521.000
230.634; -111.675; -736.000; -553.000
230.777;   58.575;  478.000;  509.000
230.921;  -56.250; -450.000; -359.000
231.065;  -56.050; -246.000; -286.000
231.209;   26.475;  261.000;  265.000
231.352;   20.800;   54.000;   40.000
231.496;    0.275;  568.000;  188.000
231.640;  -84.825; -693.000; -621.000
231.783;   52.100;  546.000;  525.000
231.927;  -42.600; -294.000; -365.000
232.071; -132.875; -962.000; -736.000
232.214; -113.575; -980.000; -764.000
232.358; -109.075; -683.000; -599.000
232.502;   -4.050;  -19.000;    7.000
232.645; -142.950;-1090.000; -927.000
232.789;  -15.150; -257.000; -218.000
232.933;  -50.275; -407.000; -224.000
233.076; -118.825;-1038.000; -897.000
233.220;  -97.250; -752.000; -777.000
233.363;  -75.500; -669.000; -477.000
233.507;   58.750;  371.000;  129.000
233.650; -103.675; -764.000; -834.000
233.794;   34.950;  438.000;  461.000
233.938;  -52.425; -530.000; -362.000
234.081;  -13.500;  -93.000;   31.000
234.225;  -66.175; -631.000; -539.000
234.368; -112.875; -773.000; -723.000
234.512;  -40.100; -385.000; -299.000
234.655;  -88.100; -582.000; -555.000
234.798;  -69.600; -493.000; -466.000
234.942; -140.425; -884.000;-1002.000
235.085;  -71.125; -651.000; -443.000
235.229;  -81.725; -405.000; -410.000
235.372;  -48.125; -247.000; -191.000
235.516;  -64.100; -397.000; -321.000
235.659;   14.625;   92.000;  121.000
235.802;  -26.800;  -38.000;  -22.000
235.946;   21.825;  335.000;  215.000
236.089;   18.500;  126.000;  250.000
236.233;   47.175;  275.000;  298.000
236.376;  -45.225; -235.000; -378.000
236.519;  -53.475; -297.000; -319.000
236.663;  -26.000; -215.000; -117.000
236.806; -145.375;-1029.000; -999.000
236.949;   54.775;  543.000;  431.000
237.092;   56.375;  412.000;  391.000
237.236;  -82.800; -589.000; -502.000
237.379;   63.075;  352.000;  428.000
237.522; -127.975; -879.000; -768.000
237.666;  -27.350; -271.000;   18.000
237.809; -147.050; -851.000; -823.000
237.952;   28.825;  469.000;  271.000
238.095;  -78.450; -447.000; -442.000
238.238;   68.975;  688.000;  700.000
238.382;  -12.450;  166.000;  103.000
238.525;  -79.650; -598.000; -511.000
238.668; -131.500;-1060.000; -985.000
238.811;  -88.200; -638.000; -643.000
238.954;  -61.850; -483.000; -334.000
239.097;   81.025;  617.000;  664.000
239.241;   13.100;  394.000;  326.000
239.384;  -34.075; -254.000; -214.000
239.527;  -65.875; -424.000; -224.000
239.670; -139.775; -994.000;-1091.000
239.813; -120.200; -696.000; -658.000
239.956;   75.450;  579.000;  473.000
240.099; -116.075; -778.000; -725.000
240.242;   62.025;  428.000;  432.000
240.385;   33.650;  466.000;  450.000
240.528;  -66.900; -706.000; -473.000
240.671;   16.925;  189.000;  134.000
240.814;  -50.950; -441.000; -158.000
240.957; -105.600; -767.000; -578.000
241.100; -100.550; -779.000; -755.000
241.243; -147.875;-1234.000; -893.000
241.386;  -64.925; -508.000; -379.000
241.529; -103.050; -735.000; -547.000
241.672;  -61.600; -566.000; -495.000
241.815; -125.750; -832.000; -808.000
241.958;  -27.850; -125.000; -182.000
242.101;  -94.725; -545.000; -390.000
242.244;  -57.625; -270.000; -325.000
242.387;  -46.325; -304.000; -246.000
242.530;   53.775;  470.000;  134.000
242.673;  -67.375; -381.000; -309.000
242.815; -111.525; -925.000; -899.000
242.958;  -72.850; -482.000; -381.000
243.101;   12.375;  132.000;  187.000
243.244;  -90.425; -564.000; -521.000
243.387;  -44.575; -313.000; -316.000
243.530; -103.125; -657.000; -674.000
243.672;   -4.175;   43.000;  -92.000
243.815;  -49.625; -355.000; -283.000
243.958;  -13.350;   98.000;  -26.000
244.101;  -15.575;   59.000;  -16.000
244.243;  -11.425;  -47.000;  101.000
244.386; -118.400; -761.000; -630.000
244.529;  -24.675; -132.000; -139.000
244.672; -158.375;-1154.000; -951.000
244.814; -106.925; -621.000; -794.000
244.957;  -52.100; -380.000; -304.000
245.100;  -86.700; -489.000; -489.000
245.242;  -56.850; -387.000; -374.000
245.385;   -3.025;  -59.000;  -39.000
245.528; -118.350; -871.000; -705.000
245.670;   79.150;  612.000;  634.000
245.813;  -89.275; -599.000; -547.000
245.956;  -29.550; -324.000; -275.000
246.098;  -70.050; -508.000; -650.000
246.241;    9.850;  194.000;   48.000
246.383;  -21.775; -119.000;  -73.000
246.526;  -84.925; -454.000; -525.000
246.669; -113.375; -889.000; -780.000
246.811;   10.000;  172.000;   -1.000
246.954;  -73.775; -512.000; -426.000
247.096;  -27.825;  -84.000;   -6.000
247.239;  -70.225; -482.000; -445.000
247.381;  -67.850; -647.000; -488.000
247.524;   76.475;  645.000;  679.000
247.666;  -14.100;   58.000;   11.000
247.809; -128.825; -887.000; -691.000
247.951;   -2.525;  -75.000;  138.000
248.094;   18.250;  432.000;  308.000
248.236; -158.275;-1262.000;-1238.000
248.378;   16.800; -356.000;  -81.000
248.521;  -25.875; -334.000; -337.000
248.663;  -49.625; -236.000; -267.000
248.806;  -24.400; -300.000; -266.000
248.948; -105.975; -886.000; -763.000
249.090;  -43.200; -428.000; -398.000
249.233;  -60.325; -344.000; -381.000
249.375;  -70.975; -474.000; -451.000
249.518;  -41.500;  -83.000; -133.000
249.660;  -11.625; -103.000;    3.000
249.802; -174.050;-1303.000;-1189.000
249.945;  -67.475; -612.000; -540.000
250.087; -127.125; -834.000; -768.000
250.229;  -61.300; -362.000; -480.000
250.371;  -72.650; -494.000; -439.000
250.514;  -59.175; -310.000; -244.000
250.656;  -53.075;   69.000;  102.000
250.798; -118.425; -849.000; -800.000
250.940;  -76.650; -322.000; -322.000
251.083;  -30.500; -335.000; -111.000
251.225;   53.325;  338.000;  310.000
251.367;  -48.300; -274.000; -373.000
251.509;  -30.450; -265.000; -210.000
251.651; -113.275; -731.000; -671.000
251.794;   53.025;  538.000;  632.000
251.936; -116.800; -821.000; -747.000
252.078;  -91.825; -540.000; -461.000
252.220;  -78.125; -645.000; -477.000
252.362;   69.800;  344.000;  462.000
252.504;  -64.000; -677.000; -584.000
252.646; -114.525; -875.000; -722.000
252.788;  -14.100;   14.000; -128.000
252.931;  -27.300; -257.000; -253.000
253.073;  -43.875; -376.000; -317.000
253.215;   -4.175;  141.000;  122.000
253.357;  -16.700;   82.000; -153.000
253.499;  -67.750; -374.000; -234.000
253.641;  -80.450; -749.000; -594.000
253.783;  -93.000; -609.000; -527.000
253.925;  -78.075; -586.000; -591.000
254.067; -102.450; -744.000; -667.000
254.209;  -17.225; -391.000; -259.000
254.351; -148.775; -865.000; -883.000
254.493;  -62.750; -441.000; -417.000
254.635; -141.575; -936.000; -818.000
254.777;  -83.000; -752.000; -687.000
254.918;  -70.650; -512.000; -430.000
255.060;  -58.950; -551.000; -395.000
255.202;  -65.125; -473.000; -261.000
255.344;  -74.200; -658.000; -455.000
255.486;  -76.725; -471.000; -406.000
255.628; -108.275; -780.000; -781.000
255.770; -109.775; -676.000; -536.000
255.912;  -75.900; -559.000; -468.000
256.053;  -86.725; -730.000; -508.000
256.195;  137.500; 1008.000;  903.000
256.337; -112.350; -861.000; -595.000
256.479;   57.300;  532.000;  416.000
256.621;  -53.450; -394.000; -212.000
256.762; -103.175; -789.000; -742.000
256.904;   46.525;  485.000;  487.000
257.046;  -47.775; -381.000; -271.000
257.188;  -56.975; -351.000; -264.000
257.329;  -77.175; -525.000; -464.000
257.471; -130.825; -939.000; -807.000
257.613;  -81.600; -584.000; -498.000
257.755; -149.675;-1073.000; -982.000
257.896;   29.875;  286.000;  392.000
258.038;  -84.025; -403.000; -352.000
258.180;  -50.775; -354.000; -279.000
258.321;  -87.100; -581.000; -457.000
258.463;    0.300;  -71.000;  133.000
258.605;  -97.650; -562.000; -570.000
258.746; -103.950; -886.000; -772.000
258.888; -151.850;-1026.000;-1020.000
259.029;    4.325;  121.000;   -8.000
259.171;  -97.925; -614.000; -550.000
259.313;   -5.125;  -49.000;  -47.000
259.454;  -95.025; -536.000; -414.000
259.596;  -64.625; -483.000; -390.000
259.737;  -79.725; -590.000; -474.000
259.879;   39.725;  217.000;  311.000
260.020;   86.450;  901.000;  636.000
260.162;  -34.625; -146.000; -253.000
260.303; -123.375; -768.000; -687.000
260.445;  -88.000; -609.000; -613.000
260.586;   15.325;  392.000;  157.000
260.728;  -38.325; -360.000; -248.000
260.869; -113.525; -350.000; -343.000
261.011;   75.500;  706.000;  537.000
261.152;  -67.950; -479.000; -319.000
261.293;  -92.700; -576.000; -595.000
261.435;  -42.200; -219.000; -184.000
261.576;  -49.525; -455.000; -325.000
261.718;   40.750;  420.000;  470.000
261.859; -127.950; -940.000; -949.000
262.000; -135.275; -951.000;-1016.000
262.142;  -28.225;  -52.000;  -60.000
262.283; -122.650; -808.000; -691.000
262.424;  -95.025; -666.000; -625.000
262.566; -161.225;-1161.000; -983.000
262.707; -123.500; -840.000; -830.000
262.848; -129.175; -769.000; -726.000
262.990;  -48.600; -362.000; -345.000
263.131;   73.600;  650.000;  681.000
263.272;  -15.750;  -61.000;  -41.000
263.413; -109.825; -589.000; -561.000
263.555;  -67.800; -669.000; -143.000
263.696;  -88.925; -550.000; -641.000
263.837;  -70.900; -449.000; -551.000
263.978;   -6.800;   -5.000;  -77.000
264.119;  -37.575; -283.000; -264.000
264.261; -131.750; -847.000; -630.000
264.402;   -8.675;   33.000;   40.000
264.543;  -97.325; -509.000; -524.000
264.684;  -18.475;   61.000;  -50.000
264.825;  -80.625; -816.000; -538.000
264.966;  -10.600;  -84.000;  -67.000
265.107; -114.475; -646.000; -670.000
265.248; -114.875; -825.000; -812.000
265.390;  -15.825;  152.000;   -9.000
265.531;  -16.800; -238.000; -107.000
265.672;  -85.475; -557.000; -630.000
265.813;   62.100;  563.000;  439.000
265.954; -148.675; -959.000; -940.000
266.095;  -22.025; -372.000; -322.000
266.236; -112.275; -686.000; -548.000
266.377;  -48.475; -243.000; -297.000
266.518;  -75.300; -619.000; -547.000
266.659;   30.300;  170.000;  268.000
266.800;   -8.200;   83.000;   85.000
266.941;  -64.775; -487.000; -478.000
267.082;   -0.025;  354.000;   99.000
267.223;  -64.200; -344.000; -273.000
267.364; -117.625; -892.000; -686.000
267.504;  -23.775;    3.000;  135.000
267.645;    4.525;  160.000;   67.000
267.786;  -37.575; -147.000;  -86.000
267.927;  -84.575; -473.000; -379.000
268.068;  -26.875; -186.000;  -61.000
268.209;  -57.225; -175.000; -413.000
268.350;  -70.400; -388.000; -532.000
268.490;  -84.500; -648.000; -521.000
268.631;   17.275;  127.000;  225.000
268.772; -119.475; -874.000; -647.000
268.913;  -63.325; -328.000; -476.000
269.054;  -20.700; -117.000;   12.000
269.194;  -63.450; -418.000; -402.000
269.335; -154.600;-1137.000;-1074.000
269.476;  -27.150;   33.000;  -35.000
269.617;  -53.050; -347.000; -392.000
269.757; -110.825; -713.000; -646.000
269.898; -108.950; -856.000; -613.000
270.039;  -66.675; -415.000; -405.000
270.180; -138.850; -952.000; -816.000
270.320;  -31.250; -190.000; -250.000
270.461;  -53.675; -277.000; -249.000
270.602;  -15.750; -186.000; -156.000
270.742; -127.150; -868.000; -943.000
270.883;  -66.800; -442.000; -390.000
271.023;  -75.675; -358.000; -357.000
271.164;  -90.300; -607.000; -528.000
271.305; -115.125; -666.000; -654.000
271.445; -106.925; -722.000; -683.000
271.586;  -78.650; -462.000; -283.000
271.726;  -60.500; -397.000; -322.000
271.867;  -54.350; -594.000; -534.000
272.008;  176.125; -473.000; -285.000
272.148;  119.850;  462.000;  468.000
272.289;    0.925; -113.000; -181.000
272.429;    7.800;   19.000;  185.000
272.570;  -97.350; -633.000; -737.000
272.710;  -98.275; -825.000; -775.000
272.851;  -38.525;  113.000; -130.000
272.991; -170.975;-1173.000;-1077.000
273.131;  -68.675; -419.000; -459.000
273.272; -102.200; -683.000; -723.000
273.412;   -1.450; -143.000;  -31.000
273.553;  -74.475; -488.000; -507.000
273.693;  137.150;  913.000;  858.000
273.834; -100.725; -894.000; -692.000
273.974;  -84.025; -664.000; -615.000
274.114; -105.950; -772.000; -560.000
274.255;   71.250;  414.000;  373.000
274.395;   -4.300; -180.000; -125.000
274.535;   38.050;  199.000;  350.000
274.676;   16.325;  225.000;   94.000
274.816;   -3.475;  110.000;   34.000
274.956; -104.300; -624.000; -690.000
275.097;  -66.475;-1014.000; -922.000
275.237; -105.875; -913.000; -803.000
275.377;  -95.525; -778.000; -689.000
275.517; -162.700; -878.000; -937.000
275.658;  -71.950; -590.000; -555.000
275.798;  -76.175; -606.000; -413.000
275.938;    3.525;  215.000;  323.000
276.078; -111.100; -626.000; -395.000
276.218;    6.750;   99.000;  104.000
276.359; -136.400;-1026.000;-1024.000
276.499;  -62.525; -605.000; -446.000
276.639;  -47.775; -305.000; -151.000
276.779;  -64.550; -475.000; -357.000
276.919; -102.350; -783.000; -624.000
277.059;  -19.900; -261.000; -212.000
277.199;  -54.575; -357.000; -259.000
277.340;   31.025;  287.000;  175.000
277.480; -124.100; -840.000; -693.000
277.620;   23.800;  192.000;   16.000
277.760; -195.850;-1533.000;-1294.000
277.900;    5.625;  113.000;   33.000
278.040;    6.925;  137.000;  159.000
278.180;   20.050;  270.000;  170.000
278.320;   -7.825;   21.000;   56.000
278.460;  -78.175; -443.000; -469.000
278.600;  -92.650; -708.000; -598.000
278.740;   46.275;  448.000;  224.000
278.880;  -70.425; -768.000; -791.000
279.020;  -14.275; -194.000; -144.000
279.160;  -96.325; -672.000; -595.000
279.300; -123.075; -926.000; -873.000
279.440; -107.750; -709.000; -622.000
279.579;  -21.425;-1014.000; -929.000
279.719;  -46.000; -410.000; -394.000
279.859;   64.500;   -4.000;   41.000
279.999;   18.350; -208.000;  101.000
280.139;  -15.525; -435.000; -387.000
280.279;  -83.050; -708.000; -745.000
280.419;  -13.475; -229.000; -147.000
280.559;  -44.175; -259.000; -180.000
280.698;  -83.825; -790.000; -639.000
280.838; -104.750; -778.000; -800.000
280.978; -106.475; -846.000; -790.000
281.118; -119.200; -811.000; -704.000
281.257;   -7.500;   24.000;    6.000
281.397; -120.175;-1094.000; -960.000
281.537;  -92.800; -599.000; -712.000
281.677;  -37.175; -150.000; -101.000
281.816;  -88.950; -700.000; -630.000
281.956;  -46.375; -193.000; -257.000
282.096;  -59.075; -539.000; -396.000
282.235; -118.025; -672.000; -638.000
282.375;  -19.950; -243.000;  -98.000
282.515;  -95.700; -715.000; -707.000
282.654;   22.950;   29.000;  106.000
282.794;   -0.250;  388.000;  244.000
282.934;  -58.250; -530.000; -491.000
283.073; -150.350;-1030.000; -857.000
283.213;  -57.225; -460.000; -467.000
283.353;  -47.075; -408.000; -349.000
283.492;  -29.325; -264.000; -296.000
283.632;  -38.675; -254.000; -168.000
283.771;  -98.525; -859.000; -730.000
283.911;  -66.400; -369.000; -260.000
284.050; -110.250; -794.000; -748.000
284.190; -155.450;-1229.000;-1096.000
284.329; -147.750;-1055.000; -964.000
284.469;  -66.775; -516.000; -591.000
284.608;  -55.400; -559.000; -598.000
284.748;  -85.800; -614.000; -570.000
284.887;  -22.475;  -87.000;  -20.000
285.027; -137.600; -844.000; -892.000
285.166;  -46.850; -192.000; -249.000
285.306;   -9.850; -116.000;  -33.000
285.445;  -53.775; -229.000; -343.000
285.584; -108.350; -630.000; -494.000
285.724;  -58.525; -282.000; -322.000
285.863; -115.625; -857.000; -507.000
286.002;  -64.750; -366.000; -276.000
286.142; -109.525; -715.000; -622.000
286.281;  -72.375; -525.000; -493.000
286.420;  -86.050; -554.000; -417.000
286.560;   76.925;  653.000;  623.000
286.699; -136.775; -958.000; -912.000
286.838;  -86.400; -590.000; -591.000
286.978;  -97.250; -533.000; -537.000
287.117; -147.025;-1085.000; -950.000
287.256;  -47.000; -228.000; -211.000
287.395;  -41.600; -197.000; -378.000
287.535;  -64.150; -370.000; -298.000
287.674;  -93.150; -509.000; -484.000
287.813;   44.075;  661.000;  533.000
287.952; -131.500;-1010.000; -871.000
288.091; -146.125;-1049.000; -915.000
288.231;   10.550;   13.000;   15.000
288.370; -171.250;-1217.000;-1200.000
288.509; -104.175; -728.000; -645.000
288.648;  -99.925; -770.000; -548.000
288.787;  -28.225; -243.000;  -87.000
288.926;  -72.025; -454.000; -475.000
289.065;  117.600;  859.000;  672.000
289.204;  -59.125; -377.000; -217.000
289.344;  -90.900; -791.000; -690.000
289.483;   25.075;  416.000;  304.000
289.622;  -19.250; -291.000; -149.000
289.761;  -21.075; -309.000; -166.000
289.900; -114.950; -785.000; -626.000
290.039;  -19.600;  -12.000;  -95.000
290.178;  -31.700; -274.000; -180.000
290.317;  -82.975; -618.000; -479.000
290.456;  -72.200; -463.000; -451.000
290.595; -147.200; -961.000; -833.000
290.734; -138.450; -904.000; -891.000
290.873;  -73.450; -456.000; -420.000
291.011; -117.400; -833.000; -843.000
291.150; -110.300; -770.000; -682.000
291.289;  -41.625; -343.000; -110.000
291.428; -101.175; -599.000; -480.000
291.567;  -65.500; -370.000; -442.000
291.706;  -17.600;  109.000;  154.000
291.845;  -83.075; -597.000; -505.000
291.984; -176.625;-1234.000;-1061.000
292.122;   65.625;  602.000;  582.000
292.261;   44.975;  620.000;  463.000
292.400;    3.375; -144.000;  211.000
292.539; -118.750; -959.000; -813.000
292.678;  -46.375; -325.000; -300.000
292.816; -174.000;-1136.000; -965.000
292.955;  -83.325; -844.000; -684.000
293.094;  -34.425; -173.000; -337.000
293.233;  -64.325; -556.000; -400.000
293.371;  -41.550; -225.000;  -84.000
293.510;  -95.700; -866.000; -780.000
293.649; -135.125; -959.000; -924.000
293.787;  -57.475;-1083.000;-1012.000
293.926;  -13.025; -113.000;  -32.000
294.065;  -51.250; -379.000; -290.000
294.203;   37.275;  298.000;  406.000
294.342;   20.075;   74.000;  156.000
294.481; 5614.200;51180.000; -836.000
294.619;  -43.850; -425.000; -582.000
294.758; -150.250;-1230.000;-1137.000
294.896;   70.900; -125.000;    5.000
295.035; -128.650;-1040.000;-1006.000
295.174; -117.775;-1082.000; -954.000
295.312;  -52.325; -323.000; -203.000
295.451;  -23.350; -307.000; -428.000
295.589;  -56.600; -389.000; -518.000
295.728;   10.100; -292.000; -165.000
295.866;  -15.600;  -36.000;  -51.000
296.005;  -70.625; -584.000; -341.000
296.143;  -69.775; -558.000; -596.000
296.282; -108.025; -957.000; -881.000
296.420;  -99.400; -657.000; -557.000
296.559;  -84.425; -892.000; -633.000
296.697;   12.125; -847.000; -665.000
296.835;   45.225;-1141.000;-1002.000
296.974;   48.300;  -23.000;   39.000
297.112;   -2.825; -443.000; -504.000
297.251;  -77.425; -815.000; -755.000
297.389;   82.450; -576.000; -438.000
297.527;   28.575; -145.000;  -83.000
297.666;  -57.125; -486.000; -438.000
297.804;  -54.100; -404.000; -264.000
297.942;  -10.500; -136.000; -161.000
298.081;    0.225; -183.000;   63.000
298.219;   69.175;  -17.000;  -19.000
298.357;   43.250; -144.000;  -71.000
298.495;   16.550; -810.000; -812.000
298.634;   64.200;  245.000;  219.000
298.772;   48.125; -220.000; -338.000
298.910;  -45.425; -309.000; -182.000
299.048;  -18.325; -130.000; -153.000
299.187;  -39.750; -350.000; -250.000
299.325;    6.225;   52.000;  122.000
299.463;   49.400; -389.000; -299.000
299.601;   93.050; -327.000; -271.000
299.739; -107.625; -908.000; -883.000
299.877;  -83.675; -791.000; -703.000
300.016;  -39.800;-1095.000; -935.000
300.154;  147.000;  -19.000; -161.000
300.292;   54.225; -428.000; -348.000
300.430;   18.800; -408.000; -291.000
300.568; -109.875; -940.000; -874.000
300.706;  -55.800; -366.000; -469.000
300.844;  -89.575;-1108.000; -979.000
300.982;  102.025;  246.000;  282.000
301.120;  -96.875; -965.000; -866.000
301.258;  -71.575; -812.000; -705.000
301.396;   45.925;  104.000;  -41.000
301.534;   72.475; -218.000; -293.000
301.672;  -21.750; -664.000; -521.000
301.810;   24.525; -613.000; -545.000
301.948;  110.500;   53.000;  149.000
302.086;  604.925; -250.000;  -32.000
302.224;  927.550; -610.000; -585.000
302.362;   26.050; -558.000; -622.000
302.500;  -18.300; -923.000; -893.000
302.638;   98.450;  128.000;  245.000
302.776;   -7.525; -352.000; -408.000
302.913;   48.125;  447.000;  236.000
303.051;   -9.125;  -86.000;  -23.000
303.189;   46.425;   90.000;  118.000
303.327;  -36.975; -341.000; -256.000
303.465;  -77.000; -832.000; -588.000
303.603; -100.050; -805.000; -604.000
303.740;   86.175;  417.000;  241.000
303.878;   12.550; -800.000; -759.000
304.016;  -98.500; -915.000; -790.000
304.154; -130.400;-1123.000;-1152.000
304.291;  -31.150; -505.000; -554.000
304.429;    2.625;  102.000;   74.000
304.567; -109.400; -908.000; -893.000
304.705;  -65.250; -408.000; -515.000
304.842;   89.900; -616.000; -540.000
304.980;   38.450;  215.000;   35.000
305.118;   32.025; -367.000; -365.000
305.255;  -74.450; -945.000; -927.000
305.393;   59.100;  178.000;  239.000
305.531; -108.000;-1173.000; -956.000
305.668;  -76.600; -663.000; -582.000
305.806;   91.750; -358.000; -439.000
305.943;   98.425; -629.000; -637.000
306.081;   46.250; -378.000; -267.000
306.219; -106.150; -863.000; -748.000
306.356;   12.775;  158.000;   27.000
306.494;   94.925;  981.000;  761.000
306.631;   -3.450;  -11.000;  -55.000
306.769;    8.000; -613.000; -485.000
306.906;  -34.525; -284.000; -258.000
307.044;  -68.500; -473.000; -488.000
307.181;  -76.850; -410.000; -332.000
307.319;    0.050;  112.000;   87.000
307.456; -178.550;-1191.000;-1153.000
307.594;  -92.700; -980.000; -727.000
307.731;  -17.575; -371.000; -164.000
307.868;  -18.425;  -15.000;   20.000
308.006; -139.575; -961.000; -847.000
308.143;  -80.825; -618.000; -330.000
308.281;  148.675;  -37.000; -254.000
308.418;  -15.300; -748.000; -640.000
308.555;  -75.400; -400.000; -250.000
308.693;  -78.550; -577.000; -573.000
308.830; -118.775; -712.000; -657.000
308.967;  -18.425; -215.000;  -95.000
309.105;  -51.425; -507.000; -396.000
309.242;   38.700; -468.000; -367.000
309.379;  303.275; -577.000; -655.000
309.517;  -74.425; -936.000; -948.000
309.654; -126.575; -910.000; -734.000
309.791;  -79.575; -662.000; -580.000
309.928; -128.625; -977.000; -914.000
310.065;  172.700;  819.000;  697.000
310.203;  -14.975; -825.000; -850.000
310.340;  -13.025; -465.000; -321.000
310.477;  -84.025; -412.000; -516.000
310.614;  -70.150; -383.000; -473.000
310.751;  -73.650; -427.000; -518.000
310.889;  -34.925;    1.000;   11.000
311.026; -159.600;-1161.000; -939.000
311.163;  -51.400; -386.000; -380.000
311.300;  -93.625; -512.000; -479.000
311.437;  -76.025; -658.000; -619.000
311.574; -161.350;-1226.000; -985.000
311.711;  -57.375; -595.000; -433.000
311.848;  -44.700; -380.000; -388.000
311.985;   -2.375;  270.000;   93.000
312.122; -122.850; -932.000; -762.000
312.259; -126.825; -941.000; -994.000
312.396;  -97.425; -508.000; -551.000
312.533; -110.350; -812.000; -790.000
312.670; -140.500;-1070.000; -898.000
312.807;  -43.700; -352.000; -367.000
312.944;  -82.275; -513.000; -611.000
313.081;  -27.325; -150.000; -415.000
313.218; -100.525;-1111.000; -867.000
313.355;    2.200; -531.000; -449.000
313.492;   -8.400; -455.000; -292.000
313.629;  122.325;  815.000;  735.000
313.766; -161.150;-1176.000;-1008.000
313.902;  -27.850; -186.000;   21.000
314.039;  -45.575; -372.000; -289.000
314.176;   23.100;  286.000;  192.000
314.313;  -88.425; -569.000; -473.000
314.450;  -81.775; -788.000; -684.000
314.587;  -74.725; -468.000; -480.000
314.723;  -10.700;  -78.000;  130.000
314.860;   21.000;  318.000;  332.000
314.997;   22.775;  223.000;  142.000
315.134;  -62.150; -385.000; -368.000
315.270;  -36.775; -480.000; -496.000
315.407; -124.925;-1094.000; -967.000
315.544;  -56.250; -657.000; -538.000
315.681;  -66.500; -681.000; -565.000
315.817;   17.625; -133.000; -176.000
315.954;   10.450; -613.000; -392.000
316.091; -134.025;-1045.000;-1023.000
316.227;  -29.800;  -71.000; -179.000
316.364;   -3.425;   23.000;    6.000
316.500;  -51.200; -113.000; -300.000
316.637;  -52.450; -181.000; -302.000
316.774;  -96.575; -625.000; -358.000
316.910; -107.150; -598.000; -629.000
317.047;  -71.575; -487.000; -351.000
317.183;  -45.600; -435.000; -566.000
317.320;  -17.850; -367.000; -321.000
317.456;  -68.050; -733.000; -805.000
317.593;  -84.400; -598.000; -641.000
317.729;    2.525;  168.000;  -67.000
317.866; -200.450;-1434.000;-1285.000
318.002;  -97.450; -708.000; -948.000
318.139; -110.675; -883.000; -867.000
318.275; -113.375;-1003.000; -738.000
318.412;  -81.125; -517.000; -336.000
318.548;  -31.650; -751.000; -720.000
318.685;  -99.750; -985.000; -888.000
318.821; -114.050; -762.000; -735.000
318.957;  -21.775;   34.000;  -23.000
319.094;   29.775;  297.000;  154.000
319.230;  -73.400; -756.000; -742.000
319.367;  112.475; -471.000; -520.000
319.503;   56.000; -538.000; -436.000
319.639; -106.700; -877.000; -793.000
319.775;  -70.225; -750.000; -685.000
319.912;  -53.950; -424.000; -519.000
320.048;  -89.150;-1184.000;-1184.000
320.184;   53.075;   59.000;   70.000
320.321;  -79.075; -497.000; -467.000
320.457;   48.775;  475.000;  662.000
320.593;  -69.725; -375.000; -382.000
320.729; -100.525; -732.000; -734.000
320.866;  -85.825; -577.000; -635.000
321.002;  -86.300; -759.000; -809.000
321.138;   -9.175; -135.000; -211.000
321.274;   73.425; -148.000; -115.000
321.410;  -17.050; -585.000; -353.000
321.546;  -42.575;-1011.000; -911.000
321.683;   52.850;  400.000;  185.000
321.819;   -1.175;  -48.000; -117.000
321.955; -114.800; -743.000; -722.000
322.091;  -45.125; -585.000; -540.000
322.227;  -35.775; -382.000; -202.000
322.363;  -25.750; -320.000; -215.000
322.499;  -46.850; -343.000; -331.000
322.635;  149.250;  636.000;  443.000
322.771;   19.425; -139.000;   12.000
322.907;   82.400;  129.000;  327.000
323.043;  -34.775; -115.000; -206.000
323.179;  -34.600; -394.000; -363.000
323.315;   13.650; -401.000; -371.000
323.451;   86.475; -328.000; -236.000
323.587;   58.925;  -60.000;  -77.000
323.723;   13.700; -682.000; -601.000
323.859;  -26.175; -258.000;  -76.000
323.995;  -50.225; -467.000; -409.000
324.131; -125.125; -967.000; -892.000
324.267;  -46.650; -254.000; -276.000
324.402; -118.225; -960.000; -983.000
324.538;  -22.700; -279.000; -104.000
324.674;    2.250;  164.000;   77.000
324.810;  115.025;  226.000;  308.000
324.946;    6.000; -810.000; -658.000
325.082;  -70.875; -568.000; -475.000
325.217;  -18.575;  -62.000;   16.000
325.353; -100.550; -764.000; -659.000
325.489;  -89.500; -540.000; -506.000
325.625;  -98.125; -579.000; -525.000
325.760;   53.900;  517.000;  376.000
325.896;  -32.050; -515.000; -702.000
326.032;  -65.200; -403.000; -352.000
326.168;  -64.475; -462.000; -369.000
326.303;  -77.525; -352.000; -461.000
326.439;  -33.800; -336.000; -276.000
326.575;    6.150; -190.000;  -29.000
326.710;  -14.500; -156.000;  -30.000
326.846;  -13.325;  146.000;  103.000
326.982;  -93.050; -530.000; -548.000
327.117;  -78.100; -481.000; -442.000
327.253;  -96.825; -745.000; -742.000
327.388; -157.125;-1137.000;-1153.000
327.524;  -67.425; -811.000; -578.000
327.659;  -37.575;  -58.000;  -22.000
327.795;  -17.100;   69.000;   45.000
327.931; -100.225; -723.000; -499.000
328.066;  -20.825; -417.000; -276.000
328.202;  -32.425;   12.000; -129.000
328.337;   87.950;  957.000;  713.000
328.473;   35.350;  -12.000;  -74.000
328.608;  -30.800; -256.000; -267.000
328.743;  -88.625; -799.000; -664.000
328.879;   13.100;  214.000;  114.000
329.014;  -46.850; -102.000; -122.000
329.150;  -92.975; -358.000; -483.000
329.285;  -65.650; -465.000; -466.000
329.421;  -58.500; -548.000; -246.000
329.556;  -28.500;  -36.000;   85.000
329.691; -110.625; -633.000; -615.000
329.827;  -96.750; -626.000; -480.000
329.962;  -54.100;  131.000; -301.000
330.097; -102.425; -673.000; -585.000
330.233;  -56.850; -410.000; -223.000
330.368; -137.050; -839.000; -628.000
330.503;  -19.225;    3.000;   98.000
330.638;    1.975;  -93.000; -125.000
330.774;  -57.175; -609.000; -530.000
330.909;  -48.175; -434.000; -244.000
331.044;  -83.950; -714.000; -708.000
331.179; -180.450;-1217.000;-1109.000
331.315;  -10.025;   77.000;   20.000
331.450;    7.100;  157.000;  285.000
331.585;  -84.525; -805.000; -706.000
331.720;  -79.200; -510.000; -460.000
331.855;  -17.800;  -35.000; -102.000
331.990;  237.925;   62.000;  138.000
332.126;  123.600; -110.000;   71.000
332.261;  -19.225; -379.000; -265.000
332.396;  -21.650; -135.000; -242.000
332.531; -105.750;-1074.000;-1031.000
332.666;   39.325; -519.000; -363.000
332.801; -114.375; -726.000; -807.000
332.936;  -32.050; -192.000; -122.000
333.071; -147.125; -870.000; -817.000
333.206;   19.300;  307.000;  379.000
333.341;    9.975;  344.000;  418.000
333.476;  -93.250; -627.000; -623.000
333.611;  -41.800; -251.000; -173.000
333.746;  -58.775; -381.000; -464.000
333.881; -123.975; -973.000; -935.000
334.016; -130.325; -936.000; -917.000
334.151; -139.150; -746.000; -702.000
334.286;   30.700;  152.000;  186.000
334.421;  -28.175; -125.000; -178.000
334.556;  -83.225; -611.000; -567.000
334.690;  -87.500; -631.000; -577.000
334.825;   43.300;  381.000;   83.000
334.960;  -64.625; -285.000; -413.000
335.095;    2.750;  135.000;  -91.000
335.230; -110.350; -722.000; -738.000
335.365; -140.625;-1084.000; -990.000
335.499; -132.075;-1108.000;-1037.000
335.634;   12.900;    9.000;  534.000
335.769;  -98.350; -755.000; -720.000
335.904;  -63.550; -603.000; -561.000
336.038;  -60.325; -735.000; -657.000
336.173; -116.725;-1206.000;-1194.000
336.308;    2.150; -116.000; -189.000
336.443;   11.375; -544.000; -634.000
336.577;  -75.375; -936.000; -787.000
336.712;   59.450;   -4.000;  -12.000
336.847;  -48.250; -724.000; -607.000
336.981;   66.075; -272.000; -208.000
337.116;  269.750;  615.000;  501.000
337.250;  149.525; -434.000; -421.000
337.385;  253.075; -297.000; -208.000
337.520;   78.075; -632.000; -603.000
337.654;  -50.425; -215.000; -126.000
337.789; -143.575; -989.000; -933.000
337.923;  -35.775; -104.000; -205.000
338.058;  -92.650; -673.000; -738.000
338.192;  -48.625; -611.000; -488.000
338.327;  -19.100;  -18.000; -155.000
338.461;  -60.350; -299.000; -469.000
338.596;  -96.650; -780.000; -638.000
338.730; -108.900; -767.000; -803.000
338.865;   79.625;  -46.000; -140.000
338.999;  -53.850; -846.000; -702.000
339.134;  -37.225; -634.000; -536.000
339.268;    2.025; -741.000; -603.000
339.403;  365.950; -740.000; -775.000
339.537;  113.475; -894.000; -820.000
339.671; -108.300; -829.000; -813.000
339.806;  -62.800; -556.000; -512.000
339.940;    2.550; -261.000; -235.000
340.074;  -89.375; -685.000; -510.000
340.209;  -52.975; -351.000; -230.000
340.343;  -92.725; -517.000; -573.000
340.477;  152.975;  998.000; 1036.000
340.612;  -45.225;-1033.000; -900.000
340.746;  122.600; -199.000; -243.000
340.880;  -82.325; -924.000; -785.000
341.014;  -23.325;  -45.000; -154.000
341.149; -119.475; -756.000; -718.000
341.283; -112.425; -839.000; -754.000
341.417; -106.625;-1124.000; -938.000
341.551;  118.075; -768.000; -708.000
341.685;  -43.175; -633.000; -611.000
341.820;  -55.125; -562.000; -493.000
341.954;  -48.725; -218.000; -349.000
342.088; -149.525;-1102.000;-1019.000
342.222;   57.325;  565.000;  618.000
342.356;  -59.400; -395.000; -335.000
342.490; -103.475; -880.000; -841.000
342.624;  -51.325; -339.000; -242.000
342.758;  -12.875; -364.000; -312.000
342.892;  -76.975; -710.000; -585.000
343.026;  -57.100;  -58.000; -116.000
343.160;  -65.725; -426.000; -376.000
343.294;  -88.450; -474.000; -337.000
343.428;  -34.700; -488.000; -448.000
343.562;  -34.075; -172.000;  -23.000
343.696;  -25.675; -385.000; -314.000
343.830;  -25.675; -362.000; -356.000
343.964;    9.050; -231.000; -168.000
344.098;  880.500;  199.000;   70.000
344.232;  739.100; -266.000; -127.000
344.366;   75.425; -567.000; -453.000
344.500;   42.000; -665.000; -744.000
344.634;   23.325; -324.000; -164.000
344.768;  -15.200; -531.000; -341.000
344.902;   18.275;  278.000;  256.000
345.035;  -78.550; -556.000; -496.000
345.169; -140.775; -933.000; -656.000
345.303;  -25.675; -308.000; -482.000
345.437;  -88.275; -826.000; -717.000
345.571;  -78.950; -675.000; -594.000
345.704;  -76.150; -309.000; -532.000
345.838;  -11.400; -331.000; -284.000
345.972;  -47.400; -543.000; -495.000
346.106;  181.800; -179.000; -190.000
346.239;  410.750; -312.000; -243.000
346.373;    2.100; -343.000; -302.000
346.507; -155.775; -950.000; -962.000
346.640;  141.425;  -30.000;   13.000
346.774;  -54.800; -650.000; -797.000
346.908;  -24.025; -138.000;  -11.000
347.041; -100.950; -646.000; -593.000
347.175;   -7.275;  259.000;   27.000
347.309;  -92.800; -698.000; -628.000
347.442;  -98.650; -883.000; -732.000
347.576;  253.650;  670.000;  668.000
347.709;  173.375; -123.000;  -52.000
347.843; -109.500; -933.000; -825.000
347.976;   34.375;  235.000;  294.000
348.110; -187.450;-1268.000;-1186.000
348.243; -107.650; -679.000; -772.000
348.377;   -5.050;  -26.000;   60.000
348.510;   45.675;  403.000;  540.000
348.644;  -41.350;  -37.000; -159.000
348.777;  -12.375;  180.000;  191.000
348.911;  -60.525; -142.000; -112.000
349.044;  170.050;  471.000;  448.000
349.178;  154.175;-1069.000;-1006.000
349.311;  109.250;  141.000;  255.000
349.444;  -22.150; -927.000; -813.000
349.578;  -17.675; -347.000; -200.000
349.711; -112.325; -959.000; -862.000
349.845;  -29.600; -661.000; -591.000
349.978; -157.050;-1224.000;-1137.000
350.111;  -82.275; -546.000; -612.000
350.244;  -72.750; -596.000; -700.000
350.378;   -1.300; -392.000; -393.000
350.511;  -79.200; -393.000; -426.000
350.644;  -97.275; -808.000; -806.000
350.778;   11.075;  168.000;  104.000
350.911;    6.725;  134.000;  140.000
351.044; -110.000; -685.000; -615.000
351.177;  -28.100; -321.000; -281.000
351.310;  -29.300;    3.000; -131.000
351.444;  -80.325; -888.000; -788.000
351.577;  103.275;  140.000;   90.000
351.710;   79.175;  593.000;  417.000
351.843;  -26.275; -165.000;  -77.000
351.976;   -1.400;  149.000;  -79.000
352.109;  -86.375; -621.000; -612.000
352.242;  -41.775; -464.000; -419.000
352.376;  -72.075; -580.000; -636.000
352.509;  158.250; -437.000; -356.000
352.642;    5.250; -654.000; -604.000
352.775;   51.850; -141.000;  -98.000
352.908; -117.750; -933.000; -904.000
353.041;  -97.350; -814.000; -824.000
353.174;  -66.675; -551.000; -424.000
353.307;  -84.550; -753.000; -764.000
353.440;   68.200;  541.000;  453.000
353.573; -120.325; -957.000;-1008.000
353.706;  -62.100; -384.000; -558.000
353.839;  -31.875; -264.000; -220.000
353.971; -104.450; -657.000; -512.000
354.104;  -85.825; -896.000; -835.000
354.237;  -42.500; -627.000; -662.000
354.370;  -90.625; -846.000; -879.000
354.503; -195.600;-1231.000;-1308.000
354.636;  -40.025; -529.000; -348.000
354.769; -139.725; -937.000; -860.000
354.902;  -13.275; -230.000; -139.000
355.034;  -19.375; -164.000; -220.000
355.167;  -17.450; -262.000; -162.000
355.300;  -95.500;-1061.000; -880.000
355.433;  951.275;  -71.000;  -14.000
355.565; 1503.200; -402.000; -384.000
355.698;  385.375; -356.000; -296.000
355.831;  -12.125; -882.000; -801.000
355.964;   67.900; -285.000; -170.000
356.096; -104.150; -856.000; -843.000
356.229;    1.050; -523.000; -530.000
356.362;  299.825; -373.000; -266.000
356.494;  594.900; -229.000; -162.000
356.627;  469.275;  269.000;  377.000
356.760;  671.375;  120.000;   53.000
356.892;  951.900; -286.000; -601.000
357.025;  651.175;  403.000;  389.000
357.157;  587.750; -167.000; -179.000
357.290;  685.475; -856.000; -713.000
357.423;  206.150; -667.000; -556.000
357.555;  100.275; -217.000; -228.000
357.688;  124.775; -483.000; -364.000
357.820;  437.825; -870.000; -877.000
357.953; 3718.825; -563.000; -589.000
358.085;  806.225; -632.000; -612.000
358.218; 1067.550;-1131.000; -932.000
358.350;  187.100;  -58.000;  312.000
358.483; -124.825;-1300.000;-1187.000
358.615;  -18.375;-1182.000;-1078.000
358.747;  -66.725;-1187.000;-1058.000
358.880;   13.750; -810.000; -744.000
359.012;  -19.700; -376.000; -202.000
359.145;  -26.725; -480.000; -511.000
359.277;   54.500; -962.000; -913.000
359.409; 3036.850;  536.000;  231.000
359.542;  820.600; -738.000; -688.000
359.674;   69.350;   46.000;   13.000
359.806;  -75.925; -565.000; -438.000
359.939;  -52.900; -617.000; -516.000
360.071;  -28.750; -583.000; -579.000
360.203;  -31.325; -411.000; -364.000
360.335;   31.650;  164.000;  -16.000
360.468;  182.375; -249.000; -307.000
360.600; 2450.725; -547.000; -454.000
360.732; 2890.775; -546.000; -423.000
360.864;  392.075;-1216.000;-1044.000
360.996;  243.900; -516.000; -554.000
361.129;   31.600; -389.000; -598.000
361.261;   22.575;  110.000; -113.000
361.393;  -53.225; -252.000; -214.000
361.525;   36.175;   94.000;  244.000
361.657;  -56.600; -821.000; -703.000
361.789;   13.275; -139.000; -155.000
361.921;  210.550; -642.000; -593.000
362.053;  256.200;  524.000;  541.000
362.185;   47.225;  288.000;   72.000
362.318;  -86.350; -709.000; -705.000
362.450;  115.200;  294.000;  444.000
362.582;   72.850; -913.000; -870.000
362.714;  -32.600; -353.000; -332.000
362.846;  -83.750; -606.000; -490.000
362.978; -143.175; -941.000; -811.000
363.109;   44.250; -161.000; -260.000
363.241;  408.125; -739.000; -749.000
363.373;  441.575; -649.000; -564.000
363.505;  652.375; -186.000;  -91.000
363.637;  163.425; -787.000; -601.000
363.769; -125.125;-1067.000;-1080.000
363.901;  -71.525; -596.000; -654.000
364.033; -127.750;-1103.000;-1062.000
364.165;   -4.400; -283.000; -283.000
364.296;   56.600; -316.000; -177.000
364.428;   54.225;-1344.000;-1220.000
364.560;  -79.350; -679.000; -661.000
364.692;  -64.700; -738.000; -835.000
364.824;  253.700; -588.000; -456.000
364.955;  440.650; -402.000; -564.000
365.087;  941.575;-1097.000; -852.000
365.219;   28.400; -686.000; -816.000
365.351;  -66.225; -526.000; -572.000
365.482;   40.925;  300.000;  240.000
365.614;  -58.175; -402.000; -314.000
365.746; -112.900; -729.000; -752.000
365.877;  -98.000; -706.000; -672.000
366.009;  253.450;  -35.000;  -62.000
366.141;  -79.050;-1249.000;-1134.000
366.272; -110.450; -803.000; -719.000
366.404; -121.200;-1005.000; -874.000
366.535;  -11.100; -139.000;  -12.000
366.667; -105.825; -644.000; -649.000
366.799;   24.150;  353.000;  203.000
366.930; -116.850; -862.000; -996.000
367.062;  114.425; -639.000; -613.000
367.193;  149.000; -872.000; -842.000
367.325;  -59.275; -580.000; -684.000
367.456;   47.625; -246.000;   31.000
367.588;  152.550; -371.000; -318.000
367.719;   14.850;  -44.000;  -45.000
367.851;  -37.150; -222.000; -241.000
367.982;  -52.850; -875.000; -732.000
368.113;   92.100; -475.000; -358.000
368.245; -121.750; -960.000; -841.000
368.376;  -19.600; -254.000; -302.000
368.508;  -38.400; -188.000; -263.000
368.639; -140.975;-1166.000;-1034.000
368.770;  -28.300; -670.000; -589.000
368.902;  -57.275; -836.000; -926.000
369.033; -114.775; -906.000; -855.000
369.164;  -52.850; -720.000; -653.000
369.296; -119.125; -452.000; -601.000
369.427;  -10.250; -209.000; -144.000
369.558;  -59.000; -593.000; -377.000
369.689;  -89.650; -721.000; -569.000
369.821; -141.925; -951.000; -845.000
369.952;  -32.300;   42.000; -108.000
370.083;  -51.325; -229.000; -108.000
370.214;  -92.475; -735.000; -650.000
370.345;   -6.275;   65.000;   81.000
370.477;  -98.100; -810.000; -790.000
370.608;  215.350; -328.000; -264.000
370.739;  -54.125;-1233.000;-1292.000
370.870;  -53.025;-1102.000; -923.000
371.001;   75.250; -378.000; -467.000
371.132;  -88.875; -754.000; -735.000
371.263;  -21.100;  -42.000; -148.000
371.394; -141.675; -841.000; -748.000
371.525;   22.575;  345.000;  225.000
371.657;  -99.225; -808.000; -670.000
371.788;   62.625;  103.000;  199.000
371.919;  161.475; -384.000; -304.000
372.050; 3544.850;  -91.000; -156.000
372.181; 1070.425; -188.000; -294.000
372.311;  355.975;   42.000; -127.000
372.442;   30.475; -457.000; -451.000
372.573;  -24.175; -444.000; -340.000
372.704; -124.750;-1008.000; -980.000
372.835;   76.350; -228.000; -289.000
372.966;  -78.550; -646.000; -554.000
373.097;  -77.700; -575.000; -711.000
373.228;  -54.600; -717.000; -542.000
373.359;  112.525; -824.000; -536.000
373.490;  883.700; -881.000; -727.000
373.620; 1147.800;-1001.000; -803.000
373.751; 1724.650; -332.000; -396.000
373.882;  792.650; -663.000; -733.000
374.013;   58.475; -449.000; -262.000
374.143;  -43.875; -581.000; -659.000
374.274;  -97.150; -987.000; -908.000
374.405;  154.400; -388.000; -276.000
374.536;  423.550; -526.000; -387.000
374.666; 1113.100; -759.000; -807.000
374.797;  222.075; -817.000; -868.000
374.928;  810.475; -710.000; -560.000
375.058;  879.225; -535.000; -500.000
375.189;   64.650;  -59.000;  -93.000
375.320;  -95.900; -928.000;-1034.000
375.450;  -42.750; -625.000; -616.000
375.581;  -63.500; -526.000; -436.000
375.712;  -28.075; -574.000; -250.000
375.842;  291.150; -438.000; -415.000
375.973;  225.250; -554.000; -513.000
376.103;  -54.875; -665.000; -648.000
376.234;  -87.475; -531.000; -552.000
376.364;  -59.775; -944.000; -867.000
376.495;  307.150;  925.000;  529.000
376.625;  -22.300; -472.000; -485.000
376.756;   34.700; -709.000; -678.000
376.886;  -82.650;-1178.000;-1026.000
377.017;   51.825;-1048.000;-1061.000
377.147;  360.825; -786.000; -782.000
377.278;   55.125;  174.000;  228.000
377.408; -125.300; -801.000; -815.000
377.538; -105.250; -707.000; -693.000
377.669;  -87.850; -537.000; -613.000
377.799; -108.475; -645.000; -635.000
377.929;  -71.800; -610.000; -428.000
378.060; -128.875; -781.000; -847.000
378.190;  -62.850; -726.000; -531.000
378.320;  -50.025; -401.000; -406.000
378.451;   -6.825; -131.000;  -22.000
378.581;   -8.375;  -67.000; -110.000
378.711;  136.775; 1035.000;  866.000
378.841;  -21.550; -533.000; -675.000
378.972;  -91.075; -871.000; -751.000
379.102;  -13.275; -652.000; -579.000
379.232;  -31.150; -126.000;  -73.000
379.362; -103.875;-1001.000; -885.000
379.492;    3.650; -373.000; -424.000
379.623;   94.675;    0.000;  111.000
379.753; -105.825;-1107.000; -974.000
379.883;  166.875;   59.000;  156.000
380.013;   -3.500;-1081.000;-1017.000
380.143; -100.075;-1097.000;-1056.000
380.273; -115.800; -985.000; -861.000
380.403;  -21.925; -344.000; -257.000
380.533;  -44.500; -651.000; -664.000
380.663;   62.475;  173.000;  128.000
380.793; -104.425;-1027.000;-1074.000
380.923;  -26.125; -103.000;  -34.000
381.053; -100.300; -613.000; -623.000
381.183;  -36.825; -106.000; -248.000
381.313;   32.125; -656.000; -470.000
381.443;   23.675; -692.000; -473.000
381.573;  180.225; -402.000; -409.000
381.703;  258.425;-1249.000;-1095.000
381.833; -125.825;-1454.000;-1336.000
381.963;  125.400; -134.000;  -87.000
382.093; 1369.475; -925.000; -909.000
382.223;  434.500; -713.000; -602.000
382.353;  -40.300; -801.000; -608.000
382.482;  362.825;-1091.000; -964.000
382.612;  752.225; -872.000; -644.000
382.742;  422.475; -695.000; -622.000
382.872;  253.150; -565.000; -551.000
383.002;   62.650;  347.000; -132.000
383.131;  -23.950; -226.000; -160.000
383.261;  -50.875; -706.000; -768.000
383.391;  289.900; -552.000; -377.000
383.521; 3250.575;  451.000;  263.000
383.650;  794.975; -947.000; -904.000
383.780;   -8.425; -783.000; -656.000
383.910;   98.300;  880.000;  802.000
384.039;   17.300; -794.000; -656.000
384.169;  202.175;-1205.000;-1017.000
384.299;  -11.325; -650.000; -662.000
384.428; -103.625; -764.000; -680.000
384.558;  -49.200; -308.000; -275.000
384.687;  -64.375; -414.000; -334.000
384.817;    0.125;   75.000;   -2.000
384.947;    7.675; -234.000; -141.000
385.076;  282.875;  982.000;  912.000
385.206;   91.975;  369.000;  480.000
385.335;  -50.350; -549.000; -417.000
385.465;  -84.650; -655.000; -663.000
385.594;  123.725;  -53.000;  -44.000
385.724;  409.350; -868.000; -838.000
385.853;  109.075; -296.000; -270.000
385.982; 1274.950; -743.000; -787.000
386.112; 2135.525;-1052.000; -871.000
386.241;  129.375; -307.000; -312.000
386.371;   16.875; -174.000;  -87.000
386.500;  -24.125; -825.000; -789.000
386.629;   11.975; -874.000; -817.000
386.759;   64.100;  -43.000;   68.000
386.888;  -29.375; -170.000; -250.000
387.017;  -90.975; -648.000; -620.000
387.147;  -95.625; -771.000; -798.000
387.276;  -24.300; -410.000; -397.000
387.405;    1.625; -398.000; -342.000
387.535;  -51.825; -452.000; -361.000
387.664;  -71.200; -692.000; -620.000
387.793;   45.450; -198.000; -113.000
387.922;  500.800;  255.000;  200.000
388.052;    4.725; -576.000; -423.000
388.181;   -7.725; -342.000; -472.000
388.310;  -38.200; -889.000; -710.000
388.439;  -67.200; -749.000; -742.000
388.568;  168.925;  365.000;  244.000
388.697; 1002.625; -756.000; -653.000
388.826;  204.950; -768.000; -666.000
388.956;   45.175; -285.000; -307.000
389.085;  -53.125; -347.000; -287.000
389.214; -116.325; -842.000; -872.000
389.343;  -75.225; -645.000; -413.000
389.472;  385.800;  126.000;  149.000
389.601;  515.000;   91.000;    0.000
389.730;    1.700; -568.000; -687.000
389.859;   48.175;  226.000;   46.000
389.988;  171.125; -423.000; -408.000
390.117;  132.350; -168.000; -146.000
390.246;  -24.600; -331.000; -320.000
390.375;   88.725; -673.000; -626.000
390.504;  -69.100; -703.000; -621.000
390.633; -110.700; -672.000; -726.000
390.761;  -74.175; -732.000; -645.000
390.890;    9.400;   -4.000; -130.000
391.019;  -40.775; -421.000; -441.000
391.148; -134.675; -826.000; -855.000
391.277;  -85.225; -576.000; -493.000
391.406;  -98.675; -821.000; -805.000
391.534;    5.525;  574.000; -301.000
391.663;  -77.925; -583.000; -645.000
391.792;  -85.400; -673.000; -701.000
391.921;   66.925;   -3.000;   15.000
392.050;  160.025; -287.000; -228.000
392.178;  -46.175;-1206.000;-1061.000
392.307;  119.775; -758.000; -712.000
392.436;   60.250; -427.000; -641.000
392.564;    9.475;  166.000;   -6.000
392.693;  -95.300; -860.000; -682.000
392.822;  190.475; -529.000; -534.000
392.950;   76.375; -880.000; -714.000
393.079;  313.925; -188.000; -328.000
393.208;    8.875; -488.000; -511.000
393.336;   -5.750; -170.000; -145.000
393.465;  -54.525; -317.000; -199.000
393.593;  -16.000;   62.000;   79.000
393.722; -159.975;-1121.000; -916.000
393.850;  -32.575; -188.000;  -61.000
393.979; -158.175; -926.000; -805.000
394.107;  -70.825; -517.000; -537.000
394.236;  -29.775; -570.000; -507.000
394.364;  206.200;  383.000;  206.000
394.493;  352.125; -911.000; -767.000
394.621;    2.925; -955.000; -916.000
394.750;  685.325; -873.000; -923.000
394.878; 2925.400; -247.000; -149.000
395.007; 4067.500; -721.000; -807.000
395.135;  315.200; -790.000; -721.000
395.263;  -86.850;-1038.000;-1040.000
395.392;   -7.650;  -25.000; -107.000
395.520; -141.850; -818.000; -679.000
395.648;  -81.725; -865.000; -915.000
395.777;  -22.125; -366.000; -405.000
395.905;  -61.675; -449.000; -564.000
396.033;    7.725;  217.000;  172.000
396.162;  543.425; -399.000; -453.000
396.290;  500.475;  -17.000;   -2.000
396.418;   99.575; -555.000; -514.000
396.546;  -48.700; -571.000; -466.000
396.674; -107.450; -850.000; -878.000
396.803;    3.600;  -72.000;  -23.000
396.931;   70.000; -179.000; -199.000
397.059;   33.975;-1026.000; -989.000
397.187; -117.275;-1026.000; -975.000
397.315; -148.175; -884.000; -649.000
397.443;  -97.750; -592.000; -443.000
397.572;  -96.950; -578.000; -424.000
397.700;  -21.625; -607.000; -614.000
397.828;   17.100;  120.000;  -90.000
397.956;  -42.525; -508.000; -478.000
398.084;  -62.575; -767.000; -626.000
398.212;   19.400;  137.000;  124.000
398.340;    0.575;  -56.000;  159.000
398.468;   17.325; -390.000; -169.000
398.596; -137.200; -993.000; -953.000
398.724; -122.775; -762.000; -767.000
398.852; -160.875;-1024.000; -976.000
398.980;  -71.100; -560.000; -560.000
399.108;  -70.075; -982.000; -735.000
399.236;   37.100;   13.000;    8.000
399.363;    3.800;  222.000;  196.000
399.491;  -74.375; -404.000; -398.000
399.619; -136.400; -829.000; -800.000
399.747; -103.700; -859.000; -771.000
399.875;   62.100;  220.000;  234.000
400.003;  -55.525; -359.000; -284.000
400.130; -105.100; -421.000; -341.000
400.258;  -37.275;  -83.000;   38.000
400.386;  -80.050; -352.000; -168.000
400.514;  -54.600; -526.000; -587.000
400.641;  -95.675; -928.000; -802.000
400.769; -142.175; -979.000; -888.000
400.897; -124.875; -838.000; -793.000
401.025;  -27.750; -166.000; -152.000
401.152;  -17.325;  220.000;   38.000
401.280;  -81.200; -430.000; -429.000
401.408; -135.775; -712.000; -576.000
401.535; -103.950; -735.000; -758.000
401.663; -202.125;-1134.000;-1054.000
401.790;  -82.100; -514.000; -525.000
401.918;   28.725;  436.000;  405.000
402.046;  -21.025;  134.000;  122.000
402.173;  -49.025;  -18.000;    7.000
402.301;  -68.550; -519.000; -397.000
402.428;   30.825;  528.000;  383.000
402.556; -141.300;-1188.000; -913.000
402.683;  -33.650;  -20.000;   -1.000
402.811;  -28.425;  -37.000; -206.000
402.938;  -18.975;   20.000;   27.000
403.066;  192.725; -574.000; -558.000
403.193;  340.400;  299.000;  239.000
403.321;  242.250; -396.000; -574.000
403.448;  300.825;   83.000;   27.000
403.575;  129.775;  -90.000;  -46.000
403.703;  -93.650; -732.000; -557.000
403.830;  -65.925; -531.000; -496.000
403.957; -139.875;-1117.000;-1023.000
404.085;   17.225;  -61.000; -172.000
404.212;   87.600;  -50.000;   63.000
404.339;  273.125; -566.000; -306.000
404.467; 5801.500; -612.000; -524.000
404.594; 3907.175; -287.000; -227.000
404.721;  909.600; -869.000; -764.000
404.848;   65.700; -113.000; -202.000
404.976; -108.250; -856.000; -783.000
405.103;  -17.275;  -14.000;  -82.000
405.230;   -8.375;  190.000;  226.000
405.357;    6.825;  117.000;   44.000
405.484;  267.125;  -49.000;    5.000
405.612;   33.250; -548.000; -563.000
405.739;  -67.550; -488.000; -243.000
405.866;   81.525;  669.000;  385.000
405.993;  -55.750; -398.000; -102.000
406.120; -127.625; -801.000; -887.000
406.247;  -66.025; -323.000; -342.000
406.374;  413.975;  540.000;  629.000
406.501;   90.525; -632.000; -702.000
406.628;  -95.600; -621.000; -589.000
406.755; -123.675; -803.000; -620.000
406.882;  -42.625; -228.000; -277.000
407.009; -125.250; -719.000; -628.000
407.136;   29.850; -480.000; -401.000
407.263;  118.150; -939.000; -829.000
407.390;  -84.825; -692.000; -614.000
407.517; -184.400;-1139.000;-1187.000
407.644;  -68.600; -332.000; -256.000
407.771; -146.050; -249.000; -287.000
407.898;  -17.575;  168.000;  328.000
408.025;  -77.100; -421.000; -313.000
408.151;   -5.925;   82.000;  153.000
408.278;  -88.225; -267.000; -216.000
408.405; -139.425; -931.000; -899.000
408.532;  -89.600; -549.000; -542.000
408.659; -130.650; -677.000; -648.000
408.785; -212.525;-1298.000;-1170.000
408.912;  -66.725; -412.000; -296.000
409.039; -113.975; -610.000; -686.000
409.166; -107.725; -591.000; -555.000
409.292; -111.875; -571.000; -534.000
409.419; -136.325; -665.000; -649.000
409.546;  -92.475; -431.000; -192.000
409.672; -121.000; -713.000; -545.000
409.799;  -39.525;  -36.000;   34.000
409.926;  -37.875; -180.000; -179.000
410.052; -184.250;-1127.000;-1091.000
410.179;  -52.625; -368.000; -392.000
410.305;  -94.025; -375.000; -493.000
410.432;  -64.600; -220.000; -333.000
410.558;  -99.650; -305.000; -380.000
410.685; -118.625; -688.000; -431.000
410.812; -122.275; -409.000; -588.000
410.938; -135.875; -964.000; -808.000
411.065;  -96.925; -671.000; -645.000
411.191;  -33.625; -189.000; -174.000
411.317; -131.300; -823.000; -742.000
411.444;  -62.175; -317.000; -246.000
411.570;  -85.975; -339.000; -294.000
411.697; -122.225; -758.000; -752.000
411.823; -186.950; -989.000; -999.000
411.949;  -36.500;  -56.000;   17.000
412.076; -117.425; -539.000; -519.000
412.202; -120.350; -758.000; -757.000
412.329; -128.875; -798.000; -752.000
412.455; -116.525; -821.000; -657.000
412.581;  -42.675;  -15.000;  172.000
412.707;  -72.000; -540.000; -457.000
412.834;    3.025;  156.000;  219.000
412.960;  -89.000; -785.000; -784.000
413.086; -118.925; -743.000; -701.000
413.212;  132.100;  604.000;  578.000
413.339;  -78.900; -685.000; -701.000
413.465;   -1.200; -364.000; -310.000
413.591;  -96.250; -757.000; -474.000
413.717;  -72.725; -358.000; -366.000
413.843; -159.025; -839.000; -861.000
413.969;  -62.900;  -47.000; -292.000
414.096; -116.400; -679.000; -679.000
414.222;   -7.500;  -33.000;   85.000
414.348;  -45.075; -652.000; -385.000
414.474;   83.275;   38.000;  -52.000
414.600;  -18.350; -126.000; -144.000
414.726;  -21.625;  -96.000;  -55.000
414.852;  -73.675; -365.000; -342.000
414.978;   27.100;  104.000;  -18.000
415.104;   29.950;   38.000;   80.000
415.230;    2.850; -329.000; -330.000
415.356;   32.450; -409.000; -514.000
415.482;  194.825;   13.000;  -35.000
415.608;  256.925; -247.000; -323.000
415.734;  940.275;   67.000;   38.000
415.860;19731.450; -875.000; -767.000
415.986;15092.825; -685.000; -607.000
416.111; 1289.825; -798.000; -652.000
416.237;  250.825; -424.000; -571.000
416.363; 1074.425; -765.000; -733.000
416.489; 4285.575; -324.000; -251.000
416.615;  478.750; -707.000; -742.000
416.741;  -21.850; -677.000; -784.000
416.866;  -95.950; -673.000; -736.000
416.992; -119.725; -801.000; -818.000
417.118;  -43.800;  -41.000;  -80.000
417.244;  -67.525; -798.000; -531.000
417.369;  -91.525; -801.000; -612.000
417.495;  -15.750; -325.000; -254.000
417.621;  -89.975;-1015.000; -803.000
417.746;   -8.700; -579.000; -572.000
417.872;   27.400; -254.000; -144.000
417.998;   43.325; -515.000; -530.000
418.123; 1025.875;-1073.000; -845.000
418.249; 5495.575; -512.000; -601.000
418.374;  797.750; -916.000; -824.000
418.500;  128.325; -383.000; -482.000
418.626;  102.150;   70.000;  -59.000
418.751;  116.200; -549.000; -448.000
418.877;  197.575; -637.000; -643.000
419.002; 1758.575; -688.000; -560.000
419.128;12683.625; -930.000; -721.000
419.253; 3295.250; -967.000; -837.000
419.379;  436.550; -391.000; -338.000
419.504;  392.625;  325.000;  415.000
419.629;  511.850; -393.000; -212.000
419.755; 3492.925; -317.000; -254.000
419.880;21492.425;  -98.000;   67.000
420.006;11526.125; -280.000; -221.000
420.131;29900.325; -662.000; -775.000
420.256; 4499.700; -315.000; -316.000
420.382;  592.325; -665.000; -687.000
420.507;   67.675; -649.000; -778.000
420.632;  109.175; -337.000; -339.000
420.758;  237.950; -251.000; -425.000
420.883;  -88.800; -876.000; -672.000
421.008; -106.875; -775.000; -619.000
421.133;  -74.500; -509.000; -467.000
421.259;  -54.250; -325.000; -259.000
421.384; -122.500; -834.000; -693.000
421.509;  -58.950;-1052.000; -862.000
421.634; 1080.375; -936.000; -820.000
421.759;  494.325; -359.000; -327.000
421.885;  -47.850; -717.000; -656.000
422.010;  -75.675; -673.000; -542.000
422.135; -154.050; -695.000; -727.000
422.260;   27.350;  340.000;  280.000
422.385;  -54.325;   12.000;  -98.000
422.510;   -0.425;  151.000;  -26.000
422.635;    5.725;  -87.000;  -43.000
422.760;  103.075; -766.000; -791.000
422.885;   45.875;  -57.000;  -80.000
423.010;  -44.475; -112.000; -169.000
423.135;  -92.625; -481.000; -561.000
423.260;  -17.050; -150.000; -245.000
423.385;   51.400;  476.000;  222.000
423.510;   30.075;   71.000;  -22.000
423.635;   50.900;  133.000;   45.000
423.760;   58.300;  383.000;  328.000
423.885;   61.225;  336.000;  391.000
424.010;    2.850;  -68.000;  -13.000
424.135;  -31.650;    5.000;  -33.000
424.259; -100.800; -654.000; -457.000
424.384;  -68.650; -279.000; -272.000
424.509;  -34.975; -260.000; -186.000
424.634;  -97.275; -761.000; -623.000
424.759;  -28.450; -688.000; -544.000
424.883;  -17.900; -506.000; -527.000
425.008;  150.450; -502.000; -410.000
425.133; 2017.825; -679.000; -653.000
425.258; 1013.075; -517.000; -381.000
425.382;  995.350; -867.000; -774.000
425.507; 2587.700; -487.000; -543.000
425.632;  447.825; -802.000; -663.000
425.756;  464.450; -256.000; -146.000
425.881; 6423.375; -831.000; -857.000
426.006;18285.775; -604.000; -355.000
426.130; 2994.950; -696.000; -508.000
426.255;  384.150; -611.000; -491.000
426.379;  172.475; -189.000; -577.000
426.504;  369.500;  660.000;  544.000
426.629; 3974.875; -519.000; -466.000
426.753; 2886.500;   64.000;  -46.000
426.878;  323.525; -252.000; -288.000
427.002;  135.575; -651.000; -668.000
427.127; 1539.875;  -35.000; -158.000
427.251;11545.875;  372.000;  401.000
427.375; 3444.200; -191.000; -173.000
427.500; 2272.200; -616.000; -610.000
427.624;  820.050; -234.000; -400.000
427.749;   88.275; -216.000; -225.000
427.873;  -49.900; -499.000; -412.000
427.997;  -36.775; -222.000; -230.000
428.122;   70.775;  795.000;  703.000
428.246;   68.375;  433.000;  434.000
428.371; -142.375; -869.000; -773.000
428.495; -113.700; -624.000; -646.000
428.619;  -48.650; -186.000; -117.000
428.743;   28.850;   65.000;  132.000
428.868;  -13.725; -732.000; -643.000
428.992; 1349.225; -219.000; -326.000
429.116;  561.225; -329.000; -357.000
429.240;  258.050;  419.000;  426.000
429.365;  -22.700; -454.000; -574.000
429.489;  -54.775; -638.000; -647.000
429.613;   19.300; -236.000; -177.000
429.737;   22.650; -563.000; -432.000
429.861;  259.600; -247.000; -133.000
429.985; 5482.050; -425.000; -305.000
430.109; 6356.900; -770.000; -908.000
430.234;  740.625;   76.000;  -50.000
430.358;   61.400; -250.000; -160.000
430.482;  -83.825; -672.000; -564.000
430.606;  -75.025; -655.000; -375.000
430.730;   -4.275; -437.000; -388.000
430.854;  109.525; -909.000; -835.000
430.978;  -76.175; -795.000; -764.000
431.102; -101.125; -499.000; -422.000
431.226; -131.525; -874.000; -815.000
431.350;    9.050;  345.000;  422.000
431.474;  -71.425; -661.000; -373.000
431.597; -158.000;-1060.000; -848.000
431.721;  -75.575; -276.000; -267.000
431.845; -129.050; -704.000; -472.000
431.969;  -83.625; -304.000; -349.000
432.093;  -93.050; -395.000; -317.000
432.217;  -34.150;   32.000;   82.000
432.341;  -90.825; -523.000; -518.000
432.464;  -16.050;   96.000;   40.000
432.588;  164.900; -401.000; -329.000
432.712;   84.100;  -52.000;  -52.000
432.836;   31.725;  213.000;  263.000
432.959;  -14.975; -372.000; -311.000
433.083;   71.325;   11.000;    2.000
433.207;  356.425;  285.000;  930.000
433.330; 5005.725; -391.000; -200.000
433.454; 6423.725; -654.000; -638.000
433.578; 3678.775;  583.000;  278.000
433.701;  708.500; -623.000; -675.000
433.825;  135.375; -292.000; -299.000
433.949;  151.150;   28.000;  -72.000
434.072;   27.900; -410.000; -323.000
434.196;  -29.950; -309.000; -117.000
434.319; 3636.900;25482.000;25124.000
434.443;  684.275; -656.000; -603.000
434.566; 2695.000;  281.000;   62.000
434.690;  484.375; -637.000; -383.000
434.813;   42.800; -251.000; -173.000
434.937;  -85.400; -569.000; -696.000
435.060;  -62.475; -423.000; -332.000
435.184;  255.950; -492.000; -217.000
435.307;  154.825;  159.000;  102.000
435.431;  -23.925;  -40.000;   24.000
435.554;  -82.000; -399.000; -240.000
435.677;  -89.725; -350.000; -258.000
435.801;  -43.300;  -25.000;   49.000
435.924;  -20.200;    1.000;  -67.000
436.048; -122.475;-1019.000; -732.000
436.171;  -80.450; -240.000;  -66.000
436.294;  -41.875; -248.000; -229.000
436.417;   90.425; -963.000; -849.000
436.541;  -83.625; -814.000; -840.000
436.664;  -53.475; -242.000; -316.000
436.787;  -46.475;   13.000;  113.000
436.910; -126.525; -792.000; -422.000
437.034;   -9.325;  142.000;  143.000
437.157;   31.225;  -11.000;    0.000
437.280;  -74.425; -392.000; -292.000
437.403; -108.425; -982.000; -869.000
437.526;  540.000; -903.000; -865.000
437.649; 2159.000; -505.000; -332.000
437.772;  300.025; -692.000; -540.000
437.896;  116.800;  700.000;  544.000
438.019; -108.150; -758.000; -503.000
438.142;  -95.400; -596.000; -506.000
438.265;  -27.925; -639.000; -670.000
438.388;  513.850; -520.000; -410.000
438.511;   80.900; -597.000; -394.000
438.634;  -45.100; -247.000; -125.000
438.757; -151.125; -693.000; -619.000
438.880;  -29.550;  -34.000;  -57.000
439.003;  -65.850; -417.000; -437.000
439.126;  -69.550; -287.000; -167.000
439.248;  -81.900;  -98.000; -139.000
439.371;  -55.900;    9.000;  -53.000
439.494;   31.225;  510.000;  439.000
439.617;  -53.800;   65.000;  -88.000
439.740; -185.175; -968.000; -816.000
439.863; -143.000; -755.000; -595.000
439.986; -126.775; -476.000; -431.000
440.108;  -62.150; -161.000; -112.000
440.231; -169.100; -950.000; -836.000
440.354;  -43.375;  -64.000; -150.000
440.477;   16.525; -566.000; -542.000
440.599;   -5.300; -200.000; -225.000
440.722; -137.475; -709.000; -586.000
440.845;   44.775;  751.000;  928.000
440.968; -130.950; -415.000; -311.000
441.090;  -67.400; -199.000;  -33.000
441.213; -175.575;-1021.000; -825.000
441.336;  -54.725; -159.000;   -5.000
441.458;  -86.950; -549.000; -396.000
441.581;  -78.600; -628.000; -629.000
441.703;  -76.925; -152.000;   13.000
441.826; -115.075; -557.000; -400.000
441.948;  -59.975;   56.000;   51.000
442.071;   20.950;  555.000;  424.000
442.193; -128.150; -531.000; -485.000
442.316;    9.800;  152.000;   97.000
442.438;   32.150; -233.000;  -10.000
442.561;   61.125;  272.000;  262.000
442.683;  482.950; -809.000; -522.000
442.806; 1081.275;   -8.000;   74.000
442.928;   16.875; -859.000; -604.000
443.051;  -47.800; -577.000; -373.000
443.173; -103.950; -341.000; -339.000
443.295;  -90.500; -263.000; -371.000
443.418;  -75.175; -321.000;  -29.000
443.540;   -3.050; -106.000;   -4.000
443.662; -134.325; -563.000; -465.000
443.785;  -19.175;  335.000;  199.000
443.907;  -95.175; -362.000; -208.000
444.029; -125.975; -767.000; -494.000
444.152; -153.825; -644.000; -554.000
444.274;  -32.125;  -18.000;  -24.000
444.396; -112.725; -461.000; -221.000
444.518; -140.775; -691.000; -454.000
444.640; -106.600; -268.000; -111.000
444.763;  -19.825;  388.000;  249.000
444.885; -116.000; -432.000; -392.000
445.007;  -41.675;   35.000;   86.000
445.129; -123.025; -610.000; -515.000
445.251; -105.875; -372.000; -439.000
445.373; -145.575; -537.000; -386.000
445.495;    6.075;  242.000;  350.000
445.617;   41.025;  853.000;  753.000
445.739;  -75.000; -215.000;  -97.000
445.861;  -33.000; -245.000; -112.000
445.984;  -30.125; -267.000; -101.000
446.105;  159.600; -418.000; -251.000
446.227;  587.500; -176.000;  -19.000
446.349;    7.850; -358.000; -249.000
446.471; -102.250; -615.000; -448.000
446.593;  -75.700; -316.000;   19.000
446.715;  -13.450;  -67.000;   41.000
446.837;   54.475;  697.000;  832.000
446.959; -106.600; -457.000; -478.000
447.081; -144.025; -628.000; -518.000
447.203;   37.200;  862.000;  834.000
447.325;  -94.300; -270.000;   42.000
447.446;   -3.400;  286.000;  530.000
447.568; -165.450; -921.000; -803.000
447.690;  -82.025; -236.000; -245.000
447.812; -162.525; -798.000; -519.000
447.933;  -38.975;  155.000;  127.000
448.055;  -70.575; -306.000; -261.000
448.177;  127.850;   31.000;   79.000
448.299;   71.875; -935.000; -727.000
448.420;   13.775;  -25.000;  159.000
448.542;  -45.750;   -3.000;   33.000
448.664;  -26.200;  109.000;  322.000
448.785;  -46.375;  265.000;   83.000
448.907;  -84.800; -614.000; -353.000
449.028;  -31.150; -771.000; -471.000
449.150;   47.800;  492.000;  589.000
449.272; -182.425;-1044.000; -913.000
449.393;   17.150;  612.000;  694.000
449.515; -155.300; -634.000; -581.000
449.636;  -71.300; -264.000; -155.000
449.758;   66.000;  763.000;  622.000
449.879;  -95.375; -498.000; -396.000
450.001;  -79.625; -149.000;  -49.000
450.122;  -43.525;  -95.000;  162.000
450.244;  -27.425;   37.000;  364.000
450.365;  -82.325; -495.000; -301.000
450.486;  -24.700;   80.000;  268.000
450.608;   21.825;  393.000;  326.000
450.729;   59.925;  578.000;  645.000
450.850;   12.925; -574.000; -466.000
450.972;  743.825; -552.000; -389.000
451.093; 4972.950;  190.000;  588.000
451.214; 2276.025; -516.000; -337.000
451.336;  363.025;  773.000;  579.000
451.457;   69.025;  264.000;  393.000
451.578;  -41.550; -118.000;  -74.000
451.699; -126.375; -546.000; -540.000
451.821;  -58.725; -284.000;  -50.000
451.942;  -11.050;  278.000;  285.000
452.063;   26.400;  228.000;  419.000
452.184;  541.225;  -54.000;  -49.000
452.305; 1114.025;  103.000;  170.000
452.427;  147.725; -549.000; -301.000
452.548;  -34.475;   23.000;   79.000
452.669;  -75.050; -257.000;  -89.000
452.790;  -49.725;    3.000;  -18.000
452.911;  -10.075;  195.000;  259.000
453.032;  -78.100; -289.000;  -60.000
453.153;  -51.200;  -29.000;   81.000
453.274;   61.650;  737.000;  868.000
453.395;  -65.325;  -51.000;  175.000
453.516;  121.825; 1317.000; 1388.000
453.637;  -94.525; -205.000; -150.000
453.758;  -49.025;   15.000;   69.000
453.879; -126.175; -462.000; -250.000
454.000;   65.850; 1086.000;  948.000
454.121; -141.550; -554.000; -326.000
454.242; -119.275; -599.000; -383.000
454.362;  -55.325;  -99.000;  114.000
454.483;  -44.200; -309.000; -229.000
454.604;   52.875;  512.000;  580.000
454.725; -132.775; -627.000; -555.000
454.846; -121.125; -474.000; -406.000
454.967;  -32.525;  230.000;  539.000
455.087;  -52.400;  179.000;  153.000
455.208;    1.900;  554.000;  856.000
455.329;  -71.400;  -22.000;   82.000
455.450;   31.500;  473.000;  633.000
455.570; -104.925; -234.000; -211.000
455.691;  -51.550;  201.000;  407.000
455.812; -113.150; -270.000;  -92.000
455.932;  -66.325;  107.000;  -97.000
456.053;  -88.050;   36.000;   24.000
456.173; -106.775; -433.000; -355.000
456.294; -127.750; -476.000; -303.000
456.415;  -71.600;  -73.000;   70.000
456.535;  -52.925;  297.000;  273.000
456.656;  -48.925;  132.000;  240.000
456.776;  -86.100;    3.000;  298.000
456.897;  -22.400;  308.000;  513.000
457.017;  -81.850; -153.000;   -3.000
457.138; -112.050; -402.000; -249.000
457.258;  -40.675;  263.000;  224.000
457.379;  -25.150;  509.000;  521.000
457.499;  -38.350;  443.000;  432.000
457.620; -132.700; -407.000; -231.000
457.740; -111.350; -132.000;  -11.000
457.860;  -62.225;   87.000;   44.000
457.981;  -50.500;  132.000;  124.000
458.101;  -81.000;  -89.000;   40.000
458.221;  -11.900;  336.000;  402.000
458.342;  -63.000;   -4.000;  -37.000
458.462;   14.925;  617.000;  352.000
458.582;  -36.150; -302.000; -294.000
458.703;    6.375;  303.000;  154.000
458.823;  -35.425;   22.000;  163.000
458.943;   13.400;  341.000;  467.000
459.063;  -17.800; 1124.000;  192.000
459.183;  -24.075;  328.000;  313.000
459.304;   -5.875;  315.000;  517.000
459.424;  -69.375; -246.000;  -89.000
459.544;  319.975;  388.000;  764.000
459.664;  816.150;  499.000;  506.000
459.784;  323.750; 1004.000; 1175.000
459.904;   53.150;  867.000;  744.000
460.024;   69.000;  867.000;  684.000
460.144;   -1.675;  449.000;  554.000
460.264;  -18.875;  515.000;  327.000
460.385;  -99.025; -145.000; -119.000
460.505;   23.425;  905.000;  858.000
460.625;  -96.325;  -17.000;  -68.000
460.745;  -39.200;  396.000;  541.000
460.864;  -66.850;  153.000;  469.000
460.984;   -1.150;  499.000;  573.000
461.104;  123.400; 1656.000; 1775.000
461.224;   14.150;  657.000;  650.000
461.344;  -38.600;  431.000;  360.000
461.464;  -40.300;  258.000;  513.000
461.584;  -30.025;  283.000;  466.000
461.704;  -56.825;   58.000;  108.000
461.824;  -74.625;  238.000;  259.000
461.943;  -37.975;  191.000;  130.000
462.063;  -90.050;    2.000;  324.000
462.183;   22.450;  639.000;  717.000
462.303;   79.850; 1678.000; 1230.000
462.422;   26.925;  781.000;  840.000
462.542;  -48.600;  271.000;  391.000
462.662;   42.150;  353.000;  380.000
462.782;  228.400;  833.000;  572.000
462.901;  480.025;  545.000;  717.000
463.021;  289.850; 1702.000; 1638.000
463.141;  -12.000;  337.000;  770.000
463.260;  -23.225;  614.000;  474.000
463.380;    1.525;  902.000;  884.000
463.499;  -47.400;  342.000;  332.000
463.619;  -44.125;  581.000;  559.000
463.738;   86.525; 1644.000;  903.000
463.858;    3.100;  657.000;  811.000
463.978;  -43.675;  542.000;  396.000
464.097;   28.150;  921.000; 1114.000
464.217;  107.000; 1196.000; 1143.000
464.336;  106.475; 1068.000; 1130.000
464.455;  -38.700;  328.000;  659.000
464.575;   16.450;  597.000;  602.000
464.694;  169.550; 1204.000; 1179.000
464.814;  117.325; 1190.000; 1138.000
464.933;   74.300; 1095.000; 1027.000
465.052;   97.275; 1412.000; 1054.000
465.172;   80.075;  922.000;  799.000
465.291;  130.150; 1376.000; 1320.000
465.410;  -11.950;  462.000;  735.000
465.530;   70.125; 1355.000; 1310.000
465.649;   69.175; 1209.000; 1273.000
465.768;  119.500; 1673.000; 1508.000
465.888;   47.025;  941.000; 1174.000
466.007;   74.325; 1335.000; 1440.000
466.126;  -30.275;  721.000;  641.000
466.245;   35.800; 1176.000; 1187.000
466.364;   35.675;  950.000; 1060.000
466.484;   51.850; 1024.000; 1213.000
466.603;   40.275; 1101.000; 1222.000
466.722;  121.525; 1490.000; 1769.000
466.841;   60.625; 1151.000; 1401.000
466.960;   35.900; 1069.000;  972.000
467.079;  125.225; 1971.000; 1786.000
467.198;   37.600; 1238.000; 1181.000
467.317;   79.600; 1768.000; 1162.000
467.436;   63.775; 1709.000; 1261.000
467.555;  125.725; 1796.000; 1746.000
467.674;   62.925; 1227.000; 1329.000
467.793;   32.275; 1376.000; 1374.000
467.912;   68.000; 1658.000; 1539.000
468.031;  132.100; 2038.000; 1930.000
468.150;  141.800; 1842.000; 1837.000
468.269;  179.600; 2313.000; 2090.000
468.388;  171.950; 2168.000; 2339.000
468.507;  239.175; 2884.000; 2903.000
468.626;  265.950; 2555.000; 2541.000
468.744;  140.800; 2018.000; 2174.000
468.863;  205.175; 2312.000; 2523.000
468.982;   86.475; 1503.000; 1555.000
469.101;  212.325; 2788.000; 2692.000
469.220;  151.400; 2333.000; 2176.000
469.338;  255.100; 2935.000; 3051.000
469.457;  193.100; 2719.000; 2545.000
469.576;  339.075; 3953.000; 3784.000
469.695;  245.325; 2877.000; 3066.000
469.813;  423.725; 4148.000; 4192.000
469.932;  419.575; 4255.000; 4485.000
470.051;  410.600; 4075.000; 4161.000
470.169;  829.450; 4470.000; 4338.000
470.288; 1474.525; 4700.000; 4809.000
470.406;  897.225; 5059.000; 5194.000
470.525;  645.425; 6101.000; 5787.000
470.644;  646.500; 6847.000; 6794.000
470.762;  825.025; 8397.000; 7873.000
470.881;  901.575; 8651.000; 8464.000
470.999; 1058.400; 9685.000; 9151.000
471.118; 1081.650;11174.000;10711.000

