
Integration time [ms]: 100.000
Averaging Nr. [scans]: 40
Smoothing Nr. [pixels]: 0
Data measured with spectrometer [name]: 2101012U2
Wave   ;Sample   ;Dark     ;Reference
[nm]   ;[counts] ;[counts] ;[counts] 

197.733;   54.950;  516.000;  404.000
197.879;  -85.075; -610.000; -634.000
198.025;  -44.075; -475.000; -420.000
198.171;  -65.000; -602.000; -612.000
198.317;  -35.900; -401.000; -316.000
198.463;  -58.250; -655.000; -404.000
198.609;   24.550;  181.000; -137.000
198.755;  -86.275; -644.000; -410.000
198.901;  -56.425; -505.000; -424.000
199.047;  -66.950; -615.000; -488.000
199.193;  -36.600; -230.000; -468.000
199.339;  -42.675; -222.000; -369.000
199.485;   47.400;  330.000;  271.000
199.631;   17.100;  227.000;  310.000
199.777;  -46.000; -466.000; -398.000
199.923;  -54.725; -610.000; -424.000
200.069;    2.175; -141.000;  -58.000
200.215;   55.600;  128.000;  453.000
200.361;   44.325;  243.000;  477.000
200.507;  -61.725; -600.000; -373.000
200.653;  -24.050; -371.000; -194.000
200.798;  -39.175; -215.000; -125.000
200.944;   13.775; -146.000;  -41.000
201.090;   26.950;   61.000;  222.000
201.236;    0.225; -116.000; -158.000
201.382;  129.675;  874.000;  903.000
201.528;   12.175;  -58.000;  -48.000
201.674;  -51.300; -386.000; -293.000
201.819;  -54.650; -540.000; -439.000
201.965;  -87.450; -699.000; -447.000
202.111;  -14.975; -273.000; -226.000
202.257;  -40.625; -250.000; -238.000
202.402;    9.375;   13.000;  -36.000
202.548;  -18.125; -169.000; -116.000
202.694;   87.200;  410.000; -183.000
202.840;  -81.625; -603.000; -531.000
202.985;  -63.925; -681.000; -639.000
203.131; -114.550; -832.000; -666.000
203.277;   -7.725; -199.000; -262.000
203.423;  -53.175; -434.000; -520.000
203.568;  -34.500; -462.000; -237.000
203.714;  -60.925; -535.000; -542.000
203.860;  -64.050; -682.000; -641.000
204.005;    6.525;  112.000;  167.000
204.151;   81.300;  561.000;  556.000
204.296;  -51.625; -354.000; -221.000
204.442;  -64.450; -600.000; -547.000
204.588;  -88.325; -592.000; -579.000
204.733;   28.125;  178.000;  168.000
204.879; -130.650;-1018.000; -822.000
205.025;    3.375;  -99.000;  126.000
205.170;   -9.400;  -17.000;   94.000
205.316;   89.075;  438.000;  661.000
205.461;  -91.050; -698.000; -554.000
205.607;   87.675;  609.000;  665.000
205.752;  -82.175; -626.000; -551.000
205.898;  -55.825; -501.000; -391.000
206.043;  -54.775; -578.000; -506.000
206.189;  -49.050; -243.000; -285.000
206.334;   90.725;  554.000;  606.000
206.480;   93.900;  409.000;  239.000
206.625;  -77.925; -529.000; -552.000
206.771;  -51.050; -451.000; -373.000
206.916;  -29.975; -210.000; -537.000
207.062;  -64.325; -545.000; -591.000
207.207;  -67.200; -546.000; -443.000
207.353;   50.825;  185.000;  460.000
207.498;    3.300;  196.000;   85.000
207.643;  -47.075; -501.000; -370.000
207.789; -135.200;-1069.000; -910.000
207.934;  -97.900; -665.000; -713.000
208.080;  -29.475; -154.000;   66.000
208.225;   -3.150;  -22.000;  -57.000
208.370;  -94.300; -727.000; -619.000
208.516;  -66.875; -741.000; -487.000
208.661;  -31.250; -127.000;  -69.000
208.806;   -8.875; -165.000; -171.000
208.952; -132.875;-1044.000; -731.000
209.097;   81.875;  378.000;  349.000
209.242;  -47.275; -307.000; -382.000
209.387;   77.025;  392.000;  350.000
209.533;  -47.025; -321.000; -350.000
209.678;   86.575;  472.000;  543.000
209.823;  -54.250; -408.000; -310.000
209.969;  -99.325; -860.000; -757.000
210.114; -101.700; -907.000; -719.000
210.259; -116.100; -939.000; -889.000
210.404;  -14.025; -171.000;  103.000
210.549;   20.100;  108.000;    3.000
210.695;  -21.050;   -3.000;  -95.000
210.840;   29.125;   94.000;   67.000
210.985;  -64.050; -484.000; -303.000
211.130;   78.300;  268.000;  406.000
211.275;   14.925;  207.000;  199.000
211.420;  -36.850; -300.000; -289.000
211.566;  -72.575; -536.000; -489.000
211.711;   26.400;  218.000;  157.000
211.856;  -78.075; -545.000; -519.000
212.001;   15.725;  151.000;   44.000
212.146;   14.375;  153.000;   49.000
212.291;  -12.525; -210.000; -186.000
212.436;  -20.525; -280.000;   -6.000
212.581;  -74.100; -685.000; -653.000
212.726;  -85.025; -487.000; -538.000
212.871;  -51.150; -552.000; -217.000
213.016; -153.550;-1172.000;-1029.000
213.161;   68.400;  406.000;  291.000
213.306;  -83.000; -435.000; -577.000
213.451;  -94.050; -778.000; -689.000
213.596;  -48.275; -455.000; -347.000
213.741;  -56.600; -448.000; -538.000
213.886;  -81.275; -498.000; -517.000
214.031;  -18.150; -294.000; -124.000
214.176;  -54.825; -408.000; -341.000
214.321;   -4.850; -296.000; -157.000
214.466;  -37.975; -163.000;  -43.000
214.611;   -2.700;  -61.000;  -10.000
214.756; -121.300; -948.000; -858.000
214.901;  -23.175; -388.000; -226.000
215.046; -117.950; -797.000; -825.000
215.191;   18.150;  128.000;   35.000
215.336;  -22.950; -157.000;  -19.000
215.480;  -70.300; -684.000; -505.000
215.625;  -14.725; -175.000;  -19.000
215.770;  -73.225; -757.000; -662.000
215.915;  -13.225;   -5.000;  -97.000
216.060;    7.425; -113.000;  -21.000
216.205; -122.225; -731.000; -779.000
216.349;  -67.925; -470.000; -533.000
216.494; -129.525; -939.000; -867.000
216.639; -112.750; -823.000; -888.000
216.784;  -85.950; -577.000; -525.000
216.929;   46.350;  392.000;  281.000
217.073;   -8.450; -244.000;  -31.000
217.218;   12.225;   78.000;  -47.000
217.363;  -87.100; -656.000; -618.000
217.507;  -70.475; -623.000; -588.000
217.652; -137.250; -845.000; -874.000
217.797;  -81.125; -708.000; -659.000
217.942; -110.275; -856.000; -720.000
218.086;   83.950;  608.000;  539.000
218.231;  -13.925; -174.000;  -26.000
218.376;  -35.100; -337.000; -229.000
218.520;   -0.450;  -41.000;   96.000
218.665;  -32.700; -338.000; -204.000
218.810;  -39.000; -275.000; -233.000
218.954;   19.675;  201.000;   35.000
219.099; -108.050; -713.000; -963.000
219.243;  -62.950; -589.000; -554.000
219.388;  -35.175; -264.000; -136.000
219.532;   -9.250; -116.000; -116.000
219.677;  -87.375; -564.000; -521.000
219.822;   21.425;   33.000;   89.000
219.966;  -11.100;   17.000;  -99.000
220.111;  -31.625; -328.000;  -40.000
220.255; -103.075; -797.000; -750.000
220.400;  -17.475; -180.000; -146.000
220.544;  -73.075; -516.000; -450.000
220.689;  -50.375; -422.000; -451.000
220.833;  -25.350; -123.000;  -58.000
220.978;  -32.775; -393.000; -563.000
221.122;   22.025;  319.000;  307.000
221.267; -103.650; -906.000; -837.000
221.411;  -64.375; -478.000; -394.000
221.555;   -1.675; -104.000;  -23.000
221.700;  -53.975; -329.000; -222.000
221.844;   24.975;  255.000;  272.000
221.989;  -41.375; -328.000; -311.000
222.133;  -30.575; -289.000; -307.000
222.277;  -12.325;    5.000;   78.000
222.422;   19.250;  227.000;  113.000
222.566;  -43.075; -381.000; -214.000
222.711;  -42.100; -414.000; -479.000
222.855;  -86.100; -643.000; -586.000
222.999;  -89.800; -642.000; -717.000
223.144;  -31.375; -195.000; -194.000
223.288;   42.950;  423.000;  251.000
223.432;   37.225;  184.000;  230.000
223.576;   19.425;  152.000;  -21.000
223.721;   24.475;  364.000;  273.000
223.865;  -56.850; -472.000; -475.000
224.009;  236.150; 1673.000; 1631.000
224.153;  -79.450; -660.000; -671.000
224.298;  -68.325; -531.000; -489.000
224.442;   -0.300;  -74.000;  -33.000
224.586;  -18.875; -169.000; -106.000
224.730;  -94.550; -858.000; -670.000
224.875; -115.750; -739.000; -688.000
225.019;    8.700;  102.000;  188.000
225.163;   53.275;  208.000;  341.000
225.307;   45.450;   97.000;  -91.000
225.451;   33.075;  360.000;  481.000
225.595;   29.975;  264.000;  176.000
225.739;  -20.425; -170.000;  -94.000
225.884;    6.325;   86.000;    5.000
226.028; -106.325; -760.000; -626.000
226.172;  -45.975; -260.000; -273.000
226.316; -124.450; -941.000; -902.000
226.460;  -64.850; -645.000; -493.000
226.604;  -54.400; -406.000; -400.000
226.748; -100.500; -836.000; -733.000
226.892;  -46.650; -227.000; -181.000
227.036;  -53.275; -537.000; -447.000
227.180;  -57.050; -551.000; -375.000
227.324;  -60.425; -561.000; -580.000
227.468; -121.900; -819.000; -717.000
227.612;    4.000;  242.000;  -28.000
227.756;  -92.750; -845.000; -698.000
227.900;   71.825;  342.000;  441.000
228.044;  -59.075; -509.000; -290.000
228.188;   70.875;  448.000;  568.000
228.332;  -83.300; -546.000; -472.000
228.476;  -22.300; -223.000; -149.000
228.620;  -33.050; -210.000; -150.000
228.764;   77.600;  431.000;  349.000
228.908;  -23.700; -155.000;   30.000
229.052;  -55.300; -615.000; -528.000
229.195;  -23.575; -172.000;   13.000
229.339;  -25.550; -235.000; -305.000
229.483;  -25.600;    5.000; -162.000
229.627;    9.275; -156.000;  139.000
229.771;  -58.050; -218.000; -294.000
229.915;    5.150;  230.000;   79.000
230.059;  -94.825; -648.000; -663.000
230.202;  -43.075; -370.000; -317.000
230.346;   -8.025; -107.000;  107.000
230.490;  -64.725; -489.000; -521.000
230.634; -116.700; -736.000; -553.000
230.777;   71.950;  478.000;  509.000
230.921;  -46.650; -450.000; -359.000
231.065;  -24.525; -246.000; -286.000
231.209;   13.800;  261.000;  265.000
231.352;   23.225;   54.000;   40.000
231.496;   12.550;  568.000;  188.000
231.640;  -76.675; -693.000; -621.000
231.783;   62.950;  546.000;  525.000
231.927;  -40.300; -294.000; -365.000
232.071; -124.625; -962.000; -736.000
232.214; -102.550; -980.000; -764.000
232.358;  -94.500; -683.000; -599.000
232.502;    9.500;  -19.000;    7.000
232.645; -145.675;-1090.000; -927.000
232.789;  -27.950; -257.000; -218.000
232.933;  -41.875; -407.000; -224.000
233.076; -130.500;-1038.000; -897.000
233.220;  -96.775; -752.000; -777.000
233.363;  -79.375; -669.000; -477.000
233.507;   54.550;  371.000;  129.000
233.650; -100.100; -764.000; -834.000
233.794;   51.000;  438.000;  461.000
233.938;  -40.025; -530.000; -362.000
234.081;  -25.700;  -93.000;   31.000
234.225;  -63.675; -631.000; -539.000
234.368; -112.025; -773.000; -723.000
234.512;  -40.625; -385.000; -299.000
234.655;  -88.350; -582.000; -555.000
234.798;  -73.175; -493.000; -466.000
234.942; -132.300; -884.000;-1002.000
235.085;  -69.850; -651.000; -443.000
235.229;  -66.475; -405.000; -410.000
235.372;  -44.900; -247.000; -191.000
235.516;  -58.875; -397.000; -321.000
235.659;   23.375;   92.000;  121.000
235.802;  -22.150;  -38.000;  -22.000
235.946;   37.700;  335.000;  215.000
236.089;   12.250;  126.000;  250.000
236.233;   51.875;  275.000;  298.000
236.376;  -65.000; -235.000; -378.000
236.519;  -37.300; -297.000; -319.000
236.663;  -26.775; -215.000; -117.000
236.806; -137.375;-1029.000; -999.000
236.949;   60.600;  543.000;  431.000
237.092;   61.925;  412.000;  391.000
237.236;  -84.925; -589.000; -502.000
237.379;   79.175;  352.000;  428.000
237.522; -126.225; -879.000; -768.000
237.666;   -0.225; -271.000;   18.000
237.809; -135.850; -851.000; -823.000
237.952;   32.300;  469.000;  271.000
238.095;  -75.950; -447.000; -442.000
238.238;   86.200;  688.000;  700.000
238.382;    1.725;  166.000;  103.000
238.525;  -47.700; -598.000; -511.000
238.668; -144.850;-1060.000; -985.000
238.811;  -82.200; -638.000; -643.000
238.954;  -48.525; -483.000; -334.000
239.097;   88.775;  617.000;  664.000
239.241;   13.600;  394.000;  326.000
239.384;  -40.675; -254.000; -214.000
239.527;  -52.125; -424.000; -224.000
239.670; -143.350; -994.000;-1091.000
239.813; -116.875; -696.000; -658.000
239.956;   77.225;  579.000;  473.000
240.099; -110.325; -778.000; -725.000
240.242;   62.100;  428.000;  432.000
240.385;   44.225;  466.000;  450.000
240.528;  -73.025; -706.000; -473.000
240.671;   12.575;  189.000;  134.000
240.814;  -41.000; -441.000; -158.000
240.957;  -99.250; -767.000; -578.000
241.100;  -95.625; -779.000; -755.000
241.243; -148.400;-1234.000; -893.000
241.386;  -45.800; -508.000; -379.000
241.529;  -94.700; -735.000; -547.000
241.672;  -59.000; -566.000; -495.000
241.815; -132.525; -832.000; -808.000
241.958;  -15.625; -125.000; -182.000
242.101;  -85.000; -545.000; -390.000
242.244;  -36.925; -270.000; -325.000
242.387;  -52.525; -304.000; -246.000
242.530;   78.250;  470.000;  134.000
242.673;  -45.625; -381.000; -309.000
242.815; -116.950; -925.000; -899.000
242.958;  -73.275; -482.000; -381.000
243.101;   20.900;  132.000;  187.000
243.244;  -76.900; -564.000; -521.000
243.387;  -38.725; -313.000; -316.000
243.530;  -99.525; -657.000; -674.000
243.672;   16.100;   43.000;  -92.000
243.815;  -68.700; -355.000; -283.000
243.958;    3.025;   98.000;  -26.000
244.101;   15.800;   59.000;  -16.000
244.243;  -19.750;  -47.000;  101.000
244.386; -112.675; -761.000; -630.000
244.529;  -21.700; -132.000; -139.000
244.672; -148.900;-1154.000; -951.000
244.814;  -83.950; -621.000; -794.000
244.957;  -50.600; -380.000; -304.000
245.100;  -63.825; -489.000; -489.000
245.242;  -54.775; -387.000; -374.000
245.385;   -1.500;  -59.000;  -39.000
245.528; -122.175; -871.000; -705.000
245.670;  101.350;  612.000;  634.000
245.813;  -90.375; -599.000; -547.000
245.956;  -28.775; -324.000; -275.000
246.098;  -62.400; -508.000; -650.000
246.241;   14.175;  194.000;   48.000
246.383;   -8.775; -119.000;  -73.000
246.526;  -69.850; -454.000; -525.000
246.669; -115.850; -889.000; -780.000
246.811;   18.100;  172.000;   -1.000
246.954;  -59.300; -512.000; -426.000
247.096;  -15.350;  -84.000;   -6.000
247.239;  -72.825; -482.000; -445.000
247.381;  -65.100; -647.000; -488.000
247.524;   80.025;  645.000;  679.000
247.666;   -0.850;   58.000;   11.000
247.809; -119.975; -887.000; -691.000
247.951;   -4.175;  -75.000;  138.000
248.094;   16.125;  432.000;  308.000
248.236; -137.825;-1262.000;-1238.000
248.378;   -4.450; -356.000;  -81.000
248.521;  -11.850; -334.000; -337.000
248.663;  -51.375; -236.000; -267.000
248.806;  -26.775; -300.000; -266.000
248.948; -100.900; -886.000; -763.000
249.090;  -35.800; -428.000; -398.000
249.233;  -48.075; -344.000; -381.000
249.375;  -52.750; -474.000; -451.000
249.518;  -24.475;  -83.000; -133.000
249.660;    7.100; -103.000;    3.000
249.802; -171.150;-1303.000;-1189.000
249.945;  -71.625; -612.000; -540.000
250.087; -108.425; -834.000; -768.000
250.229;  -44.650; -362.000; -480.000
250.371;  -69.450; -494.000; -439.000
250.514;  -49.500; -310.000; -244.000
250.656;   -5.700;   69.000;  102.000
250.798; -120.275; -849.000; -800.000
250.940;  -67.850; -322.000; -322.000
251.083;  -22.400; -335.000; -111.000
251.225;   53.600;  338.000;  310.000
251.367;  -39.750; -274.000; -373.000
251.509;  -31.950; -265.000; -210.000
251.651; -105.475; -731.000; -671.000
251.794;   53.725;  538.000;  632.000
251.936; -110.575; -821.000; -747.000
252.078;  -67.825; -540.000; -461.000
252.220;  -63.575; -645.000; -477.000
252.362;   78.875;  344.000;  462.000
252.504;  -64.050; -677.000; -584.000
252.646; -116.700; -875.000; -722.000
252.788;   -0.025;   14.000; -128.000
252.931;  -27.875; -257.000; -253.000
253.073;  -30.950; -376.000; -317.000
253.215;   -5.750;  141.000;  122.000
253.357;   -5.250;   82.000; -153.000
253.499;  -59.000; -374.000; -234.000
253.641;  -83.675; -749.000; -594.000
253.783;  -90.875; -609.000; -527.000
253.925;  -91.125; -586.000; -591.000
254.067; -111.675; -744.000; -667.000
254.209;  -34.150; -391.000; -259.000
254.351; -142.250; -865.000; -883.000
254.493;  -55.300; -441.000; -417.000
254.635; -130.475; -936.000; -818.000
254.777;  -86.975; -752.000; -687.000
254.918;  -61.850; -512.000; -430.000
255.060;  -56.075; -551.000; -395.000
255.202;  -66.325; -473.000; -261.000
255.344;  -82.950; -658.000; -455.000
255.486;  -74.925; -471.000; -406.000
255.628;  -99.975; -780.000; -781.000
255.770;  -87.300; -676.000; -536.000
255.912;  -61.150; -559.000; -468.000
256.053;  -92.400; -730.000; -508.000
256.195;  151.900; 1008.000;  903.000
256.337; -108.500; -861.000; -595.000
256.479;   78.525;  532.000;  416.000
256.621;  -56.425; -394.000; -212.000
256.762;  -91.725; -789.000; -742.000
256.904;   56.450;  485.000;  487.000
257.046;  -31.975; -381.000; -271.000
257.188;  -53.375; -351.000; -264.000
257.329;  -80.725; -525.000; -464.000
257.471; -129.950; -939.000; -807.000
257.613;  -46.175; -584.000; -498.000
257.755; -147.350;-1073.000; -982.000
257.896;   44.525;  286.000;  392.000
258.038;  -75.875; -403.000; -352.000
258.180;  -37.950; -354.000; -279.000
258.321;  -89.025; -581.000; -457.000
258.463;   -4.000;  -71.000;  133.000
258.605;  -94.075; -562.000; -570.000
258.746; -113.350; -886.000; -772.000
258.888; -148.125;-1026.000;-1020.000
259.029;   16.475;  121.000;   -8.000
259.171;  -84.550; -614.000; -550.000
259.313;    3.700;  -49.000;  -47.000
259.454;  -67.725; -536.000; -414.000
259.596;  -58.025; -483.000; -390.000
259.737;  -78.500; -590.000; -474.000
259.879;   40.375;  217.000;  311.000
260.020;   98.200;  901.000;  636.000
260.162;  -37.150; -146.000; -253.000
260.303; -132.675; -768.000; -687.000
260.445;  -76.475; -609.000; -613.000
260.586;   26.400;  392.000;  157.000
260.728;  -33.950; -360.000; -248.000
260.869;  -84.400; -350.000; -343.000
261.011;   70.025;  706.000;  537.000
261.152;  -71.575; -479.000; -319.000
261.293;  -73.650; -576.000; -595.000
261.435;  -30.275; -219.000; -184.000
261.576;  -53.025; -455.000; -325.000
261.718;   61.750;  420.000;  470.000
261.859; -123.825; -940.000; -949.000
262.000; -138.700; -951.000;-1016.000
262.142;  -13.900;  -52.000;  -60.000
262.283; -112.475; -808.000; -691.000
262.424;  -79.925; -666.000; -625.000
262.566; -169.075;-1161.000; -983.000
262.707; -114.625; -840.000; -830.000
262.848; -120.975; -769.000; -726.000
262.990;  -34.100; -362.000; -345.000
263.131;   74.400;  650.000;  681.000
263.272;  -10.400;  -61.000;  -41.000
263.413;  -85.975; -589.000; -561.000
263.555;  -68.375; -669.000; -143.000
263.696;  -88.625; -550.000; -641.000
263.837;  -52.325; -449.000; -551.000
263.978;  -14.700;   -5.000;  -77.000
264.119;  -38.525; -283.000; -264.000
264.261; -120.200; -847.000; -630.000
264.402;   12.100;   33.000;   40.000
264.543;  -79.725; -509.000; -524.000
264.684;   -3.150;   61.000;  -50.000
264.825;  -67.675; -816.000; -538.000
264.966;  -12.150;  -84.000;  -67.000
265.107; -122.300; -646.000; -670.000
265.248; -106.950; -825.000; -812.000
265.390;  -12.975;  152.000;   -9.000
265.531;  -16.575; -238.000; -107.000
265.672;  -90.000; -557.000; -630.000
265.813;   70.900;  563.000;  439.000
265.954; -144.425; -959.000; -940.000
266.095;  -19.875; -372.000; -322.000
266.236; -106.850; -686.000; -548.000
266.377;  -45.875; -243.000; -297.000
266.518;  -70.500; -619.000; -547.000
266.659;   28.925;  170.000;  268.000
266.800;    6.050;   83.000;   85.000
266.941;  -79.200; -487.000; -478.000
267.082;   25.650;  354.000;   99.000
267.223;  -39.700; -344.000; -273.000
267.364; -123.900; -892.000; -686.000
267.504;  -11.800;    3.000;  135.000
267.645;    0.325;  160.000;   67.000
267.786;  -22.200; -147.000;  -86.000
267.927;  -88.550; -473.000; -379.000
268.068;  -12.875; -186.000;  -61.000
268.209;  -45.925; -175.000; -413.000
268.350;  -58.475; -388.000; -532.000
268.490;  -87.850; -648.000; -521.000
268.631;   31.625;  127.000;  225.000
268.772; -127.175; -874.000; -647.000
268.913;  -43.175; -328.000; -476.000
269.054;  -29.375; -117.000;   12.000
269.194;  -48.125; -418.000; -402.000
269.335; -149.675;-1137.000;-1074.000
269.476;  -18.450;   33.000;  -35.000
269.617;  -55.850; -347.000; -392.000
269.757;  -86.975; -713.000; -646.000
269.898; -120.600; -856.000; -613.000
270.039;  -51.100; -415.000; -405.000
270.180; -148.000; -952.000; -816.000
270.320;   -9.600; -190.000; -250.000
270.461;  -23.225; -277.000; -249.000
270.602;  -15.700; -186.000; -156.000
270.742; -124.600; -868.000; -943.000
270.883;  -34.800; -442.000; -390.000
271.023;  -58.875; -358.000; -357.000
271.164;  -68.900; -607.000; -528.000
271.305; -104.450; -666.000; -654.000
271.445;  -85.075; -722.000; -683.000
271.586;  -74.500; -462.000; -283.000
271.726;  -45.300; -397.000; -322.000
271.867;  -56.075; -594.000; -534.000
272.008;  193.975; -473.000; -285.000
272.148;  130.325;  462.000;  468.000
272.289;   17.450; -113.000; -181.000
272.429;   10.275;   19.000;  185.000
272.570;  -93.425; -633.000; -737.000
272.710; -106.750; -825.000; -775.000
272.851;  -18.550;  113.000; -130.000
272.991; -156.725;-1173.000;-1077.000
273.131;  -60.600; -419.000; -459.000
273.272; -106.450; -683.000; -723.000
273.412;   22.100; -143.000;  -31.000
273.553;  -53.450; -488.000; -507.000
273.693;  138.650;  913.000;  858.000
273.834;  -95.925; -894.000; -692.000
273.974;  -69.275; -664.000; -615.000
274.114; -104.700; -772.000; -560.000
274.255;   75.500;  414.000;  373.000
274.395;    0.225; -180.000; -125.000
274.535;   46.250;  199.000;  350.000
274.676;   27.525;  225.000;   94.000
274.816;   14.200;  110.000;   34.000
274.956;  -78.675; -624.000; -690.000
275.097;  -69.075;-1014.000; -922.000
275.237; -116.550; -913.000; -803.000
275.377;  -90.475; -778.000; -689.000
275.517; -151.125; -878.000; -937.000
275.658;  -47.050; -590.000; -555.000
275.798;  -80.225; -606.000; -413.000
275.938;   18.625;  215.000;  323.000
276.078; -109.425; -626.000; -395.000
276.218;    8.900;   99.000;  104.000
276.359; -137.725;-1026.000;-1024.000
276.499;  -59.275; -605.000; -446.000
276.639;  -35.825; -305.000; -151.000
276.779;  -30.750; -475.000; -357.000
276.919;  -93.500; -783.000; -624.000
277.059;  -16.075; -261.000; -212.000
277.199;  -49.125; -357.000; -259.000
277.340;   49.675;  287.000;  175.000
277.480; -121.975; -840.000; -693.000
277.620;   26.000;  192.000;   16.000
277.760; -205.350;-1533.000;-1294.000
277.900;   21.275;  113.000;   33.000
278.040;   10.000;  137.000;  159.000
278.180;   45.800;  270.000;  170.000
278.320;  -15.925;   21.000;   56.000
278.460;  -68.750; -443.000; -469.000
278.600;  -83.925; -708.000; -598.000
278.740;   51.350;  448.000;  224.000
278.880;  -59.475; -768.000; -791.000
279.020;  -13.800; -194.000; -144.000
279.160;  -90.950; -672.000; -595.000
279.300; -118.375; -926.000; -873.000
279.440; -104.025; -709.000; -622.000
279.579;  -19.650;-1014.000; -929.000
279.719;  -47.950; -410.000; -394.000
279.859;   74.075;   -4.000;   41.000
279.999;   23.000; -208.000;  101.000
280.139;  -10.400; -435.000; -387.000
280.279;  -70.150; -708.000; -745.000
280.419;   -8.675; -229.000; -147.000
280.559;  -35.575; -259.000; -180.000
280.698;  -72.275; -790.000; -639.000
280.838; -104.250; -778.000; -800.000
280.978;  -93.700; -846.000; -790.000
281.118; -115.275; -811.000; -704.000
281.257;    6.050;   24.000;    6.000
281.397; -124.625;-1094.000; -960.000
281.537;  -90.700; -599.000; -712.000
281.677;  -22.050; -150.000; -101.000
281.816;  -82.775; -700.000; -630.000
281.956;  -53.600; -193.000; -257.000
282.096;  -63.575; -539.000; -396.000
282.235; -112.725; -672.000; -638.000
282.375;  -14.550; -243.000;  -98.000
282.515; -103.400; -715.000; -707.000
282.654;   34.100;   29.000;  106.000
282.794;   23.800;  388.000;  244.000
282.934;  -44.150; -530.000; -491.000
283.073; -140.475;-1030.000; -857.000
283.213;  -50.600; -460.000; -467.000
283.353;  -53.350; -408.000; -349.000
283.492;  -25.375; -264.000; -296.000
283.632;  -45.500; -254.000; -168.000
283.771;  -80.875; -859.000; -730.000
283.911;  -57.100; -369.000; -260.000
284.050; -111.475; -794.000; -748.000
284.190; -171.575;-1229.000;-1096.000
284.329; -131.550;-1055.000; -964.000
284.469;  -63.600; -516.000; -591.000
284.608;  -49.275; -559.000; -598.000
284.748;  -93.625; -614.000; -570.000
284.887;   -7.400;  -87.000;  -20.000
285.027; -126.475; -844.000; -892.000
285.166;  -32.475; -192.000; -249.000
285.306;    4.175; -116.000;  -33.000
285.445;  -35.350; -229.000; -343.000
285.584;  -99.100; -630.000; -494.000
285.724;  -27.875; -282.000; -322.000
285.863; -125.725; -857.000; -507.000
286.002;  -55.700; -366.000; -276.000
286.142; -113.700; -715.000; -622.000
286.281;  -68.900; -525.000; -493.000
286.420;  -84.125; -554.000; -417.000
286.560;   88.250;  653.000;  623.000
286.699; -141.325; -958.000; -912.000
286.838;  -71.875; -590.000; -591.000
286.978;  -93.800; -533.000; -537.000
287.117; -134.475;-1085.000; -950.000
287.256;  -30.475; -228.000; -211.000
287.395;  -53.350; -197.000; -378.000
287.535;  -51.550; -370.000; -298.000
287.674;  -64.900; -509.000; -484.000
287.813;   52.800;  661.000;  533.000
287.952; -125.750;-1010.000; -871.000
288.091; -153.275;-1049.000; -915.000
288.231;   25.900;   13.000;   15.000
288.370; -174.450;-1217.000;-1200.000
288.509;  -86.425; -728.000; -645.000
288.648;  -92.550; -770.000; -548.000
288.787;  -27.100; -243.000;  -87.000
288.926;  -61.800; -454.000; -475.000
289.065;  123.650;  859.000;  672.000
289.204;  -61.400; -377.000; -217.000
289.344;  -79.575; -791.000; -690.000
289.483;    2.900;  416.000;  304.000
289.622;  -27.500; -291.000; -149.000
289.761;   -9.750; -309.000; -166.000
289.900;  -99.000; -785.000; -626.000
290.039;  -21.025;  -12.000;  -95.000
290.178;  -33.950; -274.000; -180.000
290.317;  -83.125; -618.000; -479.000
290.456;  -51.600; -463.000; -451.000
290.595; -146.600; -961.000; -833.000
290.734; -146.375; -904.000; -891.000
290.873;  -65.925; -456.000; -420.000
291.011;  -96.600; -833.000; -843.000
291.150; -106.100; -770.000; -682.000
291.289;   -8.050; -343.000; -110.000
291.428; -124.175; -599.000; -480.000
291.567;  -57.150; -370.000; -442.000
291.706;   -6.225;  109.000;  154.000
291.845;  -87.600; -597.000; -505.000
291.984; -171.800;-1234.000;-1061.000
292.122;   70.550;  602.000;  582.000
292.261;   43.175;  620.000;  463.000
292.400;   11.875; -144.000;  211.000
292.539; -122.575; -959.000; -813.000
292.678;  -29.950; -325.000; -300.000
292.816; -161.850;-1136.000; -965.000
292.955;  -85.350; -844.000; -684.000
293.094;  -29.350; -173.000; -337.000
293.233;  -55.350; -556.000; -400.000
293.371;  -36.150; -225.000;  -84.000
293.510;  -96.625; -866.000; -780.000
293.649; -139.675; -959.000; -924.000
293.787;  -64.850;-1083.000;-1012.000
293.926;   -2.900; -113.000;  -32.000
294.065;  -45.000; -379.000; -290.000
294.203;   37.450;  298.000;  406.000
294.342;   33.125;   74.000;  156.000
294.481; 6255.400;51180.000; -836.000
294.619;  -27.050; -425.000; -582.000
294.758; -154.400;-1230.000;-1137.000
294.896;   56.975; -125.000;    5.000
295.035; -125.125;-1040.000;-1006.000
295.174; -117.725;-1082.000; -954.000
295.312;  -56.000; -323.000; -203.000
295.451;   -9.675; -307.000; -428.000
295.589;  -61.500; -389.000; -518.000
295.728;   25.175; -292.000; -165.000
295.866;   -5.050;  -36.000;  -51.000
296.005;  -70.925; -584.000; -341.000
296.143;  -78.875; -558.000; -596.000
296.282;  -89.700; -957.000; -881.000
296.420; -101.075; -657.000; -557.000
296.559;  -89.925; -892.000; -633.000
296.697;    7.050; -847.000; -665.000
296.835;   57.750;-1141.000;-1002.000
296.974;   40.100;  -23.000;   39.000
297.112;   13.875; -443.000; -504.000
297.251;  -88.825; -815.000; -755.000
297.389;   80.275; -576.000; -438.000
297.527;   31.175; -145.000;  -83.000
297.666;  -56.550; -486.000; -438.000
297.804;  -67.900; -404.000; -264.000
297.942;    1.425; -136.000; -161.000
298.081;    4.000; -183.000;   63.000
298.219;   73.325;  -17.000;  -19.000
298.357;   39.300; -144.000;  -71.000
298.495;   40.800; -810.000; -812.000
298.634;   54.450;  245.000;  219.000
298.772;   50.825; -220.000; -338.000
298.910;  -36.350; -309.000; -182.000
299.048;   -2.725; -130.000; -153.000
299.187;  -42.575; -350.000; -250.000
299.325;   14.000;   52.000;  122.000
299.463;   46.475; -389.000; -299.000
299.601;   88.850; -327.000; -271.000
299.739; -118.375; -908.000; -883.000
299.877;  -75.275; -791.000; -703.000
300.016;  -56.850;-1095.000; -935.000
300.154;  152.625;  -19.000; -161.000
300.292;   42.000; -428.000; -348.000
300.430;   36.825; -408.000; -291.000
300.568; -114.275; -940.000; -874.000
300.706;  -47.575; -366.000; -469.000
300.844;  -88.500;-1108.000; -979.000
300.982;  115.850;  246.000;  282.000
301.120; -110.825; -965.000; -866.000
301.258;  -66.525; -812.000; -705.000
301.396;   26.850;  104.000;  -41.000
301.534;   83.600; -218.000; -293.000
301.672;  -26.350; -664.000; -521.000
301.810;   19.625; -613.000; -545.000
301.948;  110.375;   53.000;  149.000
302.086;  599.425; -250.000;  -32.000
302.224;  886.325; -610.000; -585.000
302.362;   37.300; -558.000; -622.000
302.500;  -31.525; -923.000; -893.000
302.638;  101.775;  128.000;  245.000
302.776;   -5.450; -352.000; -408.000
302.913;   55.300;  447.000;  236.000
303.051;   -6.725;  -86.000;  -23.000
303.189;   42.950;   90.000;  118.000
303.327;  -33.400; -341.000; -256.000
303.465;  -86.025; -832.000; -588.000
303.603;  -99.775; -805.000; -604.000
303.740;  109.275;  417.000;  241.000
303.878;   18.400; -800.000; -759.000
304.016;  -96.725; -915.000; -790.000
304.154; -122.725;-1123.000;-1152.000
304.291;  -30.125; -505.000; -554.000
304.429;   10.825;  102.000;   74.000
304.567; -132.375; -908.000; -893.000
304.705;  -52.700; -408.000; -515.000
304.842;   98.775; -616.000; -540.000
304.980;   38.600;  215.000;   35.000
305.118;   26.275; -367.000; -365.000
305.255;  -88.625; -945.000; -927.000
305.393;   59.925;  178.000;  239.000
305.531; -108.025;-1173.000; -956.000
305.668;  -75.750; -663.000; -582.000
305.806;  102.425; -358.000; -439.000
305.943;   88.425; -629.000; -637.000
306.081;   39.875; -378.000; -267.000
306.219; -104.000; -863.000; -748.000
306.356;    8.025;  158.000;   27.000
306.494;  130.550;  981.000;  761.000
306.631;   -8.100;  -11.000;  -55.000
306.769;    6.625; -613.000; -485.000
306.906;  -28.650; -284.000; -258.000
307.044;  -64.250; -473.000; -488.000
307.181;  -74.875; -410.000; -332.000
307.319;    8.975;  112.000;   87.000
307.456; -170.525;-1191.000;-1153.000
307.594; -101.900; -980.000; -727.000
307.731;  -30.000; -371.000; -164.000
307.868;    4.900;  -15.000;   20.000
308.006; -139.400; -961.000; -847.000
308.143;  -67.875; -618.000; -330.000
308.281;  105.975;  -37.000; -254.000
308.418;  -29.025; -748.000; -640.000
308.555;  -77.625; -400.000; -250.000
308.693;  -80.725; -577.000; -573.000
308.830; -113.825; -712.000; -657.000
308.967;  -26.750; -215.000;  -95.000
309.105;  -52.250; -507.000; -396.000
309.242;    8.675; -468.000; -367.000
309.379;  235.325; -577.000; -655.000
309.517;  -57.575; -936.000; -948.000
309.654; -116.275; -910.000; -734.000
309.791;  -74.600; -662.000; -580.000
309.928; -123.125; -977.000; -914.000
310.065;  186.750;  819.000;  697.000
310.203;  -18.475; -825.000; -850.000
310.340;  -16.725; -465.000; -321.000
310.477;  -77.550; -412.000; -516.000
310.614;  -68.625; -383.000; -473.000
310.751;  -94.850; -427.000; -518.000
310.889;  -25.225;    1.000;   11.000
311.026; -157.775;-1161.000; -939.000
311.163;  -39.275; -386.000; -380.000
311.300;  -91.750; -512.000; -479.000
311.437;  -78.625; -658.000; -619.000
311.574; -156.875;-1226.000; -985.000
311.711;  -61.100; -595.000; -433.000
311.848;  -38.025; -380.000; -388.000
311.985;   14.075;  270.000;   93.000
312.122; -121.350; -932.000; -762.000
312.259; -125.050; -941.000; -994.000
312.396;  -85.300; -508.000; -551.000
312.533;  -77.225; -812.000; -790.000
312.670; -146.425;-1070.000; -898.000
312.807;  -36.125; -352.000; -367.000
312.944;  -85.625; -513.000; -611.000
313.081;  -10.425; -150.000; -415.000
313.218; -114.100;-1111.000; -867.000
313.355;   -2.600; -531.000; -449.000
313.492;    0.075; -455.000; -292.000
313.629;  129.850;  815.000;  735.000
313.766; -162.850;-1176.000;-1008.000
313.902;   -3.625; -186.000;   21.000
314.039;  -56.525; -372.000; -289.000
314.176;   34.075;  286.000;  192.000
314.313;  -84.650; -569.000; -473.000
314.450;  -65.600; -788.000; -684.000
314.587;  -67.275; -468.000; -480.000
314.723;   10.400;  -78.000;  130.000
314.860;   24.125;  318.000;  332.000
314.997;   38.400;  223.000;  142.000
315.134;  -54.175; -385.000; -368.000
315.270;  -28.525; -480.000; -496.000
315.407; -121.800;-1094.000; -967.000
315.544;  -56.225; -657.000; -538.000
315.681;  -59.700; -681.000; -565.000
315.817;   36.125; -133.000; -176.000
315.954;   -0.075; -613.000; -392.000
316.091; -122.400;-1045.000;-1023.000
316.227;  -41.400;  -71.000; -179.000
316.364;    0.075;   23.000;    6.000
316.500;  -44.625; -113.000; -300.000
316.637;  -48.550; -181.000; -302.000
316.774;  -82.075; -625.000; -358.000
316.910;  -90.500; -598.000; -629.000
317.047;  -66.700; -487.000; -351.000
317.183;  -44.425; -435.000; -566.000
317.320;  -24.300; -367.000; -321.000
317.456;  -59.425; -733.000; -805.000
317.593; -103.275; -598.000; -641.000
317.729;   15.600;  168.000;  -67.000
317.866; -194.400;-1434.000;-1285.000
318.002;  -95.275; -708.000; -948.000
318.139; -109.950; -883.000; -867.000
318.275; -111.100;-1003.000; -738.000
318.412;  -65.425; -517.000; -336.000
318.548;  -37.750; -751.000; -720.000
318.685; -100.250; -985.000; -888.000
318.821;  -93.425; -762.000; -735.000
318.957;  -14.375;   34.000;  -23.000
319.094;   40.700;  297.000;  154.000
319.230;  -77.550; -756.000; -742.000
319.367;  115.800; -471.000; -520.000
319.503;   50.500; -538.000; -436.000
319.639;  -95.550; -877.000; -793.000
319.775;  -72.075; -750.000; -685.000
319.912;  -51.525; -424.000; -519.000
320.048;  -95.375;-1184.000;-1184.000
320.184;   83.100;   59.000;   70.000
320.321;  -56.725; -497.000; -467.000
320.457;   58.175;  475.000;  662.000
320.593;  -86.625; -375.000; -382.000
320.729; -108.450; -732.000; -734.000
320.866;  -76.400; -577.000; -635.000
321.002;  -76.750; -759.000; -809.000
321.138;  -22.475; -135.000; -211.000
321.274;   64.600; -148.000; -115.000
321.410;  -41.175; -585.000; -353.000
321.546;  -32.750;-1011.000; -911.000
321.683;   55.425;  400.000;  185.000
321.819;    5.250;  -48.000; -117.000
321.955; -104.700; -743.000; -722.000
322.091;  -42.450; -585.000; -540.000
322.227;  -23.150; -382.000; -202.000
322.363;   -5.075; -320.000; -215.000
322.499;  -46.725; -343.000; -331.000
322.635;  156.000;  636.000;  443.000
322.771;   20.600; -139.000;   12.000
322.907;   85.525;  129.000;  327.000
323.043;  -15.400; -115.000; -206.000
323.179;  -33.425; -394.000; -363.000
323.315;   13.225; -401.000; -371.000
323.451;   89.400; -328.000; -236.000
323.587;   67.900;  -60.000;  -77.000
323.723;   15.725; -682.000; -601.000
323.859;  -13.550; -258.000;  -76.000
323.995;  -39.525; -467.000; -409.000
324.131; -127.750; -967.000; -892.000
324.267;  -35.950; -254.000; -276.000
324.402; -132.050; -960.000; -983.000
324.538;  -15.725; -279.000; -104.000
324.674;   12.550;  164.000;   77.000
324.810;  107.175;  226.000;  308.000
324.946;   -6.375; -810.000; -658.000
325.082;  -68.225; -568.000; -475.000
325.217;   -1.825;  -62.000;   16.000
325.353;  -84.125; -764.000; -659.000
325.489;  -86.650; -540.000; -506.000
325.625;  -79.200; -579.000; -525.000
325.760;   48.900;  517.000;  376.000
325.896;  -13.300; -515.000; -702.000
326.032;  -47.825; -403.000; -352.000
326.168;  -71.875; -462.000; -369.000
326.303;  -59.625; -352.000; -461.000
326.439;  -29.400; -336.000; -276.000
326.575;  -13.350; -190.000;  -29.000
326.710;   -4.750; -156.000;  -30.000
326.846;  -11.375;  146.000;  103.000
326.982;  -91.225; -530.000; -548.000
327.117;  -92.350; -481.000; -442.000
327.253;  -97.800; -745.000; -742.000
327.388; -140.750;-1137.000;-1153.000
327.524;  -58.275; -811.000; -578.000
327.659;  -31.225;  -58.000;  -22.000
327.795;  -11.025;   69.000;   45.000
327.931;  -95.675; -723.000; -499.000
328.066;  -18.025; -417.000; -276.000
328.202;  -31.325;   12.000; -129.000
328.337;  107.450;  957.000;  713.000
328.473;   30.450;  -12.000;  -74.000
328.608;  -10.375; -256.000; -267.000
328.743;  -78.300; -799.000; -664.000
328.879;   24.800;  214.000;  114.000
329.014;  -37.950; -102.000; -122.000
329.150;  -80.425; -358.000; -483.000
329.285;  -81.300; -465.000; -466.000
329.421;  -49.375; -548.000; -246.000
329.556;  -23.300;  -36.000;   85.000
329.691; -104.875; -633.000; -615.000
329.827;  -81.400; -626.000; -480.000
329.962;  -42.675;  131.000; -301.000
330.097;  -88.925; -673.000; -585.000
330.233;  -46.275; -410.000; -223.000
330.368; -119.200; -839.000; -628.000
330.503;   -5.575;    3.000;   98.000
330.638;   -2.100;  -93.000; -125.000
330.774;  -59.675; -609.000; -530.000
330.909;  -61.775; -434.000; -244.000
331.044; -104.900; -714.000; -708.000
331.179; -176.675;-1217.000;-1109.000
331.315;   -0.475;   77.000;   20.000
331.450;    4.800;  157.000;  285.000
331.585;  -82.550; -805.000; -706.000
331.720;  -87.375; -510.000; -460.000
331.855;   -4.500;  -35.000; -102.000
331.990;  243.000;   62.000;  138.000
332.126;  134.675; -110.000;   71.000
332.261;  -23.625; -379.000; -265.000
332.396;    3.025; -135.000; -242.000
332.531; -102.600;-1074.000;-1031.000
332.666;   25.875; -519.000; -363.000
332.801;  -99.550; -726.000; -807.000
332.936;  -25.325; -192.000; -122.000
333.071; -139.175; -870.000; -817.000
333.206;   20.475;  307.000;  379.000
333.341;   31.950;  344.000;  418.000
333.476;  -77.750; -627.000; -623.000
333.611;  -47.650; -251.000; -173.000
333.746;  -31.625; -381.000; -464.000
333.881; -131.325; -973.000; -935.000
334.016; -124.850; -936.000; -917.000
334.151; -128.325; -746.000; -702.000
334.286;   36.650;  152.000;  186.000
334.421;  -23.025; -125.000; -178.000
334.556;  -76.975; -611.000; -567.000
334.690;  -99.125; -631.000; -577.000
334.825;   50.100;  381.000;   83.000
334.960;  -59.975; -285.000; -413.000
335.095;   10.350;  135.000;  -91.000
335.230; -102.700; -722.000; -738.000
335.365; -136.625;-1084.000; -990.000
335.499; -135.150;-1108.000;-1037.000
335.634;   14.300;    9.000;  534.000
335.769;  -92.950; -755.000; -720.000
335.904;  -57.375; -603.000; -561.000
336.038;  -65.675; -735.000; -657.000
336.173; -113.075;-1206.000;-1194.000
336.308;   -4.050; -116.000; -189.000
336.443;   27.625; -544.000; -634.000
336.577;  -72.250; -936.000; -787.000
336.712;   70.425;   -4.000;  -12.000
336.847;  -39.150; -724.000; -607.000
336.981;   70.750; -272.000; -208.000
337.116;  274.525;  615.000;  501.000
337.250;  150.925; -434.000; -421.000
337.385;  251.100; -297.000; -208.000
337.520;   90.600; -632.000; -603.000
337.654;  -44.450; -215.000; -126.000
337.789; -130.075; -989.000; -933.000
337.923;  -34.575; -104.000; -205.000
338.058; -105.175; -673.000; -738.000
338.192;  -36.725; -611.000; -488.000
338.327;   -4.250;  -18.000; -155.000
338.461;  -70.125; -299.000; -469.000
338.596;  -97.700; -780.000; -638.000
338.730; -111.150; -767.000; -803.000
338.865;   89.175;  -46.000; -140.000
338.999;  -57.650; -846.000; -702.000
339.134;  -23.125; -634.000; -536.000
339.268;    1.100; -741.000; -603.000
339.403;  362.250; -740.000; -775.000
339.537;  110.450; -894.000; -820.000
339.671; -118.675; -829.000; -813.000
339.806;  -70.800; -556.000; -512.000
339.940;   18.450; -261.000; -235.000
340.074; -108.575; -685.000; -510.000
340.209;  -44.625; -351.000; -230.000
340.343;  -94.875; -517.000; -573.000
340.477;  160.625;  998.000; 1036.000
340.612;  -65.500;-1033.000; -900.000
340.746;  132.625; -199.000; -243.000
340.880;  -85.400; -924.000; -785.000
341.014;  -35.025;  -45.000; -154.000
341.149; -124.025; -756.000; -718.000
341.283; -104.775; -839.000; -754.000
341.417; -104.775;-1124.000; -938.000
341.551;  115.125; -768.000; -708.000
341.685;  -47.425; -633.000; -611.000
341.820;  -52.150; -562.000; -493.000
341.954;  -51.675; -218.000; -349.000
342.088; -145.625;-1102.000;-1019.000
342.222;   42.600;  565.000;  618.000
342.356;  -60.000; -395.000; -335.000
342.490; -100.600; -880.000; -841.000
342.624;  -46.775; -339.000; -242.000
342.758;   -4.375; -364.000; -312.000
342.892;  -64.300; -710.000; -585.000
343.026;  -34.025;  -58.000; -116.000
343.160;  -51.225; -426.000; -376.000
343.294;  -95.250; -474.000; -337.000
343.428;  -20.150; -488.000; -448.000
343.562;  -17.550; -172.000;  -23.000
343.696;  -25.100; -385.000; -314.000
343.830;  -30.500; -362.000; -356.000
343.964;   19.425; -231.000; -168.000
344.098;  869.375;  199.000;   70.000
344.232;  698.125; -266.000; -127.000
344.366;   74.425; -567.000; -453.000
344.500;   52.400; -665.000; -744.000
344.634;   21.075; -324.000; -164.000
344.768;  -19.125; -531.000; -341.000
344.902;   13.475;  278.000;  256.000
345.035;  -71.750; -556.000; -496.000
345.169; -140.575; -933.000; -656.000
345.303;  -54.325; -308.000; -482.000
345.437;  -77.250; -826.000; -717.000
345.571;  -71.475; -675.000; -594.000
345.704;  -65.100; -309.000; -532.000
345.838;  -15.150; -331.000; -284.000
345.972;  -34.075; -543.000; -495.000
346.106;  178.700; -179.000; -190.000
346.239;  394.225; -312.000; -243.000
346.373;    8.175; -343.000; -302.000
346.507; -150.200; -950.000; -962.000
346.640;  130.200;  -30.000;   13.000
346.774;  -67.225; -650.000; -797.000
346.908;  -24.825; -138.000;  -11.000
347.041; -103.100; -646.000; -593.000
347.175;    5.125;  259.000;   27.000
347.309;  -83.425; -698.000; -628.000
347.442;  -98.075; -883.000; -732.000
347.576;  262.325;  670.000;  668.000
347.709;  179.050; -123.000;  -52.000
347.843;  -90.550; -933.000; -825.000
347.976;   33.075;  235.000;  294.000
348.110; -187.375;-1268.000;-1186.000
348.243; -102.650; -679.000; -772.000
348.377;   -1.225;  -26.000;   60.000
348.510;   48.050;  403.000;  540.000
348.644;  -49.900;  -37.000; -159.000
348.777;    7.500;  180.000;  191.000
348.911;  -49.825; -142.000; -112.000
349.044;  162.200;  471.000;  448.000
349.178;  129.000;-1069.000;-1006.000
349.311;  115.250;  141.000;  255.000
349.444;  -18.125; -927.000; -813.000
349.578;  -19.375; -347.000; -200.000
349.711; -125.075; -959.000; -862.000
349.845;   -2.375; -661.000; -591.000
349.978; -155.475;-1224.000;-1137.000
350.111;  -78.550; -546.000; -612.000
350.244;  -88.375; -596.000; -700.000
350.378;   -1.525; -392.000; -393.000
350.511;  -73.025; -393.000; -426.000
350.644; -109.625; -808.000; -806.000
350.778;   10.100;  168.000;  104.000
350.911;    3.900;  134.000;  140.000
351.044;  -98.350; -685.000; -615.000
351.177;  -20.500; -321.000; -281.000
351.310;  -26.625;    3.000; -131.000
351.444;  -86.275; -888.000; -788.000
351.577;  118.175;  140.000;   90.000
351.710;  110.075;  593.000;  417.000
351.843;  -36.300; -165.000;  -77.000
351.976;    0.100;  149.000;  -79.000
352.109;  -99.775; -621.000; -612.000
352.242;  -30.275; -464.000; -419.000
352.376;  -75.100; -580.000; -636.000
352.509;  172.825; -437.000; -356.000
352.642;   -4.000; -654.000; -604.000
352.775;   42.200; -141.000;  -98.000
352.908; -120.075; -933.000; -904.000
353.041; -105.225; -814.000; -824.000
353.174;  -59.075; -551.000; -424.000
353.307;  -91.250; -753.000; -764.000
353.440;   75.450;  541.000;  453.000
353.573; -111.300; -957.000;-1008.000
353.706;  -67.550; -384.000; -558.000
353.839;  -12.925; -264.000; -220.000
353.971; -100.450; -657.000; -512.000
354.104;  -96.050; -896.000; -835.000
354.237;  -50.100; -627.000; -662.000
354.370;  -78.075; -846.000; -879.000
354.503; -177.000;-1231.000;-1308.000
354.636;  -40.600; -529.000; -348.000
354.769; -123.950; -937.000; -860.000
354.902;   -7.625; -230.000; -139.000
355.034;  -17.725; -164.000; -220.000
355.167;  -15.075; -262.000; -162.000
355.300;  -89.725;-1061.000; -880.000
355.433;  968.150;  -71.000;  -14.000
355.565; 1470.250; -402.000; -384.000
355.698;  378.150; -356.000; -296.000
355.831;   -2.375; -882.000; -801.000
355.964;   75.525; -285.000; -170.000
356.096;  -86.550; -856.000; -843.000
356.229;    6.075; -523.000; -530.000
356.362;  317.850; -373.000; -266.000
356.494;  599.725; -229.000; -162.000
356.627;  446.325;  269.000;  377.000
356.760;  649.675;  120.000;   53.000
356.892;  936.075; -286.000; -601.000
357.025;  624.900;  403.000;  389.000
357.157;  554.750; -167.000; -179.000
357.290;  695.925; -856.000; -713.000
357.423;  193.775; -667.000; -556.000
357.555;  110.200; -217.000; -228.000
357.688;  110.950; -483.000; -364.000
357.820;  417.825; -870.000; -877.000
357.953; 3534.550; -563.000; -589.000
358.085;  763.125; -632.000; -612.000
358.218; 1032.975;-1131.000; -932.000
358.350;  183.725;  -58.000;  312.000
358.483; -125.400;-1300.000;-1187.000
358.615;  -33.925;-1182.000;-1078.000
358.747;  -79.450;-1187.000;-1058.000
358.880;    2.775; -810.000; -744.000
359.012;  -11.025; -376.000; -202.000
359.145;  -36.800; -480.000; -511.000
359.277;   29.200; -962.000; -913.000
359.409; 2904.575;  536.000;  231.000
359.542;  764.275; -738.000; -688.000
359.674;   66.175;   46.000;   13.000
359.806;  -76.275; -565.000; -438.000
359.939;  -50.175; -617.000; -516.000
360.071;   -6.850; -583.000; -579.000
360.203;  -14.150; -411.000; -364.000
360.335;   44.200;  164.000;  -16.000
360.468;  188.900; -249.000; -307.000
360.600; 2367.400; -547.000; -454.000
360.732; 2824.200; -546.000; -423.000
360.864;  365.575;-1216.000;-1044.000
360.996;  254.675; -516.000; -554.000
361.129;   17.325; -389.000; -598.000
361.261;   21.825;  110.000; -113.000
361.393;  -31.400; -252.000; -214.000
361.525;   27.950;   94.000;  244.000
361.657;  -50.500; -821.000; -703.000
361.789;   18.875; -139.000; -155.000
361.921;  212.075; -642.000; -593.000
362.053;  244.450;  524.000;  541.000
362.185;   46.950;  288.000;   72.000
362.318;  -84.850; -709.000; -705.000
362.450;   88.800;  294.000;  444.000
362.582;   80.925; -913.000; -870.000
362.714;  -32.625; -353.000; -332.000
362.846;  -80.200; -606.000; -490.000
362.978; -147.850; -941.000; -811.000
363.109;   44.575; -161.000; -260.000
363.241;  406.650; -739.000; -749.000
363.373;  445.800; -649.000; -564.000
363.505;  647.875; -186.000;  -91.000
363.637;  148.800; -787.000; -601.000
363.769; -129.550;-1067.000;-1080.000
363.901;  -69.275; -596.000; -654.000
364.033; -126.450;-1103.000;-1062.000
364.165;  -12.900; -283.000; -283.000
364.296;   55.400; -316.000; -177.000
364.428;   53.325;-1344.000;-1220.000
364.560;  -69.100; -679.000; -661.000
364.692;  -58.125; -738.000; -835.000
364.824;  211.450; -588.000; -456.000
364.955;  430.750; -402.000; -564.000
365.087;  913.550;-1097.000; -852.000
365.219;   21.325; -686.000; -816.000
365.351;  -64.575; -526.000; -572.000
365.482;   52.475;  300.000;  240.000
365.614;  -50.150; -402.000; -314.000
365.746;  -99.900; -729.000; -752.000
365.877; -103.250; -706.000; -672.000
366.009;  268.000;  -35.000;  -62.000
366.141;  -87.325;-1249.000;-1134.000
366.272; -106.000; -803.000; -719.000
366.404; -127.375;-1005.000; -874.000
366.535;   -7.600; -139.000;  -12.000
366.667; -110.375; -644.000; -649.000
366.799;   30.400;  353.000;  203.000
366.930; -124.625; -862.000; -996.000
367.062;  128.750; -639.000; -613.000
367.193;  142.450; -872.000; -842.000
367.325;  -65.575; -580.000; -684.000
367.456;   37.675; -246.000;   31.000
367.588;  162.125; -371.000; -318.000
367.719;   24.000;  -44.000;  -45.000
367.851;  -17.400; -222.000; -241.000
367.982;  -64.800; -875.000; -732.000
368.113;   88.575; -475.000; -358.000
368.245; -127.900; -960.000; -841.000
368.376;  -15.375; -254.000; -302.000
368.508;  -40.250; -188.000; -263.000
368.639; -139.175;-1166.000;-1034.000
368.770;  -15.150; -670.000; -589.000
368.902;  -74.000; -836.000; -926.000
369.033; -115.800; -906.000; -855.000
369.164;  -46.400; -720.000; -653.000
369.296; -108.400; -452.000; -601.000
369.427;  -11.075; -209.000; -144.000
369.558;  -54.650; -593.000; -377.000
369.689;  -86.375; -721.000; -569.000
369.821; -149.100; -951.000; -845.000
369.952;  -18.225;   42.000; -108.000
370.083;  -49.575; -229.000; -108.000
370.214;  -80.250; -735.000; -650.000
370.345;  -22.400;   65.000;   81.000
370.477;  -81.975; -810.000; -790.000
370.608;  212.600; -328.000; -264.000
370.739;  -60.675;-1233.000;-1292.000
370.870;  -54.000;-1102.000; -923.000
371.001;   81.475; -378.000; -467.000
371.132;  -75.425; -754.000; -735.000
371.263;  -11.375;  -42.000; -148.000
371.394; -132.150; -841.000; -748.000
371.525;   31.125;  345.000;  225.000
371.657;  -97.300; -808.000; -670.000
371.788;   57.500;  103.000;  199.000
371.919;  171.600; -384.000; -304.000
372.050; 3445.650;  -91.000; -156.000
372.181; 1005.375; -188.000; -294.000
372.311;  363.725;   42.000; -127.000
372.442;   21.475; -457.000; -451.000
372.573;  -19.425; -444.000; -340.000
372.704; -134.700;-1008.000; -980.000
372.835;   66.425; -228.000; -289.000
372.966;  -68.575; -646.000; -554.000
373.097;  -66.050; -575.000; -711.000
373.228;  -39.150; -717.000; -542.000
373.359;  121.850; -824.000; -536.000
373.490;  864.075; -881.000; -727.000
373.620; 1102.425;-1001.000; -803.000
373.751; 1665.650; -332.000; -396.000
373.882;  743.825; -663.000; -733.000
374.013;   46.375; -449.000; -262.000
374.143;  -41.125; -581.000; -659.000
374.274; -113.750; -987.000; -908.000
374.405;  159.200; -388.000; -276.000
374.536;  398.500; -526.000; -387.000
374.666; 1066.000; -759.000; -807.000
374.797;  195.450; -817.000; -868.000
374.928;  805.300; -710.000; -560.000
375.058;  844.550; -535.000; -500.000
375.189;   71.075;  -59.000;  -93.000
375.320; -110.750; -928.000;-1034.000
375.450;  -26.200; -625.000; -616.000
375.581;  -65.100; -526.000; -436.000
375.712;  -31.150; -574.000; -250.000
375.842;  269.525; -438.000; -415.000
375.973;  206.600; -554.000; -513.000
376.103;  -56.300; -665.000; -648.000
376.234;  -91.525; -531.000; -552.000
376.364;  -59.850; -944.000; -867.000
376.495;  300.725;  925.000;  529.000
376.625;  -16.325; -472.000; -485.000
376.756;   46.050; -709.000; -678.000
376.886;  -90.125;-1178.000;-1026.000
377.017;   49.025;-1048.000;-1061.000
377.147;  359.000; -786.000; -782.000
377.278;   45.325;  174.000;  228.000
377.408; -133.200; -801.000; -815.000
377.538;  -98.600; -707.000; -693.000
377.669;  -94.225; -537.000; -613.000
377.799; -102.100; -645.000; -635.000
377.929;  -69.275; -610.000; -428.000
378.060; -129.475; -781.000; -847.000
378.190;  -66.875; -726.000; -531.000
378.320;  -40.750; -401.000; -406.000
378.451;   -5.000; -131.000;  -22.000
378.581;   -0.850;  -67.000; -110.000
378.711;  155.000; 1035.000;  866.000
378.841;  -24.250; -533.000; -675.000
378.972;  -83.525; -871.000; -751.000
379.102;  -11.450; -652.000; -579.000
379.232;  -30.625; -126.000;  -73.000
379.362; -112.575;-1001.000; -885.000
379.492;    1.125; -373.000; -424.000
379.623;   99.200;    0.000;  111.000
379.753; -101.375;-1107.000; -974.000
379.883;  186.350;   59.000;  156.000
380.013;   -2.625;-1081.000;-1017.000
380.143; -105.150;-1097.000;-1056.000
380.273;  -96.800; -985.000; -861.000
380.403;   -4.400; -344.000; -257.000
380.533;  -34.725; -651.000; -664.000
380.663;   79.400;  173.000;  128.000
380.793; -111.450;-1027.000;-1074.000
380.923;  -14.550; -103.000;  -34.000
381.053;  -98.050; -613.000; -623.000
381.183;  -28.175; -106.000; -248.000
381.313;    1.900; -656.000; -470.000
381.443;   28.375; -692.000; -473.000
381.573;  164.575; -402.000; -409.000
381.703;  240.550;-1249.000;-1095.000
381.833; -133.650;-1454.000;-1336.000
381.963;  118.200; -134.000;  -87.000
382.093; 1315.400; -925.000; -909.000
382.223;  411.400; -713.000; -602.000
382.353;  -27.450; -801.000; -608.000
382.482;  337.275;-1091.000; -964.000
382.612;  702.925; -872.000; -644.000
382.742;  400.675; -695.000; -622.000
382.872;  245.650; -565.000; -551.000
383.002;   59.125;  347.000; -132.000
383.131;  -32.575; -226.000; -160.000
383.261;  -35.025; -706.000; -768.000
383.391;  275.200; -552.000; -377.000
383.521; 3236.150;  451.000;  263.000
383.650;  769.575; -947.000; -904.000
383.780;  -12.625; -783.000; -656.000
383.910;  105.025;  880.000;  802.000
384.039;   31.575; -794.000; -656.000
384.169;  163.875;-1205.000;-1017.000
384.299;  -24.175; -650.000; -662.000
384.428; -101.425; -764.000; -680.000
384.558;  -52.850; -308.000; -275.000
384.687;  -60.000; -414.000; -334.000
384.817;    6.175;   75.000;   -2.000
384.947;   15.025; -234.000; -141.000
385.076;  279.100;  982.000;  912.000
385.206;   87.575;  369.000;  480.000
385.335;  -29.725; -549.000; -417.000
385.465;  -87.950; -655.000; -663.000
385.594;  126.675;  -53.000;  -44.000
385.724;  380.750; -868.000; -838.000
385.853;   98.000; -296.000; -270.000
385.982; 1287.075; -743.000; -787.000
386.112; 2035.225;-1052.000; -871.000
386.241;  139.050; -307.000; -312.000
386.371;   24.825; -174.000;  -87.000
386.500;  -16.775; -825.000; -789.000
386.629;   15.325; -874.000; -817.000
386.759;   49.000;  -43.000;   68.000
386.888;  -16.300; -170.000; -250.000
387.017;  -82.425; -648.000; -620.000
387.147;  -91.450; -771.000; -798.000
387.276;   -9.625; -410.000; -397.000
387.405;    8.425; -398.000; -342.000
387.535;  -49.550; -452.000; -361.000
387.664;  -61.050; -692.000; -620.000
387.793;   37.250; -198.000; -113.000
387.922;  476.450;  255.000;  200.000
388.052;    2.425; -576.000; -423.000
388.181;    1.550; -342.000; -472.000
388.310;  -14.325; -889.000; -710.000
388.439;  -46.550; -749.000; -742.000
388.568;  157.350;  365.000;  244.000
388.697;  985.150; -756.000; -653.000
388.826;  183.125; -768.000; -666.000
388.956;   51.725; -285.000; -307.000
389.085;  -48.775; -347.000; -287.000
389.214; -103.200; -842.000; -872.000
389.343;  -77.775; -645.000; -413.000
389.472;  398.625;  126.000;  149.000
389.601;  495.500;   91.000;    0.000
389.730;    0.275; -568.000; -687.000
389.859;   42.075;  226.000;   46.000
389.988;  180.800; -423.000; -408.000
390.117;  118.700; -168.000; -146.000
390.246;   -9.650; -331.000; -320.000
390.375;   78.825; -673.000; -626.000
390.504;  -61.425; -703.000; -621.000
390.633; -112.250; -672.000; -726.000
390.761;  -69.600; -732.000; -645.000
390.890;   10.500;   -4.000; -130.000
391.019;  -19.900; -421.000; -441.000
391.148; -128.200; -826.000; -855.000
391.277;  -67.725; -576.000; -493.000
391.406;  -88.025; -821.000; -805.000
391.534;   30.925;  574.000; -301.000
391.663;  -78.300; -583.000; -645.000
391.792;  -76.825; -673.000; -701.000
391.921;   75.550;   -3.000;   15.000
392.050;  161.575; -287.000; -228.000
392.178;  -63.075;-1206.000;-1061.000
392.307;  125.750; -758.000; -712.000
392.436;   45.625; -427.000; -641.000
392.564;   13.650;  166.000;   -6.000
392.693;  -91.225; -860.000; -682.000
392.822;  194.450; -529.000; -534.000
392.950;   69.850; -880.000; -714.000
393.079;  302.125; -188.000; -328.000
393.208;   19.250; -488.000; -511.000
393.336;  -22.775; -170.000; -145.000
393.465;  -53.725; -317.000; -199.000
393.593;    6.375;   62.000;   79.000
393.722; -169.400;-1121.000; -916.000
393.850;  -22.300; -188.000;  -61.000
393.979; -150.825; -926.000; -805.000
394.107;  -55.525; -517.000; -537.000
394.236;  -42.600; -570.000; -507.000
394.364;  179.275;  383.000;  206.000
394.493;  254.300; -911.000; -767.000
394.621;  -14.200; -955.000; -916.000
394.750;  692.950; -873.000; -923.000
394.878; 2962.475; -247.000; -149.000
395.007; 4032.675; -721.000; -807.000
395.135;  307.350; -790.000; -721.000
395.263; -107.375;-1038.000;-1040.000
395.392;   -1.725;  -25.000; -107.000
395.520; -141.200; -818.000; -679.000
395.648;  -90.575; -865.000; -915.000
395.777;  -28.325; -366.000; -405.000
395.905;  -51.400; -449.000; -564.000
396.033;    1.375;  217.000;  172.000
396.162;  450.175; -399.000; -453.000
396.290;  387.075;  -17.000;   -2.000
396.418;   60.775; -555.000; -514.000
396.546;  -79.650; -571.000; -466.000
396.674; -104.025; -850.000; -878.000
396.803;   -8.225;  -72.000;  -23.000
396.931;   80.175; -179.000; -199.000
397.059;   16.825;-1026.000; -989.000
397.187; -120.150;-1026.000; -975.000
397.315; -148.950; -884.000; -649.000
397.443; -102.600; -592.000; -443.000
397.572; -100.800; -578.000; -424.000
397.700;   -4.625; -607.000; -614.000
397.828;    3.200;  120.000;  -90.000
397.956;  -42.350; -508.000; -478.000
398.084;  -67.025; -767.000; -626.000
398.212;   34.950;  137.000;  124.000
398.340;   -3.875;  -56.000;  159.000
398.468;   14.200; -390.000; -169.000
398.596; -141.275; -993.000; -953.000
398.724; -124.600; -762.000; -767.000
398.852; -185.925;-1024.000; -976.000
398.980;  -74.800; -560.000; -560.000
399.108;  -63.800; -982.000; -735.000
399.236;   28.750;   13.000;    8.000
399.363;    7.450;  222.000;  196.000
399.491;  -63.800; -404.000; -398.000
399.619; -142.575; -829.000; -800.000
399.747; -113.975; -859.000; -771.000
399.875;   53.775;  220.000;  234.000
400.003;  -36.175; -359.000; -284.000
400.130; -100.950; -421.000; -341.000
400.258;  -23.775;  -83.000;   38.000
400.386;  -66.175; -352.000; -168.000
400.514;  -49.175; -526.000; -587.000
400.641; -100.975; -928.000; -802.000
400.769; -143.450; -979.000; -888.000
400.897; -130.725; -838.000; -793.000
401.025;  -16.800; -166.000; -152.000
401.152;  -20.000;  220.000;   38.000
401.280;  -78.325; -430.000; -429.000
401.408; -129.750; -712.000; -576.000
401.535;  -99.375; -735.000; -758.000
401.663; -195.650;-1134.000;-1054.000
401.790;  -85.275; -514.000; -525.000
401.918;   21.775;  436.000;  405.000
402.046;  -19.725;  134.000;  122.000
402.173;  -54.075;  -18.000;    7.000
402.301;  -63.550; -519.000; -397.000
402.428;   39.950;  528.000;  383.000
402.556; -139.875;-1188.000; -913.000
402.683;  -31.250;  -20.000;   -1.000
402.811;  -21.750;  -37.000; -206.000
402.938;  -10.200;   20.000;   27.000
403.066;  201.400; -574.000; -558.000
403.193;  328.925;  299.000;  239.000
403.321;  257.925; -396.000; -574.000
403.448;  293.725;   83.000;   27.000
403.575;  131.825;  -90.000;  -46.000
403.703; -108.925; -732.000; -557.000
403.830;  -63.925; -531.000; -496.000
403.957; -150.425;-1117.000;-1023.000
404.085;    4.500;  -61.000; -172.000
404.212;  106.025;  -50.000;   63.000
404.339;  274.825; -566.000; -306.000
404.467; 5805.850; -612.000; -524.000
404.594; 3735.275; -287.000; -227.000
404.721;  862.925; -869.000; -764.000
404.848;   84.025; -113.000; -202.000
404.976; -121.875; -856.000; -783.000
405.103;   -9.375;  -14.000;  -82.000
405.230;   -4.300;  190.000;  226.000
405.357;   25.850;  117.000;   44.000
405.484;  272.225;  -49.000;    5.000
405.612;   50.300; -548.000; -563.000
405.739;  -71.150; -488.000; -243.000
405.866;   93.700;  669.000;  385.000
405.993;  -42.450; -398.000; -102.000
406.120; -138.075; -801.000; -887.000
406.247;  -81.750; -323.000; -342.000
406.374;  407.100;  540.000;  629.000
406.501;   67.625; -632.000; -702.000
406.628;  -78.950; -621.000; -589.000
406.755; -110.175; -803.000; -620.000
406.882;  -41.875; -228.000; -277.000
407.009; -123.525; -719.000; -628.000
407.136;   37.050; -480.000; -401.000
407.263;   94.725; -939.000; -829.000
407.390;  -88.250; -692.000; -614.000
407.517; -195.075;-1139.000;-1187.000
407.644;  -68.975; -332.000; -256.000
407.771;  -74.225; -249.000; -287.000
407.898;   -2.500;  168.000;  328.000
408.025;  -80.800; -421.000; -313.000
408.151;  -15.825;   82.000;  153.000
408.278;  -71.525; -267.000; -216.000
408.405; -125.050; -931.000; -899.000
408.532;  -88.525; -549.000; -542.000
408.659; -125.875; -677.000; -648.000
408.785; -202.225;-1298.000;-1170.000
408.912;  -75.275; -412.000; -296.000
409.039; -125.475; -610.000; -686.000
409.166;  -97.500; -591.000; -555.000
409.292; -107.825; -571.000; -534.000
409.419; -139.300; -665.000; -649.000
409.546;  -96.200; -431.000; -192.000
409.672;  -98.300; -713.000; -545.000
409.799;  -33.100;  -36.000;   34.000
409.926;  -49.625; -180.000; -179.000
410.052; -178.175;-1127.000;-1091.000
410.179;  -63.725; -368.000; -392.000
410.305;  -89.950; -375.000; -493.000
410.432;  -41.700; -220.000; -333.000
410.558;  -98.350; -305.000; -380.000
410.685; -107.825; -688.000; -431.000
410.812; -106.300; -409.000; -588.000
410.938; -140.200; -964.000; -808.000
411.065; -106.450; -671.000; -645.000
411.191;  -22.550; -189.000; -174.000
411.317; -129.875; -823.000; -742.000
411.444;  -67.300; -317.000; -246.000
411.570;  -85.950; -339.000; -294.000
411.697; -115.400; -758.000; -752.000
411.823; -167.975; -989.000; -999.000
411.949;  -36.075;  -56.000;   17.000
412.076; -115.525; -539.000; -519.000
412.202; -118.875; -758.000; -757.000
412.329; -125.475; -798.000; -752.000
412.455; -110.125; -821.000; -657.000
412.581;  -27.775;  -15.000;  172.000
412.707;  -61.275; -540.000; -457.000
412.834;    6.450;  156.000;  219.000
412.960;  -90.975; -785.000; -784.000
413.086;  -98.400; -743.000; -701.000
413.212;  136.475;  604.000;  578.000
413.339;  -76.000; -685.000; -701.000
413.465;  -18.425; -364.000; -310.000
413.591; -103.225; -757.000; -474.000
413.717;  -57.650; -358.000; -366.000
413.843; -147.050; -839.000; -861.000
413.969;  -62.100;  -47.000; -292.000
414.096; -109.000; -679.000; -679.000
414.222;   -7.150;  -33.000;   85.000
414.348;  -41.275; -652.000; -385.000
414.474;   73.875;   38.000;  -52.000
414.600;  -30.250; -126.000; -144.000
414.726;  -13.475;  -96.000;  -55.000
414.852;  -61.400; -365.000; -342.000
414.978;   25.600;  104.000;  -18.000
415.104;   32.075;   38.000;   80.000
415.230;   19.900; -329.000; -330.000
415.356;   25.025; -409.000; -514.000
415.482;  206.500;   13.000;  -35.000
415.608;  263.450; -247.000; -323.000
415.734;  977.000;   67.000;   38.000
415.860;20141.150; -875.000; -767.000
415.986;14526.325; -685.000; -607.000
416.111; 1246.800; -798.000; -652.000
416.237;  257.725; -424.000; -571.000
416.363; 1145.525; -765.000; -733.000
416.489; 4232.100; -324.000; -251.000
416.615;  437.850; -707.000; -742.000
416.741;  -24.425; -677.000; -784.000
416.866; -103.575; -673.000; -736.000
416.992; -126.250; -801.000; -818.000
417.118;  -32.350;  -41.000;  -80.000
417.244;  -69.975; -798.000; -531.000
417.369;  -94.375; -801.000; -612.000
417.495;    0.450; -325.000; -254.000
417.621;  -92.300;-1015.000; -803.000
417.746;   -0.400; -579.000; -572.000
417.872;   51.325; -254.000; -144.000
417.998;   60.400; -515.000; -530.000
418.123; 1052.200;-1073.000; -845.000
418.249; 5436.675; -512.000; -601.000
418.374;  749.875; -916.000; -824.000
418.500;  109.475; -383.000; -482.000
418.626;   94.825;   70.000;  -59.000
418.751;  117.575; -549.000; -448.000
418.877;  190.625; -637.000; -643.000
419.002; 1835.175; -688.000; -560.000
419.128;12746.675; -930.000; -721.000
419.253; 3070.050; -967.000; -837.000
419.379;  385.300; -391.000; -338.000
419.504;  397.150;  325.000;  415.000
419.629;  521.900; -393.000; -212.000
419.755; 3613.750; -317.000; -254.000
419.880;21453.200;  -98.000;   67.000
420.006;11558.300; -280.000; -221.000
420.131;29612.850; -662.000; -775.000
420.256; 4241.900; -315.000; -316.000
420.382;  523.200; -665.000; -687.000
420.507;   76.575; -649.000; -778.000
420.632;  116.600; -337.000; -339.000
420.758;  231.000; -251.000; -425.000
420.883;  -89.575; -876.000; -672.000
421.008; -104.200; -775.000; -619.000
421.133;  -84.300; -509.000; -467.000
421.259;  -39.575; -325.000; -259.000
421.384; -129.825; -834.000; -693.000
421.509;  -42.650;-1052.000; -862.000
421.634; 1056.225; -936.000; -820.000
421.759;  468.350; -359.000; -327.000
421.885;  -59.925; -717.000; -656.000
422.010;  -69.475; -673.000; -542.000
422.135; -151.550; -695.000; -727.000
422.260;   36.725;  340.000;  280.000
422.385;  -40.075;   12.000;  -98.000
422.510;    6.950;  151.000;  -26.000
422.635;   -3.925;  -87.000;  -43.000
422.760;   76.900; -766.000; -791.000
422.885;   42.975;  -57.000;  -80.000
423.010;  -26.900; -112.000; -169.000
423.135; -103.025; -481.000; -561.000
423.260;  -13.375; -150.000; -245.000
423.385;   58.375;  476.000;  222.000
423.510;   33.500;   71.000;  -22.000
423.635;   67.025;  133.000;   45.000
423.760;   57.950;  383.000;  328.000
423.885;   46.475;  336.000;  391.000
424.010;   13.850;  -68.000;  -13.000
424.135;  -20.800;    5.000;  -33.000
424.259;  -90.150; -654.000; -457.000
424.384;  -72.325; -279.000; -272.000
424.509;  -26.525; -260.000; -186.000
424.634; -104.400; -761.000; -623.000
424.759;  -27.850; -688.000; -544.000
424.883;  -11.875; -506.000; -527.000
425.008;  171.500; -502.000; -410.000
425.133; 2021.175; -679.000; -653.000
425.258;  940.350; -517.000; -381.000
425.382; 1000.375; -867.000; -774.000
425.507; 2505.775; -487.000; -543.000
425.632;  427.400; -802.000; -663.000
425.756;  459.775; -256.000; -146.000
425.881; 6687.750; -831.000; -857.000
426.006;18005.000; -604.000; -355.000
426.130; 2788.950; -696.000; -508.000
426.255;  353.525; -611.000; -491.000
426.379;  161.475; -189.000; -577.000
426.504;  377.075;  660.000;  544.000
426.629; 4038.350; -519.000; -466.000
426.753; 2780.225;   64.000;  -46.000
426.878;  318.225; -252.000; -288.000
427.002;  139.075; -651.000; -668.000
427.127; 1594.900;  -35.000; -158.000
427.251;11550.675;  372.000;  401.000
427.375; 3287.175; -191.000; -173.000
427.500; 2219.325; -616.000; -610.000
427.624;  730.175; -234.000; -400.000
427.749;   90.050; -216.000; -225.000
427.873;  -47.600; -499.000; -412.000
427.997;  -41.425; -222.000; -230.000
428.122;   69.800;  795.000;  703.000
428.246;   79.150;  433.000;  434.000
428.371; -137.775; -869.000; -773.000
428.495; -111.100; -624.000; -646.000
428.619;  -44.050; -186.000; -117.000
428.743;   29.800;   65.000;  132.000
428.868;   -2.550; -732.000; -643.000
428.992; 1349.225; -219.000; -326.000
429.116;  519.300; -329.000; -357.000
429.240;  250.275;  419.000;  426.000
429.365;  -34.300; -454.000; -574.000
429.489;  -55.400; -638.000; -647.000
429.613;   11.975; -236.000; -177.000
429.737;   40.425; -563.000; -432.000
429.861;  265.050; -247.000; -133.000
429.985; 5617.750; -425.000; -305.000
430.109; 6129.825; -770.000; -908.000
430.234;  707.775;   76.000;  -50.000
430.358;   50.575; -250.000; -160.000
430.482;  -74.475; -672.000; -564.000
430.606;  -65.450; -655.000; -375.000
430.730;    6.850; -437.000; -388.000
430.854;   73.025; -909.000; -835.000
430.978;  -77.450; -795.000; -764.000
431.102;  -92.725; -499.000; -422.000
431.226; -119.950; -874.000; -815.000
431.350;   28.975;  345.000;  422.000
431.474;  -87.425; -661.000; -373.000
431.597; -161.075;-1060.000; -848.000
431.721;  -81.375; -276.000; -267.000
431.845; -141.225; -704.000; -472.000
431.969;  -74.525; -304.000; -349.000
432.093;  -97.450; -395.000; -317.000
432.217;  -40.350;   32.000;   82.000
432.341; -105.825; -523.000; -518.000
432.464;    3.875;   96.000;   40.000
432.588;  167.825; -401.000; -329.000
432.712;   85.375;  -52.000;  -52.000
432.836;   52.925;  213.000;  263.000
432.959;  -11.625; -372.000; -311.000
433.083;   81.750;   11.000;    2.000
433.207;  392.750;  285.000;  930.000
433.330; 5102.650; -391.000; -200.000
433.454; 6320.725; -654.000; -638.000
433.578; 3639.225;  583.000;  278.000
433.701;  648.800; -623.000; -675.000
433.825;  123.400; -292.000; -299.000
433.949;  157.825;   28.000;  -72.000
434.072;   41.850; -410.000; -323.000
434.196;  -15.000; -309.000; -117.000
434.319; 3689.000;25482.000;25124.000
434.443;  726.050; -656.000; -603.000
434.566; 2669.975;  281.000;   62.000
434.690;  444.550; -637.000; -383.000
434.813;   46.850; -251.000; -173.000
434.937;  -73.875; -569.000; -696.000
435.060;  -47.775; -423.000; -332.000
435.184;  272.675; -492.000; -217.000
435.307;  141.150;  159.000;  102.000
435.431;  -15.400;  -40.000;   24.000
435.554;  -91.975; -399.000; -240.000
435.677;  -82.400; -350.000; -258.000
435.801;  -48.350;  -25.000;   49.000
435.924;  -34.575;    1.000;  -67.000
436.048; -130.550;-1019.000; -732.000
436.171;  -78.175; -240.000;  -66.000
436.294;  -25.750; -248.000; -229.000
436.417;   90.400; -963.000; -849.000
436.541;  -89.100; -814.000; -840.000
436.664;  -55.100; -242.000; -316.000
436.787;  -40.625;   13.000;  113.000
436.910; -114.700; -792.000; -422.000
437.034;   -9.350;  142.000;  143.000
437.157;   42.400;  -11.000;    0.000
437.280;  -64.550; -392.000; -292.000
437.403;  -94.850; -982.000; -869.000
437.526;  549.575; -903.000; -865.000
437.649; 2054.450; -505.000; -332.000
437.772;  289.750; -692.000; -540.000
437.896;  109.475;  700.000;  544.000
438.019; -115.400; -758.000; -503.000
438.142;  -84.625; -596.000; -506.000
438.265;  -33.825; -639.000; -670.000
438.388;  514.300; -520.000; -410.000
438.511;   75.025; -597.000; -394.000
438.634;  -69.750; -247.000; -125.000
438.757; -155.275; -693.000; -619.000
438.880;  -25.175;  -34.000;  -57.000
439.003;  -94.700; -417.000; -437.000
439.126;  -65.950; -287.000; -167.000
439.248;  -73.350;  -98.000; -139.000
439.371;  -46.850;    9.000;  -53.000
439.494;   33.050;  510.000;  439.000
439.617;  -57.400;   65.000;  -88.000
439.740; -177.625; -968.000; -816.000
439.863; -137.125; -755.000; -595.000
439.986; -136.525; -476.000; -431.000
440.108;  -48.150; -161.000; -112.000
440.231; -173.150; -950.000; -836.000
440.354;  -41.950;  -64.000; -150.000
440.477;    5.775; -566.000; -542.000
440.599;  -22.900; -200.000; -225.000
440.722; -117.925; -709.000; -586.000
440.845;   76.175;  751.000;  928.000
440.968; -119.575; -415.000; -311.000
441.090;  -68.250; -199.000;  -33.000
441.213; -191.225;-1021.000; -825.000
441.336;  -59.775; -159.000;   -5.000
441.458;  -80.850; -549.000; -396.000
441.581;  -93.600; -628.000; -629.000
441.703;  -75.475; -152.000;   13.000
441.826; -120.875; -557.000; -400.000
441.948;  -59.200;   56.000;   51.000
442.071;   25.450;  555.000;  424.000
442.193; -131.825; -531.000; -485.000
442.316;    8.700;  152.000;   97.000
442.438;   32.150; -233.000;  -10.000
442.561;   63.375;  272.000;  262.000
442.683;  479.750; -809.000; -522.000
442.806; 1054.025;   -8.000;   74.000
442.928;   10.300; -859.000; -604.000
443.051;  -69.425; -577.000; -373.000
443.173; -110.750; -341.000; -339.000
443.295;  -93.500; -263.000; -371.000
443.418;  -79.000; -321.000;  -29.000
443.540;    1.400; -106.000;   -4.000
443.662; -117.100; -563.000; -465.000
443.785;   -7.325;  335.000;  199.000
443.907; -109.875; -362.000; -208.000
444.029; -133.900; -767.000; -494.000
444.152; -145.025; -644.000; -554.000
444.274;  -36.425;  -18.000;  -24.000
444.396; -116.575; -461.000; -221.000
444.518; -139.825; -691.000; -454.000
444.640; -113.275; -268.000; -111.000
444.763;  -16.725;  388.000;  249.000
444.885; -124.625; -432.000; -392.000
445.007;  -35.600;   35.000;   86.000
445.129; -149.725; -610.000; -515.000
445.251;  -94.700; -372.000; -439.000
445.373; -148.475; -537.000; -386.000
445.495;    2.525;  242.000;  350.000
445.617;   46.000;  853.000;  753.000
445.739;  -60.175; -215.000;  -97.000
445.861;  -51.550; -245.000; -112.000
445.984;  -39.900; -267.000; -101.000
446.105;  164.600; -418.000; -251.000
446.227;  566.300; -176.000;  -19.000
446.349;   -9.625; -358.000; -249.000
446.471;  -94.725; -615.000; -448.000
446.593;  -80.650; -316.000;   19.000
446.715;  -13.950;  -67.000;   41.000
446.837;   62.525;  697.000;  832.000
446.959; -101.200; -457.000; -478.000
447.081; -141.000; -628.000; -518.000
447.203;   52.350;  862.000;  834.000
447.325;  -94.575; -270.000;   42.000
447.446;   -5.850;  286.000;  530.000
447.568; -169.875; -921.000; -803.000
447.690;  -73.425; -236.000; -245.000
447.812; -163.675; -798.000; -519.000
447.933;  -19.275;  155.000;  127.000
448.055;  -80.100; -306.000; -261.000
448.177;  124.750;   31.000;   79.000
448.299;   55.775; -935.000; -727.000
448.420;   28.300;  -25.000;  159.000
448.542;  -60.250;   -3.000;   33.000
448.664;  -23.400;  109.000;  322.000
448.785;  -48.000;  265.000;   83.000
448.907;  -82.750; -614.000; -353.000
449.028;  -48.250; -771.000; -471.000
449.150;   48.425;  492.000;  589.000
449.272; -188.825;-1044.000; -913.000
449.393;   26.925;  612.000;  694.000
449.515; -148.675; -634.000; -581.000
449.636;  -64.650; -264.000; -155.000
449.758;   65.475;  763.000;  622.000
449.879;  -86.575; -498.000; -396.000
450.001;  -85.600; -149.000;  -49.000
450.122;  -36.350;  -95.000;  162.000
450.244;  -23.000;   37.000;  364.000
450.365;  -88.800; -495.000; -301.000
450.486;  -46.450;   80.000;  268.000
450.608;   26.000;  393.000;  326.000
450.729;   65.900;  578.000;  645.000
450.850;    8.575; -574.000; -466.000
450.972;  752.575; -552.000; -389.000
451.093; 5006.500;  190.000;  588.000
451.214; 2124.475; -516.000; -337.000
451.336;  399.775;  773.000;  579.000
451.457;   42.025;  264.000;  393.000
451.578;  -39.250; -118.000;  -74.000
451.699; -120.275; -546.000; -540.000
451.821;  -59.725; -284.000;  -50.000
451.942;  -12.800;  278.000;  285.000
452.063;   32.225;  228.000;  419.000
452.184;  528.925;  -54.000;  -49.000
452.305; 1121.125;  103.000;  170.000
452.427;  130.675; -549.000; -301.000
452.548;  -11.550;   23.000;   79.000
452.669;  -66.675; -257.000;  -89.000
452.790;  -37.875;    3.000;  -18.000
452.911;  -14.650;  195.000;  259.000
453.032;  -74.250; -289.000;  -60.000
453.153;  -45.875;  -29.000;   81.000
453.274;   63.650;  737.000;  868.000
453.395;  -63.225;  -51.000;  175.000
453.516;  116.225; 1317.000; 1388.000
453.637;  -89.100; -205.000; -150.000
453.758;  -57.400;   15.000;   69.000
453.879; -124.975; -462.000; -250.000
454.000;   72.400; 1086.000;  948.000
454.121; -129.700; -554.000; -326.000
454.242; -109.975; -599.000; -383.000
454.362;  -70.075;  -99.000;  114.000
454.483;  -49.650; -309.000; -229.000
454.604;   45.275;  512.000;  580.000
454.725; -127.000; -627.000; -555.000
454.846; -150.775; -474.000; -406.000
454.967;  -21.075;  230.000;  539.000
455.087;  -47.125;  179.000;  153.000
455.208;   17.625;  554.000;  856.000
455.329;  -85.325;  -22.000;   82.000
455.450;   32.550;  473.000;  633.000
455.570;  -98.975; -234.000; -211.000
455.691;  -41.375;  201.000;  407.000
455.812; -107.575; -270.000;  -92.000
455.932;  -60.400;  107.000;  -97.000
456.053;  -98.900;   36.000;   24.000
456.173; -112.450; -433.000; -355.000
456.294; -143.425; -476.000; -303.000
456.415;  -56.175;  -73.000;   70.000
456.535;  -44.425;  297.000;  273.000
456.656;  -38.600;  132.000;  240.000
456.776;  -80.625;    3.000;  298.000
456.897;    5.150;  308.000;  513.000
457.017;  -82.300; -153.000;   -3.000
457.138; -111.800; -402.000; -249.000
457.258;  -43.075;  263.000;  224.000
457.379;   -2.825;  509.000;  521.000
457.499;  -38.250;  443.000;  432.000
457.620; -143.150; -407.000; -231.000
457.740; -101.350; -132.000;  -11.000
457.860;  -68.250;   87.000;   44.000
457.981;  -52.325;  132.000;  124.000
458.101;  -78.075;  -89.000;   40.000
458.221;  -22.275;  336.000;  402.000
458.342;  -49.350;   -4.000;  -37.000
458.462;   21.650;  617.000;  352.000
458.582;  -36.025; -302.000; -294.000
458.703;    1.850;  303.000;  154.000
458.823;  -19.725;   22.000;  163.000
458.943;   16.500;  341.000;  467.000
459.063;  -15.075; 1124.000;  192.000
459.183;  -43.600;  328.000;  313.000
459.304;   22.225;  315.000;  517.000
459.424;  -88.375; -246.000;  -89.000
459.544;  325.575;  388.000;  764.000
459.664;  852.475;  499.000;  506.000
459.784;  312.725; 1004.000; 1175.000
459.904;   45.050;  867.000;  744.000
460.024;   75.475;  867.000;  684.000
460.144;   -1.425;  449.000;  554.000
460.264;  -13.975;  515.000;  327.000
460.385; -107.750; -145.000; -119.000
460.505;   49.650;  905.000;  858.000
460.625;  -98.350;  -17.000;  -68.000
460.745;  -19.725;  396.000;  541.000
460.864;  -58.850;  153.000;  469.000
460.984;   10.075;  499.000;  573.000
461.104;  118.750; 1656.000; 1775.000
461.224;   10.350;  657.000;  650.000
461.344;  -27.425;  431.000;  360.000
461.464;  -35.925;  258.000;  513.000
461.584;  -14.250;  283.000;  466.000
461.704;  -55.475;   58.000;  108.000
461.824;  -63.550;  238.000;  259.000
461.943;  -49.525;  191.000;  130.000
462.063;  -74.425;    2.000;  324.000
462.183;   29.025;  639.000;  717.000
462.303;   96.975; 1678.000; 1230.000
462.422;   43.150;  781.000;  840.000
462.542;  -49.350;  271.000;  391.000
462.662;   38.100;  353.000;  380.000
462.782;  226.875;  833.000;  572.000
462.901;  485.625;  545.000;  717.000
463.021;  268.500; 1702.000; 1638.000
463.141;   -5.875;  337.000;  770.000
463.260;  -20.250;  614.000;  474.000
463.380;   15.175;  902.000;  884.000
463.499;  -37.625;  342.000;  332.000
463.619;  -34.825;  581.000;  559.000
463.738;  109.150; 1644.000;  903.000
463.858;   19.200;  657.000;  811.000
463.978;  -31.775;  542.000;  396.000
464.097;   50.925;  921.000; 1114.000
464.217;  113.125; 1196.000; 1143.000
464.336;  113.000; 1068.000; 1130.000
464.455;  -31.950;  328.000;  659.000
464.575;   36.725;  597.000;  602.000
464.694;  158.775; 1204.000; 1179.000
464.814;  117.725; 1190.000; 1138.000
464.933;   73.225; 1095.000; 1027.000
465.052;  114.975; 1412.000; 1054.000
465.172;   79.050;  922.000;  799.000
465.291;  128.975; 1376.000; 1320.000
465.410;   -3.950;  462.000;  735.000
465.530;   89.275; 1355.000; 1310.000
465.649;   64.275; 1209.000; 1273.000
465.768;  136.300; 1673.000; 1508.000
465.888;   37.700;  941.000; 1174.000
466.007;  116.325; 1335.000; 1440.000
466.126;   -9.425;  721.000;  641.000
466.245;   47.425; 1176.000; 1187.000
466.364;   19.550;  950.000; 1060.000
466.484;   45.575; 1024.000; 1213.000
466.603;   43.925; 1101.000; 1222.000
466.722;  120.125; 1490.000; 1769.000
466.841;   85.600; 1151.000; 1401.000
466.960;   23.025; 1069.000;  972.000
467.079;  131.500; 1971.000; 1786.000
467.198;   49.100; 1238.000; 1181.000
467.317;   90.450; 1768.000; 1162.000
467.436;   77.425; 1709.000; 1261.000
467.555;  122.325; 1796.000; 1746.000
467.674;   51.400; 1227.000; 1329.000
467.793;   39.850; 1376.000; 1374.000
467.912;   78.250; 1658.000; 1539.000
468.031;  122.250; 2038.000; 1930.000
468.150;  135.325; 1842.000; 1837.000
468.269;  191.925; 2313.000; 2090.000
468.388;  190.800; 2168.000; 2339.000
468.507;  238.350; 2884.000; 2903.000
468.626;  229.500; 2555.000; 2541.000
468.744;  123.700; 2018.000; 2174.000
468.863;  192.925; 2312.000; 2523.000
468.982;   79.000; 1503.000; 1555.000
469.101;  211.850; 2788.000; 2692.000
469.220;  156.375; 2333.000; 2176.000
469.338;  241.725; 2935.000; 3051.000
469.457;  188.500; 2719.000; 2545.000
469.576;  339.250; 3953.000; 3784.000
469.695;  232.900; 2877.000; 3066.000
469.813;  436.150; 4148.000; 4192.000
469.932;  406.650; 4255.000; 4485.000
470.051;  441.575; 4075.000; 4161.000
470.169;  871.000; 4470.000; 4338.000
470.288; 1477.100; 4700.000; 4809.000
470.406;  870.050; 5059.000; 5194.000
470.525;  623.425; 6101.000; 5787.000
470.644;  641.075; 6847.000; 6794.000
470.762;  814.925; 8397.000; 7873.000
470.881;  894.650; 8651.000; 8464.000
470.999; 1035.800; 9685.000; 9151.000
471.118; 1097.350;11174.000;10711.000

